Data from JASIL_3306_Reflection_1.txt Node
Date: Tue Nov 17 19:49:18 EST 2015
User: Geneva
Spectrometer: USB4E03002
Autoset integration time: false
Trigger mode: 4
Integration Time (sec): 1.000000E-1
Scans to average: 10
Electric dark correction enabled: false
Nonlinearity correction enabled: false
Boxcar width: 5
Stray light correction enabled: false
XAxis mode: Wavelengths
Stop averaging: false
Number of Pixels in Spectrum: 3648
>>>>>Begin Spectral Data<<<<<
177.575	-313.86
177.794	-440.22
178.014	-578.65
178.233	-1116.98
178.452	-1048.33
178.672	-586.61
178.891	-1387.93
179.11	8470
179.33	1897.83
179.549	2015.69
179.768	-9972.73
179.987	859.09
180.207	441.8
180.426	695.89
180.645	888
180.864	6323.53
181.084	660.84
181.303	507.59
181.522	686.78
181.741	710.67
181.96	1142.42
182.179	6864.71
182.398	-1228.57
182.618	-509.95
182.837	-497.14
183.056	-503.83
183.275	-471.11
183.494	-196.4
183.713	-150.65
183.932	-92.67
184.151	-65.32
184.37	-60.03
184.589	-77.14
184.808	-93.94
185.027	-86.4
185.246	-127.24
185.465	-130.69
185.684	-209.27
185.903	-293.53
186.122	-449.58
186.341	-1074.34
186.56	-620.83
186.779	-4370.37
186.998	-523.28
187.216	-527.22
187.435	-470.3
187.654	-434.55
187.873	-266.07
188.092	-289.74
188.311	-427.14
188.53	-253.8
188.748	-127.49
188.967	-187.54
189.186	-74.2
189.405	-227.86
189.623	-186.25
189.842	-233.8
190.061	-236.12
190.28	-164.88
190.498	-217.01
190.717	-191.31
190.936	-197.65
191.154	-578.02
191.373	-1279.31
191.592	2679.07
191.81	1019.42
192.029	1178.95
192.248	566.18
192.466	586.19
192.685	243.79
192.904	493.56
193.122	314.29
193.341	375.63
193.559	454.24
193.778	541.99
193.996	546.92
194.215	1350.72
194.433	614.29
194.652	557.34
194.87	479.37
195.089	667.69
195.307	1545.61
195.526	-917.35
195.744	-743.88
195.963	-822.67
196.181	-959.5
196.399	-1242.53
196.618	1759.21
196.836	1041.84
197.055	997.3
197.273	1092.54
197.491	1102.7
197.71	556.35
197.928	504.3
198.146	513.7
198.365	2583.33
198.583	1742.86
198.801	-779.84
199.019	-222.09
199.238	-174.87
199.456	-168.73
199.674	-261.24
199.892	-240.98
200.111	-202.82
200.329	-255.65
200.547	-285.9
200.765	2258.82
200.983	-941.88
201.202	1644.74
201.42	491.07
201.638	348.88
201.856	585.9
202.074	809.33
202.292	448.93
202.51	418.62
202.728	432.62
202.946	4125
203.165	1907.69
203.383	412.64
203.601	588.83
203.819	1149.09
204.037	-3857.58
204.255	-4774.07
204.473	-890.91
204.691	-802.94
204.909	-528.76
205.127	-2804.17
205.345	768.48
205.562	-996.12
205.78	-268.32
205.998	-260.81
206.216	-209.17
206.434	-273.82
206.652	-312.84
206.87	-585.03
207.088	-451.43
207.306	-648.55
207.523	-466.97
207.741	-342.94
207.959	-516.67
208.177	-535.75
208.395	-493.14
208.612	-540.74
208.83	-302.79
209.048	-312.54
209.266	-287.85
209.483	-179.96
209.701	-211.16
209.919	-192.36
210.136	-218.07
210.354	-239.8
210.572	-327.95
210.79	-379
211.007	-757.04
211.225	-7760
211.442	1767.8
211.66	4192
211.878	423.92
212.095	1131.41
212.313	1838.98
212.53	1007.11
212.748	862.55
212.966	623.19
213.183	773.54
213.401	-9594.44
213.618	-636.51
213.836	-575.77
214.053	-798.17
214.271	-528.85
214.488	-280.36
214.705	-258.58
214.923	-220.18
215.14	-130.98
215.358	-96.27
215.575	-81.53
215.793	-134.63
216.01	-422.27
216.227	-693.1
216.445	-584.72
216.662	-265.95
216.879	-300.87
217.097	-163.95
217.314	-238.13
217.531	10500
217.749	1010.89
217.966	554.4
218.183	391
218.4	669.68
218.618	721.05
218.835	461.85
219.052	463.24
219.269	428.28
219.487	224.32
219.704	217.05
219.921	236.11
220.138	289.66
220.355	258.86
220.572	236.59
220.79	210.74
221.007	314.69
221.224	447.53
221.441	432.2
221.658	491.45
221.875	-2500
222.092	-997.73
222.309	2724.24
222.526	564.24
222.743	542.03
222.96	828.06
223.177	2674.42
223.394	1482.89
223.611	836.36
223.828	527.6
224.045	410.75
224.262	313.3
224.479	327.36
224.696	599.52
224.913	936.36
225.13	956.6
225.347	642.07
225.564	281.53
225.781	165.26
225.997	143.84
226.214	132.45
226.431	114.88
226.648	100.11
226.865	83.93
227.082	69.81
227.298	62.37
227.515	53.4
227.732	53.36
227.949	52.27
228.165	50.23
228.382	46.22
228.599	48.09
228.816	49.09
229.032	51.21
229.249	56.19
229.466	55.82
229.682	58.46
229.899	64.9
230.116	76.33
230.332	81.24
230.549	81.06
230.765	70.91
230.982	64.43
231.199	71.14
231.415	70.03
231.632	75.55
231.848	75.48
232.065	75.25
232.281	69.69
232.498	66.54
232.714	73.97
232.931	72.92
233.147	80.63
233.364	87.33
233.58	78.66
233.797	82.84
234.013	91.37
234.23	106.81
234.446	118.81
234.662	150.06
234.879	198.91
235.095	181.32
235.312	160.85
235.528	186.73
235.744	221.04
235.961	291.41
236.177	267.02
236.393	333.81
236.61	248.76
236.826	211.79
237.042	156.48
237.258	153.77
237.475	143.97
237.691	189.62
237.907	134.81
238.123	125.34
238.339	125.85
238.556	118.24
238.772	91.16
238.988	90.12
239.204	78.08
239.42	72.55
239.636	68.92
239.853	63.73
240.069	60.31
240.285	55.49
240.501	47.78
240.717	41.04
240.933	40.74
241.149	40.7
241.365	37.87
241.581	41.89
241.797	45.24
242.013	41.66
242.229	38.92
242.445	34.8
242.661	34.23
242.877	37.26
243.093	42.41
243.309	39.97
243.525	42.37
243.741	44.98
243.957	35.46
244.173	29.63
244.388	30.88
244.604	34.64
244.82	35.03
245.036	31.65
245.252	28.39
245.468	26.73
245.683	27.07
245.899	22.4
246.115	23.54
246.331	24.77
246.547	25.22
246.762	27.14
246.978	25.27
247.194	25.64
247.409	27.21
247.625	26.23
247.841	24.32
248.057	23.76
248.272	28.31
248.488	26.64
248.703	27.82
248.919	33.26
249.135	33.02
249.35	35.85
249.566	35.54
249.782	39.62
249.997	44.25
250.213	49.84
250.428	52.55
250.644	50.85
250.859	52.2
251.075	50.09
251.29	45.69
251.506	44.64
251.721	44.36
251.937	47.26
252.152	45.37
252.368	41.99
252.583	38.96
252.798	35.09
253.014	32.55
253.229	28.57
253.445	35.58
253.66	37.01
253.875	32.24
254.091	30.03
254.306	28.97
254.521	20.5
254.737	26.13
254.952	25.22
255.167	26.35
255.383	26.04
255.598	31.18
255.813	23.51
256.028	17.89
256.244	25.01
256.459	28.85
256.674	26.98
256.889	29.77
257.104	26.05
257.32	25.85
257.535	26.17
257.75	25.15
257.965	21.88
258.18	20.89
258.395	21.26
258.61	20.27
258.826	17.51
259.041	16.58
259.256	15.75
259.471	16.03
259.686	16.76
259.901	15.95
260.116	16.44
260.331	18.44
260.546	19.84
260.761	20.88
260.976	22.09
261.191	25.98
261.406	31.39
261.621	29.93
261.836	31.69
262.05	30.81
262.265	36.1
262.48	35.97
262.695	31.83
262.91	26.3
263.125	26.62
263.34	20.86
263.555	13.08
263.769	5.45
263.984	10.83
264.199	11.96
264.414	14.59
264.629	6.04
264.843	11.3
265.058	11.92
265.273	12.55
265.488	14.48
265.702	18.25
265.917	21.27
266.132	22.26
266.346	23.47
266.561	24.55
266.776	22.63
266.99	26.65
267.205	25
267.42	24.71
267.634	25.17
267.849	24.8
268.063	20.74
268.278	21.11
268.492	22.07
268.707	21.62
268.922	19.17
269.136	21.71
269.351	18.37
269.565	17.28
269.78	18.5
269.994	22.4
270.209	21.06
270.423	22.45
270.637	20.68
270.852	18.41
271.066	17.35
271.281	18.2
271.495	15.75
271.709	15.92
271.924	17.06
272.138	16.92
272.353	15.7
272.567	16.83
272.781	14.98
272.996	18.03
273.21	18.8
273.424	20.98
273.638	22.39
273.853	25.18
274.067	26.11
274.281	23.99
274.495	22.08
274.71	24.15
274.924	23.46
275.138	27.23
275.352	24.11
275.566	24.93
275.781	22.1
275.995	19.86
276.209	17.43
276.423	16.61
276.637	17.59
276.851	20.9
277.065	18.01
277.279	15.6
277.493	14.38
277.707	12.93
277.921	10.54
278.135	16.48
278.349	15.06
278.563	15.69
278.777	15.59
278.991	17.62
279.205	16.93
279.419	16.92
279.633	20.67
279.847	21.48
280.061	22.02
280.275	24.79
280.489	20.09
280.703	22.46
280.917	23.04
281.131	22.84
281.344	22.25
281.558	21.8
281.772	19.94
281.986	17.88
282.2	15.72
282.414	15.85
282.627	14.52
282.841	16.41
283.055	13.84
283.269	14.57
283.482	15.37
283.696	14.42
283.91	13.68
284.123	13.55
284.337	14.17
284.551	13.62
284.764	12.81
284.978	13.56
285.192	13.25
285.405	13.43
285.619	13.33
285.833	13.56
286.046	13.91
286.26	13.94
286.473	15.82
286.687	14.99
286.9	16.22
287.114	16.16
287.327	15.04
287.541	13.52
287.754	16.26
287.968	15.92
288.181	14.5
288.395	14.6
288.608	13.95
288.822	12.64
289.035	11.57
289.248	12.14
289.462	11.37
289.675	12.07
289.889	13.05
290.102	10.36
290.315	10.26
290.529	10.94
290.742	10.25
290.955	10.65
291.169	10.93
291.382	11.91
291.595	11.55
291.808	14.93
292.022	14.26
292.235	14.13
292.448	15.1
292.661	15.26
292.875	14.51
293.088	15.96
293.301	16.53
293.514	16.67
293.727	15.98
293.94	15.22
294.153	12.83
294.367	12.38
294.58	12.03
294.793	12.12
295.006	10.16
295.219	11.3
295.432	9.01
295.645	9.14
295.858	10.76
296.071	11.27
296.284	11.79
296.497	12.19
296.71	13.53
296.923	13.04
297.136	12.58
297.349	14.4
297.562	13.56
297.775	14.46
297.988	13.37
298.201	13.6
298.414	14.65
298.626	13.46
298.839	13.74
299.052	12.65
299.265	15.34
299.478	16.36
299.691	14.99
299.903	14.74
300.116	15.38
300.329	15
300.542	13.94
300.755	13.99
300.967	13.99
301.18	15.54
301.393	14.96
301.605	13.34
301.818	12.52
302.031	13.33
302.243	14.65
302.456	14.62
302.669	14.92
302.881	14.76
303.094	14.56
303.307	15.28
303.519	14.4
303.732	15.78
303.944	14.19
304.157	15.43
304.37	15.9
304.582	16.28
304.795	17.64
305.007	20.18
305.22	19.21
305.432	19.27
305.645	20.2
305.857	19.49
306.069	18.16
306.282	18.53
306.494	18.44
306.707	19.38
306.919	17.88
307.132	16.4
307.344	14.13
307.556	14.72
307.769	13.05
307.981	12.57
308.193	13.49
308.406	12.72
308.618	12.28
308.83	12.29
309.043	11.48
309.255	12.72
309.467	13.07
309.679	12.96
309.892	13.45
310.104	14.92
310.316	16
310.528	14.94
310.74	15.65
310.953	17.09
311.165	17.02
311.377	17.3
311.589	17.45
311.801	16.31
312.013	17.65
312.225	16.98
312.437	16.2
312.649	13.43
312.862	14.93
313.074	15.65
313.286	14.77
313.498	15.9
313.71	14.93
313.922	14.3
314.134	14.8
314.346	13.94
314.558	14.57
314.77	16.18
314.982	18.99
315.193	17.8
315.405	17.52
315.617	17.47
315.829	17.36
316.041	19.27
316.253	20
316.465	21.37
316.677	21.35
316.888	22.65
317.1	20.38
317.312	20.37
317.524	22.15
317.736	23.38
317.947	26.01
318.159	25.38
318.371	25
318.583	21.7
318.794	22.44
319.006	23.87
319.218	22.01
319.43	22.91
319.641	24.2
319.853	24.4
320.064	22.44
320.276	21.45
320.488	21.04
320.699	20.56
320.911	22.95
321.123	20.88
321.334	19.06
321.546	18.41
321.757	18.56
321.969	17.49
322.18	16.63
322.392	16.72
322.603	15.92
322.815	15.06
323.026	13.06
323.238	13.9
323.449	11.83
323.661	13.64
323.872	14.96
324.083	15.07
324.295	13.85
324.506	11.81
324.718	11.87
324.929	12.8
325.14	14.6
325.352	15.22
325.563	16.68
325.774	19.68
325.986	19.41
326.197	19.89
326.408	19.47
326.62	19.94
326.831	22.1
327.042	23.71
327.253	23.69
327.464	23.72
327.676	25.96
327.887	24.31
328.098	24.57
328.309	24.47
328.52	24.2
328.732	25.04
328.943	25.67
329.154	25.41
329.365	24.35
329.576	23.01
329.787	24.55
329.998	23.57
330.209	24.08
330.42	24.15
330.631	25.12
330.842	24.95
331.053	25.31
331.264	27.27
331.475	27.91
331.686	29.13
331.897	30.43
332.108	28.11
332.319	27.62
332.53	27.31
332.741	27.13
332.952	25.42
333.163	26.76
333.374	27.81
333.585	26.55
333.795	25.76
334.006	24.59
334.217	23.37
334.428	23.36
334.639	23.62
334.849	24.87
335.06	25.9
335.271	27.13
335.482	25.67
335.692	24.14
335.903	23.16
336.114	23.98
336.325	25.3
336.535	25.86
336.746	26.51
336.957	25.1
337.167	23.07
337.378	23.58
337.589	22.84
337.799	22.21
338.01	23.5
338.22	25.54
338.431	24.68
338.642	24.83
338.852	25.12
339.063	24.5
339.273	25.99
339.484	25.15
339.694	23.56
339.905	24.56
340.115	25.45
340.326	24.31
340.536	22.66
340.746	22.76
340.957	21.73
341.167	22.11
341.378	21.72
341.588	22.26
341.799	23.42
342.009	22.74
342.219	21.63
342.43	22.82
342.64	22.76
342.85	23.51
343.061	23.27
343.271	24.53
343.481	23.47
343.691	23.89
343.902	22.77
344.112	23.04
344.322	23.34
344.532	23.78
344.743	22.8
344.953	23.09
345.163	22.37
345.373	22.62
345.583	20.82
345.793	22.06
346.004	22.19
346.214	23.03
346.424	23.55
346.634	24.07
346.844	23.95
347.054	24.64
347.264	23.74
347.474	23.03
347.684	23.57
347.894	22.91
348.104	22.47
348.314	21.05
348.524	19.98
348.734	19.77
348.944	19.15
349.154	18.73
349.364	17.11
349.574	17.99
349.784	18.19
349.994	18.28
350.204	19.86
350.413	18.4
350.623	18.3
350.833	20
351.043	20.01
351.253	21.31
351.463	20.28
351.672	19.52
351.882	18.13
352.092	18.61
352.302	17.82
352.511	17.62
352.721	18.61
352.931	20.23
353.141	17.6
353.35	17.25
353.56	15.94
353.77	16.46
353.979	17.11
354.189	18.49
354.399	18.12
354.608	17.52
354.818	17
355.027	17.27
355.237	15.91
355.447	18.24
355.656	17.41
355.866	17.68
356.075	18.18
356.285	18.59
356.494	17.59
356.704	18.5
356.913	18.3
357.123	18.19
357.332	18.05
357.542	19.03
357.751	17.78
357.96	17.99
358.17	17.82
358.379	17.68
358.589	17.9
358.798	18.63
359.007	18.32
359.217	19.39
359.426	18.86
359.635	18.52
359.845	18.24
360.054	18.26
360.263	17.83
360.472	17.88
360.682	17.48
360.891	16.87
361.1	16.84
361.309	17.58
361.519	17.3
361.728	17.38
361.937	17.86
362.146	17.72
362.355	18.27
362.564	17.6
362.774	17.43
362.983	17.2
363.192	17.35
363.401	17.44
363.61	16.3
363.819	17.04
364.028	18.11
364.237	17.56
364.446	18.35
364.655	16.78
364.864	19.14
365.073	19.66
365.282	19.66
365.491	20.96
365.7	21.25
365.909	21.12
366.118	20.17
366.327	19.84
366.536	19.15
366.745	18.67
366.954	19.75
367.162	18.8
367.371	18.5
367.58	19.78
367.789	19.28
367.998	19.01
368.207	18.01
368.415	18.29
368.624	18.05
368.833	19.41
369.042	19.85
369.25	19.25
369.459	18.87
369.668	19.01
369.877	18.73
370.085	18.8
370.294	18.49
370.503	19.88
370.711	19.81
370.92	19.19
371.129	18.8
371.337	18.18
371.546	17.39
371.754	17.09
371.963	16.86
372.171	16.1
372.38	15.42
372.589	14.98
372.797	14.07
373.006	14.44
373.214	14.67
373.423	14.29
373.631	14.76
373.84	15.25
374.048	15.04
374.256	14.91
374.465	15.73
374.673	16.19
374.882	15.62
375.09	15.48
375.298	15.49
375.507	14.62
375.715	14.59
375.923	14.29
376.132	14.62
376.34	14.94
376.548	14.85
376.757	14.36
376.965	13.75
377.173	13.89
377.381	14.38
377.59	13.82
377.798	14.72
378.006	14.67
378.214	15.28
378.423	15.09
378.631	14.99
378.839	15.41
379.047	16.57
379.255	17.98
379.463	18.63
379.671	19.01
379.879	18.45
380.088	18.63
380.296	19.89
380.504	19.3
380.712	18.94
380.92	19.16
381.128	19.21
381.336	17.99
381.544	16.71
381.752	16.2
381.96	15.87
382.168	15.6
382.376	16.31
382.584	15.01
382.791	14.33
382.999	15.33
383.207	15.01
383.415	14.99
383.623	15.59
383.831	15.32
384.039	16.18
384.247	15.54
384.454	16.93
384.662	16.12
384.87	16.8
385.078	16.97
385.285	16.27
385.493	17.69
385.701	17.1
385.909	16.48
386.116	17.02
386.324	15.88
386.532	16.36
386.739	16.09
386.947	15.35
387.155	14.82
387.362	15.04
387.57	14.65
387.778	13.27
387.985	12.88
388.193	12.46
388.4	12.68
388.608	13.54
388.816	13.75
389.023	13.85
389.231	15.11
389.438	15.22
389.646	15.2
389.853	16.13
390.061	16.48
390.268	16.41
390.475	17.1
390.683	16.17
390.89	15.75
391.098	15.44
391.305	14.69
391.512	14.21
391.72	14.04
391.927	14.46
392.135	14.06
392.342	13.45
392.549	13.27
392.756	12.81
392.964	12.76
393.171	13.8
393.378	13.24
393.586	13.7
393.793	13.71
394	13.32
394.207	12.58
394.414	12.81
394.622	13.34
394.829	13.97
395.036	13.35
395.243	13.86
395.45	12.89
395.657	13.27
395.864	13.7
396.072	13.69
396.279	14.26
396.486	13.94
396.693	13.3
396.9	12.74
397.107	12.97
397.314	13.66
397.521	13.31
397.728	13.66
397.935	13.08
398.142	12.84
398.349	13.14
398.556	12.54
398.763	12.66
398.97	13.54
399.177	13.98
399.383	13.74
399.59	14.13
399.797	14.37
400.004	14.24
400.211	14.74
400.418	14.39
400.625	13.84
400.831	14.56
401.038	14.01
401.245	13.18
401.452	12.78
401.658	12.87
401.865	12.72
402.072	12.34
402.279	11.79
402.485	12.11
402.692	12.22
402.899	11.5
403.105	11.4
403.312	11.92
403.519	12.46
403.725	12.88
403.932	12.6
404.138	12.84
404.345	12.49
404.552	12.39
404.758	12.11
404.965	11.64
405.171	12.25
405.378	12.11
405.584	12.75
405.791	12.02
405.997	12.06
406.204	12.47
406.41	12.01
406.617	12.51
406.823	12.34
407.029	12.23
407.236	13.27
407.442	13.19
407.649	13.14
407.855	12.84
408.061	13.45
408.268	13.14
408.474	13.15
408.68	12.84
408.887	13.32
409.093	14.04
409.299	14.04
409.505	13.53
409.712	14.19
409.918	13.67
410.124	12.78
410.33	12.78
410.537	13.14
410.743	12.81
410.949	13.2
411.155	12.64
411.361	12.08
411.567	11.71
411.773	11.53
411.98	10.73
412.186	11.46
412.392	12.35
412.598	11.88
412.804	11.21
413.01	11.14
413.216	11.37
413.422	11.82
413.628	12.42
413.834	12.9
414.04	12.33
414.246	12.53
414.452	12.25
414.658	11.47
414.864	11.96
415.07	11.91
415.275	11.94
415.481	11.46
415.687	11.02
415.893	10.84
416.099	11.17
416.305	11.26
416.511	11.27
416.716	10.95
416.922	11.24
417.128	11.03
417.334	11.09
417.539	11.34
417.745	11.48
417.951	11.08
418.157	11.29
418.362	11
418.568	10.88
418.774	10.63
418.979	10.65
419.185	10.91
419.391	10.76
419.596	10.85
419.802	10.48
420.008	10.08
420.213	7.74
420.419	7.59
420.624	7.67
420.83	7.86
421.035	8.02
421.241	8.12
421.446	7.85
421.652	8.2
421.857	8.14
422.063	8.25
422.268	8.45
422.474	10.79
422.679	10.62
422.885	10
423.09	10.26
423.295	10.19
423.501	9.99
423.706	10.13
423.911	9.76
424.117	9.71
424.322	9.57
424.527	9.46
424.733	9.93
424.938	9.69
425.143	10.23
425.349	9.79
425.554	9.78
425.759	9.95
425.964	9.77
426.169	9.78
426.375	10.1
426.58	10.37
426.785	10.51
426.99	10.29
427.195	10.86
427.4	10.97
427.605	11.49
427.811	11.47
428.016	11.56
428.221	11.78
428.426	11.95
428.631	11.51
428.836	11.78
429.041	12.41
429.246	12.45
429.451	12.2
429.656	11.88
429.861	11.42
430.066	11.49
430.271	11.97
430.476	11.99
430.681	11.83
430.886	11.58
431.09	10.85
431.295	10.52
431.5	10.37
431.705	10.5
431.91	10.15
432.115	10.07
432.32	9.91
432.524	9.49
432.729	9.23
432.934	9.47
433.139	9.81
433.343	9.81
433.548	9.41
433.753	9.15
433.958	8.74
434.162	9.4
434.367	9.6
434.572	9.28
434.776	9.4
434.981	9.63
435.186	9.41
435.39	9.7
435.595	9.88
435.799	10.4
436.004	10.58
436.209	11.02
436.413	10.46
436.618	10.17
436.822	10.65
437.027	10.61
437.231	10.26
437.436	10.28
437.64	9.85
437.845	10.13
438.049	9.86
438.253	9.63
438.458	9.36
438.662	9.91
438.867	10.06
439.071	10.08
439.275	10.23
439.48	10.31
439.684	10.56
439.888	10.68
440.093	10.54
440.297	10.32
440.501	10.63
440.706	11.18
440.91	10.98
441.114	11.1
441.318	11.09
441.523	10.93
441.727	10.84
441.931	10.81
442.135	10.8
442.339	10.75
442.543	11.09
442.748	11.1
442.952	10.53
443.156	10.26
443.36	10.42
443.564	10.22
443.768	10.55
443.972	10.93
444.176	10.66
444.38	10.46
444.584	10.59
444.788	10.13
444.992	10.08
445.196	10.03
445.4	10.12
445.604	9.84
445.808	9.87
446.012	9.33
446.216	8.98
446.42	8.98
446.624	9.21
446.828	9.13
447.032	9.39
447.235	9.31
447.439	9.3
447.643	9.34
447.847	9.49
448.051	9.59
448.254	9.58
448.458	9.75
448.662	9.64
448.866	9.59
449.069	9.3
449.273	9.31
449.477	9.23
449.681	9.17
449.884	9.16
450.088	8.93
450.292	8.8
450.495	8.93
450.699	9.2
450.902	9.22
451.106	9.01
451.31	9.41
451.513	9.78
451.717	10.14
451.92	10.66
452.124	10.9
452.327	10.73
452.531	11.05
452.734	11.2
452.938	10.69
453.141	10.84
453.345	10.78
453.548	10.46
453.752	10.34
453.955	9.96
454.158	9.62
454.362	9.39
454.565	9.62
454.769	9.48
454.972	9.69
455.175	9.92
455.379	10.39
455.582	10.45
455.785	10.59
455.988	10.4
456.192	10.19
456.395	10.04
456.598	10.03
456.801	10.41
457.005	9.87
457.208	9.33
457.411	9.15
457.614	8.56
457.817	8.5
458.021	8.48
458.224	8.47
458.427	8.61
458.63	8.58
458.833	8.74
459.036	8.55
459.239	8.81
459.442	9.04
459.645	9.17
459.848	9.21
460.051	9.33
460.254	9.42
460.457	9.56
460.66	9.94
460.863	10.12
461.066	9.65
461.269	9.53
461.472	9.62
461.675	9.61
461.878	9.7
462.081	10.06
462.284	10.2
462.486	10.21
462.689	9.75
462.892	9.49
463.095	9.4
463.298	9.83
463.5	9.92
463.703	9.8
463.906	9.9
464.109	10.03
464.311	9.82
464.514	9.77
464.717	9.58
464.92	10.1
465.122	9.83
465.325	10.27
465.528	10.14
465.73	10.14
465.933	10.05
466.135	10.01
466.338	9.95
466.541	9.51
466.743	9.53
466.946	9.69
467.148	9.84
467.351	9.93
467.553	9.58
467.756	9.47
467.958	9.58
468.161	9.85
468.363	9.75
468.566	9.69
468.768	10.13
468.971	9.9
469.173	10
469.375	9.84
469.578	9.75
469.78	9.64
469.983	10.13
470.185	9.81
470.387	10.05
470.59	9.97
470.792	9.88
470.994	9.74
471.196	9.97
471.399	9.56
471.601	9.41
471.803	9.46
472.005	9.65
472.208	9.61
472.41	9.57
472.612	9.35
472.814	9.6
473.016	9.39
473.218	9.54
473.421	9.11
473.623	9.37
473.825	9.24
474.027	9.62
474.229	9.86
474.431	9.44
474.633	9.83
474.835	9.19
475.037	9.16
475.239	9.2
475.441	9.38
475.643	9.85
475.845	9.82
476.047	10.01
476.249	9.72
476.451	9.24
476.653	9.55
476.855	9.56
477.057	9.9
477.258	9.42
477.46	9.59
477.662	9.42
477.864	9.41
478.066	9.48
478.268	9.47
478.469	9.82
478.671	9.65
478.873	9.41
479.075	9.11
479.276	9.1
479.478	9.29
479.68	9.2
479.882	9.06
480.083	9.01
480.285	8.74
480.487	8.73
480.688	8.64
480.89	8.91
481.091	9.05
481.293	8.86
481.495	8.88
481.696	8.77
481.898	8.73
482.099	8.67
482.301	8.62
482.502	8.69
482.704	8.61
482.905	8.49
483.107	8.46
483.308	8.27
483.51	8.41
483.711	8.32
483.913	8.4
484.114	8.42
484.315	8.42
484.517	8.37
484.718	8.4
484.92	8.44
485.121	8.37
485.322	8.29
485.524	8.33
485.725	8.28
485.926	8.33
486.127	8.32
486.329	8.38
486.53	8.32
486.731	8.35
486.932	8.21
487.134	8.23
487.335	8.2
487.536	8.21
487.737	8.36
487.938	8.33
488.139	8.37
488.341	8.4
488.542	8.37
488.743	8.57
488.944	8.55
489.145	8.6
489.346	8.48
489.547	8.55
489.748	8.56
489.949	8.48
490.15	8.35
490.351	8.27
490.552	8.23
490.753	8.1
490.954	8.02
491.155	8.04
491.356	8.1
491.557	8.05
491.758	8.13
491.959	8.24
492.159	8.27
492.36	8.38
492.561	8.55
492.762	8.61
492.963	8.79
493.164	8.98
493.364	9.21
493.565	9.26
493.766	9.31
493.967	9.24
494.167	8.86
494.368	8.67
494.569	8.76
494.769	8.86
494.97	8.79
495.171	8.96
495.371	8.84
495.572	8.82
495.773	8.88
495.973	8.98
496.174	9.08
496.375	9.66
496.575	9.75
496.776	9.71
496.976	9.5
497.177	9.62
497.377	9.55
497.578	9.35
497.778	9.04
497.979	9.21
498.179	9.05
498.38	9.32
498.58	8.9
498.78	9.18
498.981	9.44
499.181	9.29
499.382	9.49
499.582	9.35
499.782	9.83
499.983	10.14
500.183	10.12
500.383	10.44
500.584	10.07
500.784	10.13
500.984	10.17
501.184	9.92
501.385	10.39
501.585	10.33
501.785	10.4
501.985	10.23
502.185	10.09
502.386	10.16
502.586	10.56
502.786	10.67
502.986	10.61
503.186	10.29
503.386	10.58
503.586	10.37
503.786	10.3
503.987	10.23
504.187	9.86
504.387	10.04
504.587	9.62
504.787	9.42
504.987	9.51
505.187	9.69
505.387	9.74
505.587	9.2
505.786	9.13
505.986	9.21
506.186	9.18
506.386	9.92
506.586	9.85
506.786	9.98
506.986	9.59
507.186	9.67
507.386	9.78
507.585	10.21
507.785	10.82
507.985	11.05
508.185	10.97
508.384	11.29
508.584	11.24
508.784	11.41
508.984	11.69
509.183	12.05
509.383	11.99
509.583	11.92
509.782	11.3
509.982	11.4
510.182	11.43
510.381	11.38
510.581	11.16
510.781	10.92
510.98	10.95
511.18	10.89
511.379	10.86
511.579	10.53
511.778	10.75
511.978	11.22
512.177	10.95
512.377	10.86
512.576	11
512.776	10.86
512.975	10.86
513.175	10.81
513.374	10.92
513.573	10.79
513.773	11.09
513.972	11.07
514.172	11.25
514.371	11.35
514.57	11.48
514.77	11.39
514.969	11.64
515.168	12.03
515.367	12.03
515.567	11.79
515.766	11.95
515.965	12.12
516.164	11.99
516.364	11.61
516.563	11.72
516.762	11.88
516.961	11.83
517.16	11.99
517.359	11.92
517.559	11.79
517.758	11.93
517.957	12.15
518.156	12.17
518.355	12.31
518.554	12.38
518.753	12.33
518.952	12.31
519.151	12.51
519.35	12.67
519.549	12.58
519.748	12.94
519.947	13.07
520.146	13.12
520.345	13.28
520.544	13.27
520.743	13.5
520.942	13.51
521.141	13.63
521.339	13.46
521.538	13.65
521.737	13.93
521.936	13.9
522.135	13.85
522.333	13.6
522.532	13.78
522.731	13.74
522.93	13.81
523.129	14.13
523.327	14.08
523.526	14.27
523.725	13.84
523.923	13.8
524.122	13.72
524.321	13.7
524.519	13.87
524.718	13.7
524.917	13.9
525.115	13.89
525.314	13.85
525.512	14.12
525.711	14.16
525.909	14.2
526.108	14.24
526.306	14.37
526.505	14.51
526.703	14.34
526.902	14.28
527.1	14.26
527.299	14.3
527.497	14.23
527.696	14.07
527.894	14.1
528.092	14.23
528.291	14.17
528.489	14.18
528.688	14.24
528.886	14.3
529.084	14.49
529.283	14.61
529.481	14.74
529.679	14.82
529.877	15.06
530.076	15.26
530.274	15.46
530.472	15.52
530.67	15.76
530.869	15.98
531.067	16.35
531.265	16.37
531.463	16.56
531.661	16.67
531.859	17.04
532.057	17.02
532.255	16.99
532.454	16.82
532.652	17.05
532.85	17.07
533.048	17.01
533.246	17.07
533.444	17.12
533.642	17.2
533.84	17.64
534.038	17.49
534.236	17.67
534.434	17.95
534.632	18.21
534.83	18.33
535.027	18.39
535.225	18.61
535.423	18.72
535.621	18.93
535.819	18.98
536.017	18.67
536.215	19
536.412	18.95
536.61	18.9
536.808	19.25
537.006	19.36
537.203	19.7
537.401	20.03
537.599	20.34
537.797	20.4
537.994	20.34
538.192	20.48
538.39	20.27
538.587	20.33
538.785	20.29
538.983	20.17
539.18	20.38
539.378	20.1
539.575	19.91
539.773	19.66
539.97	19.88
540.168	19.98
540.366	19.99
540.563	19.97
540.761	20.18
540.958	20.27
541.155	20.43
541.353	20.43
541.55	20.63
541.748	20.7
541.945	20.95
542.143	20.69
542.34	21.04
542.537	21.29
542.735	21.8
542.932	21.76
543.129	22.07
543.327	22.04
543.524	21.8
543.721	21.89
543.919	22.2
544.116	22.16
544.313	22.81
544.51	22.75
544.708	22.77
544.905	22.55
545.102	22.62
545.299	22.61
545.496	22.68
545.693	23.06
545.891	22.82
546.088	22.58
546.285	22.76
546.482	22.55
546.679	22.75
546.876	22.65
547.073	22.86
547.27	22.96
547.467	23.11
547.664	23.43
547.861	23.65
548.058	24.37
548.255	24.41
548.452	24.48
548.649	25.02
548.846	25.18
549.043	25.45
549.24	25.42
549.437	25.44
549.633	25.4
549.83	25.58
550.027	25.57
550.224	25.52
550.421	25.73
550.618	25.61
550.814	25.34
551.011	24.79
551.208	24.95
551.405	25.08
551.601	25
551.798	24.86
551.995	24.71
552.191	24.41
552.388	24.58
552.585	24.84
552.781	25.2
552.978	25.07
553.175	25.46
553.371	25.12
553.568	24.97
553.764	25.43
553.961	25.77
554.157	25.99
554.354	26.45
554.55	25.99
554.747	26.41
554.943	26.69
555.14	27.38
555.336	27.02
555.533	27.21
555.729	27.42
555.926	27.32
556.122	27.69
556.318	27.56
556.515	28.01
556.711	28.92
556.907	28.75
557.104	28.56
557.3	28.45
557.496	28.78
557.693	29.26
557.889	29.14
558.085	29.38
558.281	29.56
558.478	29.65
558.674	29.34
558.87	29.1
559.066	28.74
559.262	28.75
559.459	28.52
559.655	28.73
559.851	28.47
560.047	28.69
560.243	28.64
560.439	28.49
560.635	28.6
560.831	28.8
561.027	28.68
561.223	29.16
561.419	29.27
561.615	29.52
561.811	29.5
562.007	29.8
562.203	30.17
562.399	30.14
562.595	30.11
562.791	30.34
562.987	30.18
563.183	30.35
563.379	29.79
563.575	30.1
563.771	30.27
563.966	30.39
564.162	30.52
564.358	30.51
564.554	30.32
564.75	30.25
564.945	29.94
565.141	30.34
565.337	30.08
565.533	30.84
565.728	30.5
565.924	30.41
566.12	30.56
566.315	30.48
566.511	30.42
566.707	30.9
566.902	31.44
567.098	31.96
567.293	31.97
567.489	32.38
567.684	32
567.88	32.41
568.076	32.15
568.271	32
568.467	32.1
568.662	32.15
568.858	32.32
569.053	31.72
569.248	31.62
569.444	31.68
569.639	31.76
569.835	32.12
570.03	31.83
570.225	32.27
570.421	32.41
570.616	32.73
570.812	32.87
571.007	32.54
571.202	32.8
571.397	32.47
571.593	32.12
571.788	32.07
571.983	31.58
572.178	31.74
572.374	31.32
572.569	31.16
572.764	30.89
572.959	30.63
573.154	31.17
573.35	31.22
573.545	31.48
573.74	31.72
573.935	31.71
574.13	32.32
574.325	32.32
574.52	32.73
574.715	32.93
574.91	33.06
575.105	33.43
575.3	33.12
575.495	33.2
575.69	33.34
575.885	33.25
576.08	33.34
576.275	33.26
576.47	33.86
576.665	33.67
576.86	33.61
577.055	33.9
577.25	33.5
577.444	34.04
577.639	34.19
577.834	34.75
578.029	34.93
578.224	34.93
578.418	35.06
578.613	34.63
578.808	35.05
579.003	35.1
579.197	34.78
579.392	35.32
579.587	35.08
579.781	34.73
579.976	34.21
580.171	34.55
580.365	34.5
580.56	34.48
580.755	34.44
580.949	34.11
581.144	34.17
581.338	34.29
581.533	33.93
581.727	34.16
581.922	34.61
582.116	34.83
582.311	35.05
582.505	35.13
582.7	34.99
582.894	35.51
583.089	35.39
583.283	35.32
583.478	35.82
583.672	35.84
583.866	35.67
584.061	35.22
584.255	35.3
584.449	35.45
584.644	35.75
584.838	36.01
585.032	35.74
585.226	35.75
585.421	36.3
585.615	35.64
585.809	35.84
586.003	36.28
586.198	36.93
586.392	36.8
586.586	36.38
586.78	36.06
586.974	36.15
587.168	36.28
587.363	36.62
587.557	36.43
587.751	36.84
587.945	37.17
588.139	36.61
588.333	36.3
588.527	36.53
588.721	36.43
588.915	36.27
589.109	35.99
589.303	36.02
589.497	36.08
589.691	35.92
589.885	35.62
590.079	35.3
590.273	35.68
590.466	35.95
590.66	36.08
590.854	35.82
591.048	36.2
591.242	36.66
591.436	36.44
591.629	36.55
591.823	37.02
592.017	37.02
592.211	37.45
592.404	37.65
592.598	37.78
592.792	37.53
592.986	37.93
593.179	38.2
593.373	37.92
593.567	37.85
593.76	38.04
593.954	37.62
594.147	37.48
594.341	37.1
594.535	36.33
594.728	36.31
594.922	36.32
595.115	36.13
595.309	35.93
595.502	36.06
595.696	36.35
595.889	36.3
596.083	36.64
596.276	37.05
596.47	37.49
596.663	37.9
596.856	37.76
597.05	37.97
597.243	37.96
597.437	38.19
597.63	37.94
597.823	37.6
598.017	37.9
598.21	37.99
598.403	37.54
598.596	36.84
598.79	37.32
598.983	37.59
599.176	37.48
599.369	37.71
599.563	37.48
599.756	37.4
599.949	37.68
600.142	37.64
600.335	37.36
600.528	38.05
600.722	38.48
600.915	38.1
601.108	38.23
601.301	38.23
601.494	37.92
601.687	38.03
601.88	38.09
602.073	37.97
602.266	37.7
602.459	37.97
602.652	37.47
602.845	37.62
603.038	37.71
603.231	37.38
603.424	37.24
603.617	37.29
603.809	37.31
604.002	37.29
604.195	37.2
604.388	37.01
604.581	37.28
604.774	38.13
604.966	38.04
605.159	38.12
605.352	38.21
605.545	38.28
605.737	38.65
605.93	39.11
606.123	39.43
606.316	39.99
606.508	40.19
606.701	39.37
606.894	38.8
607.086	38.83
607.279	38.81
607.471	38.87
607.664	38.8
607.857	39.01
608.049	38.99
608.242	38.89
608.434	38.58
608.627	39
608.819	39.02
609.012	38.86
609.204	38.43
609.397	38.19
609.589	38.59
609.782	38.7
609.974	38.46
610.166	38.23
610.359	38.47
610.551	39.54
610.743	39.09
610.936	39.34
611.128	39.81
611.32	40.57
611.513	40.95
611.705	41.07
611.897	41.71
612.09	41.49
612.282	41.64
612.474	41.45
612.666	41
612.858	41.54
613.051	41.6
613.243	41.04
613.435	41.46
613.627	41.24
613.819	41.14
614.011	40.69
614.203	41.57
614.395	40.92
614.588	41.66
614.78	41
614.972	41.37
615.164	41.57
615.356	41.92
615.548	40.84
615.74	41.31
615.932	40.71
616.124	41.19
616.315	41.09
616.507	41.62
616.699	41.24
616.891	41.95
617.083	41.68
617.275	42.13
617.467	41.9
617.659	42.65
617.85	42.49
618.042	43.11
618.234	42.25
618.426	42.41
618.618	42.31
618.809	42.06
619.001	41.69
619.193	41.31
619.384	41.12
619.576	41.69
619.768	41.45
619.959	41.57
620.151	41
620.343	41.5
620.534	40.74
620.726	40.62
620.917	41.65
621.109	42.01
621.301	42.65
621.492	42.37
621.684	41.95
621.875	42.06
622.067	41.62
622.258	41.89
622.45	42.03
622.641	42.46
622.832	42.77
623.024	41.49
623.215	41.47
623.407	40.82
623.598	40.6
623.789	40.47
623.981	40.45
624.172	41.08
624.363	41.32
624.555	41.35
624.746	41.2
624.937	40.97
625.129	41.22
625.32	41.01
625.511	41.04
625.702	40.47
625.893	40.27
626.085	40.23
626.276	39.61
626.467	39.03
626.658	38.77
626.849	38.79
627.04	39.67
627.231	39.82
627.422	39.61
627.614	39.5
627.805	40.28
627.996	40.99
628.187	41.02
628.378	41.88
628.569	42.21
628.76	42.04
628.951	42.82
629.142	41.94
629.332	41.94
629.523	42.07
629.714	42.39
629.905	42.68
630.096	42.43
630.287	42.31
630.478	41.73
630.669	42.06
630.859	42.01
631.05	41.28
631.241	40.77
631.432	40.35
631.623	40.5
631.813	40.7
632.004	40.39
632.195	40.27
632.385	40.61
632.576	40.99
632.767	40.9
632.957	41.67
633.148	42.19
633.339	42.59
633.529	43.67
633.72	43.83
633.91	43.78
634.101	43.44
634.292	43.94
634.482	43.55
634.673	43.14
634.863	42.42
635.054	42.27
635.244	42.68
635.435	43.34
635.625	42.96
635.815	43.04
636.006	42.9
636.196	43.87
636.387	43.82
636.577	43.92
636.767	43.64
636.958	44.11
637.148	43.88
637.338	43.78
637.529	43.91
637.719	43.79
637.909	43.74
638.099	44.76
638.29	44.06
638.48	44.4
638.67	44.32
638.86	44.67
639.05	45.04
639.241	46.14
639.431	45.7
639.621	45.07
639.811	45.41
640.001	45.57
640.191	44.75
640.381	45.1
640.571	45.21
640.761	46.55
640.951	47.1
641.141	47.38
641.331	46.69
641.521	46.55
641.711	46.53
641.901	45.67
642.091	45.82
642.281	44.97
642.471	44.71
642.661	44.69
642.851	43.33
643.041	42.77
643.231	42.52
643.42	42.01
643.61	42.16
643.8	42.97
643.99	43.72
644.18	42.54
644.369	43.65
644.559	43.1
644.749	42.73
644.939	42.54
645.128	43.24
645.318	43.88
645.508	44.47
645.697	44.36
645.887	43.89
646.076	44.11
646.266	45.16
646.456	44.71
646.645	45.51
646.835	45.23
647.024	45.2
647.214	44.22
647.403	43.12
647.593	42.39
647.782	42.55
647.972	42.4
648.161	42.14
648.351	42.25
648.54	42.74
648.73	43.41
648.919	43.26
649.108	43.4
649.298	44.2
649.487	45.65
649.677	46.31
649.866	45.95
650.055	45.89
650.244	45.88
650.434	45.64
650.623	44.9
650.812	44.89
651.002	45.26
651.191	45.77
651.38	45.24
651.569	44.17
651.758	44.4
651.947	44.38
652.137	44.38
652.326	43.93
652.515	43.72
652.704	44.41
652.893	43.67
653.082	44.17
653.271	44.47
653.46	45.04
653.649	45.38
653.838	45.17
654.027	45.95
654.216	46.52
654.405	47.03
654.594	47.74
654.783	46.81
654.972	47.79
655.161	46.46
655.35	46.32
655.539	46.2
655.728	45.93
655.916	45.48
656.105	44.89
656.294	44.39
656.483	43.74
656.672	42.72
656.86	42.99
657.049	42.02
657.238	42.24
657.427	42.47
657.615	42.65
657.804	42.74
657.993	42.66
658.181	42.9
658.37	42.35
658.559	42.55
658.747	42.91
658.936	43.12
659.125	43.43
659.313	43.98
659.502	44.17
659.69	44.24
659.879	44.56
660.067	44.8
660.256	44.49
660.444	45.43
660.633	44.88
660.821	44.48
661.01	43.83
661.198	43.35
661.387	43.83
661.575	43.54
661.763	44.08
661.952	43.81
662.14	43.76
662.328	44.11
662.517	44.22
662.705	45.51
662.893	47.14
663.082	47.73
663.27	48.16
663.458	47.26
663.646	46.94
663.834	45.2
664.023	45.34
664.211	45.15
664.399	45.38
664.587	44.86
664.775	44.63
664.963	42.71
665.152	42.77
665.34	42.68
665.528	43.43
665.716	44.32
665.904	45.83
666.092	45.69
666.28	46.05
666.468	45.41
666.656	45.28
666.844	45.95
667.032	46.06
667.22	46.18
667.408	46.34
667.596	45.22
667.784	44.99
667.971	44.46
668.159	43.47
668.347	43.36
668.535	43.65
668.723	43.52
668.911	43.08
669.098	43.19
669.286	43.63
669.474	43.61
669.662	44.29
669.849	43.97
670.037	44.31
670.225	44.96
670.413	44.77
670.6	44.01
670.788	44.13
670.976	44.12
671.163	44.61
671.351	44.57
671.538	44.98
671.726	46.04
671.913	46.19
672.101	46.24
672.289	47.35
672.476	48.69
672.664	50.13
672.851	50.03
673.039	50.45
673.226	50.45
673.413	49.98
673.601	49.49
673.788	47.96
673.976	48.43
674.163	48.55
674.35	47.93
674.538	47.04
674.725	45.87
674.912	45.89
675.1	45.88
675.287	46.32
675.474	45.93
675.662	45.06
675.849	46.27
676.036	45.5
676.223	45.1
676.411	44.57
676.598	44.98
676.785	46.45
676.972	47.66
677.159	46.5
677.346	45.58
677.533	47.12
677.721	47.93
677.908	47.35
678.095	47.09
678.282	47.2
678.469	46.31
678.656	46.29
678.843	45.6
679.03	45.04
679.217	45.83
679.404	45.43
679.591	44.43
679.778	44.23
679.964	44.1
680.151	44.55
680.338	44.44
680.525	45.74
680.712	45.67
680.899	45.68
681.086	46.21
681.272	45.71
681.459	46.83
681.646	46.91
681.833	47.75
682.02	47.89
682.206	47.55
682.393	48.02
682.58	48.09
682.766	50.5
682.953	50.84
683.14	50.76
683.326	51.36
683.513	51.98
683.7	52.34
683.886	52.17
684.073	51.8
684.259	52.38
684.446	52.02
684.632	52.41
684.819	48.48
685.005	49.45
685.192	48.74
685.378	47.97
685.565	47.18
685.751	46.64
685.938	46.28
686.124	46.41
686.31	45.63
686.497	45.39
686.683	45.64
686.87	46.92
687.056	45.63
687.242	45.2
687.429	46.26
687.615	46.95
687.801	47.42
687.987	47.46
688.174	47.74
688.36	47.89
688.546	48.12
688.732	47.74
688.918	47
689.105	48.29
689.291	49.43
689.477	48.35
689.663	48.38
689.849	49.27
690.035	48.93
690.221	49.02
690.407	50.34
690.593	50.49
690.779	50.44
690.965	52.11
691.151	51.63
691.337	52.06
691.523	53.16
691.709	52.69
691.895	52.34
692.081	52.54
692.267	53.08
692.453	53.03
692.639	53.6
692.825	53.86
693.011	52.44
693.196	52.57
693.382	51.43
693.568	50.75
693.754	51.4
693.94	51.29
694.125	50.96
694.311	50.15
694.497	48.82
694.682	48.22
694.868	47.34
695.054	47.08
695.239	47.39
695.425	48.2
695.611	48.12
695.796	47.03
695.982	46.37
696.168	47.14
696.353	47.48
696.539	47.91
696.724	47.33
696.91	47.14
697.095	47.51
697.281	47.29
697.466	46.7
697.652	46.42
697.837	45.79
698.023	45.93
698.208	46.4
698.393	46.27
698.579	46.75
698.764	46.81
698.949	46.52
699.135	46.86
699.32	46.49
699.505	47.03
699.691	48.71
699.876	49.73
700.061	50.39
700.246	50.05
700.432	50.94
700.617	50.91
700.802	50.1
700.987	51.06
701.172	49.39
701.358	49.4
701.543	50.98
701.728	51.3
701.913	51.75
702.098	52.8
702.283	51.84
702.468	50.78
702.653	49.35
702.838	51.23
703.023	52.33
703.208	54.54
703.393	55.44
703.578	53.74
703.763	53.05
703.948	53.9
704.133	52.11
704.318	53.7
704.503	53.09
704.688	55.24
704.873	55.04
705.057	54.63
705.242	54.32
705.427	54.41
705.612	53.11
705.797	52.41
705.981	51.94
706.166	53.83
706.351	53.56
706.536	54.6
706.72	53.75
706.905	53.03
707.09	54.22
707.274	54.29
707.459	53.23
707.644	54.91
707.828	53.92
708.013	53.79
708.197	51.54
708.382	50.18
708.567	50.64
708.751	51.52
708.936	52.96
709.12	51.94
709.305	51.28
709.489	49.32
709.673	48.87
709.858	49.03
710.042	47.73
710.227	48.88
710.411	51
710.596	49.29
710.78	48.03
710.964	47.23
711.149	46.62
711.333	47.51
711.517	49.58
711.702	50.75
711.886	51.17
712.07	52.03
712.254	51.54
712.438	51.07
712.623	50.89
712.807	51.8
712.991	51.98
713.175	52.47
713.359	51.87
713.544	52.84
713.728	51.57
713.912	51.8
714.096	52.97
714.28	52.8
714.464	51.68
714.648	52.22
714.832	52.2
715.016	52.32
715.2	51.91
715.384	52.58
715.568	52.14
715.752	51.94
715.936	51.56
716.12	51.59
716.304	51.34
716.488	51.37
716.671	54.08
716.855	55.48
717.039	54.95
717.223	54.94
717.407	54.15
717.59	52.6
717.774	53.84
717.958	53.79
718.142	53.3
718.325	54.18
718.509	56.48
718.693	55.81
718.877	53.49
719.06	55.3
719.244	55.55
719.428	57.13
719.611	59.25
719.795	58.09
719.978	59.6
720.162	60.06
720.345	59.92
720.529	56.86
720.713	55.86
720.896	57.29
721.08	57.28
721.263	57.62
721.446	57.05
721.63	56.11
721.813	58.96
721.997	57.95
722.18	58.81
722.364	59.25
722.547	60.49
722.73	61.63
722.914	61.87
723.097	63.09
723.28	63.49
723.464	61.96
723.647	63.48
723.83	61.22
724.013	62.42
724.197	60.91
724.38	61.99
724.563	62.44
724.746	61.33
724.929	59.63
725.112	57.11
725.296	56.09
725.479	55.73
725.662	55.14
725.845	53.88
726.028	52.89
726.211	51.82
726.394	50.91
726.577	50.87
726.76	49.95
726.943	50.38
727.126	50.83
727.309	50.03
727.492	51.1
727.675	51.84
727.858	53.37
728.041	52.65
728.224	53.92
728.407	52.63
728.589	52.5
728.772	53.86
728.955	54.99
729.138	55.23
729.321	55.65
729.503	57.05
729.686	54.23
729.869	52.93
730.052	53.78
730.234	53.84
730.417	55.37
730.6	55.41
730.782	54.4
730.965	53.53
731.148	52.66
731.33	53.65
731.513	52.08
731.695	53.02
731.878	54.5
732.061	54.36
732.243	54.52
732.426	53.79
732.608	52.88
732.791	53.96
732.973	54.71
733.156	55.79
733.338	55.74
733.52	56.07
733.703	57
733.885	57.39
734.068	57.89
734.25	57.94
734.432	58.62
734.615	59.7
734.797	59.17
734.979	59.26
735.162	59.66
735.344	59.98
735.526	60.16
735.708	59.92
735.891	59.17
736.073	59.26
736.255	58
736.437	55.86
736.619	54.08
736.802	53.98
736.984	54.59
737.166	53.41
737.348	51.68
737.53	51.5
737.712	48.63
737.894	47.49
738.076	47.36
738.258	48.88
738.44	50.19
738.622	50.73
738.804	52.55
738.986	50.88
739.168	51.29
739.35	53.35
739.532	53.2
739.714	57.08
739.896	60.15
740.078	60.33
740.259	59.07
740.441	59.48
740.623	61.57
740.805	59.02
740.987	58.51
741.168	59.04
741.35	58.32
741.532	59.61
741.714	59.44
741.895	57.04
742.077	56.73
742.259	58.04
742.44	60.28
742.622	60.63
742.804	62
742.985	62.73
743.167	63.13
743.348	62.32
743.53	63.08
743.711	62.88
743.893	61.98
744.075	64.01
744.256	64.13
744.438	61.98
744.619	59.49
744.8	58.93
744.982	59.24
745.163	58.54
745.345	58.22
745.526	55.46
745.707	56.39
745.889	56.88
746.07	56.03
746.252	56.6
746.433	57.72
746.614	59.72
746.795	59.74
746.977	61.57
747.158	61.12
747.339	63.69
747.52	64.35
747.702	63.8
747.883	65.2
748.064	67.55
748.245	66.38
748.426	66
748.607	63.88
748.788	63.93
748.97	62.73
749.151	62.17
749.332	59.41
749.513	59.99
749.694	60.88
749.875	62.01
750.056	58.41
750.237	59.9
750.418	60.55
750.599	62.94
750.78	62.5
750.96	61.52
751.141	63.32
751.322	64.94
751.503	65.15
751.684	66.2
751.865	62.95
752.046	65.19
752.226	62.58
752.407	60.14
752.588	59.15
752.769	57.57
752.949	57.88
753.13	55.5
753.311	54.65
753.492	53.17
753.672	49.89
753.853	53.28
754.034	50.77
754.214	51.32
754.395	51.06
754.575	50.9
754.756	52.8
754.937	52.95
755.117	55.06
755.298	56.64
755.478	56.29
755.659	56.61
755.839	56.42
756.02	56.85
756.2	57.53
756.381	57.15
756.561	59.18
756.741	58.45
756.922	59.15
757.102	58.96
757.283	58.15
757.463	61.75
757.643	61.7
757.823	61.43
758.004	60.91
758.184	57.89
758.364	59.31
758.545	58.15
758.725	59.35
758.905	58.98
759.085	59.27
759.265	58.89
759.446	57.67
759.626	60.23
759.806	59.36
759.986	61.74
760.166	65.57
760.346	66.17
760.526	65.82
760.706	66.04
760.886	64.56
761.066	66.03
761.246	63.01
761.426	61.15
761.606	57.96
761.786	56.88
761.966	55.52
762.146	53.44
762.326	53.98
762.506	53.13
762.686	52.3
762.866	53.59
763.046	50.59
763.225	52.61
763.405	53.34
763.585	54.31
763.765	56.67
763.945	55.98
764.124	56.83
764.304	57.32
764.484	57.39
764.664	58.48
764.843	58.53
765.023	60.8
765.203	59.52
765.382	61.01
765.562	62.02
765.741	61.01
765.921	61.34
766.101	60.3
766.28	61.23
766.46	61.56
766.639	62.38
766.819	62.43
766.998	64.27
767.178	68.32
767.357	67.64
767.537	67.49
767.716	68.79
767.896	69.9
768.075	71.12
768.254	68.92
768.434	69.4
768.613	69.07
768.792	69.5
768.972	67.11
769.151	65.37
769.33	66.19
769.51	66.13
769.689	64.84
769.868	65.91
770.047	67.46
770.226	69.99
770.406	71.56
770.585	71.12
770.764	69.24
770.943	69.84
771.122	72.53
771.301	72.37
771.48	73.16
771.66	73.98
771.839	75.36
772.018	76.37
772.197	75.64
772.376	76.43
772.555	77.21
772.734	81.4
772.913	84.14
773.092	79.49
773.271	78.93
773.449	83.35
773.628	81.02
773.807	79.49
773.986	77.18
774.165	74.18
774.344	73.04
774.523	70.09
774.701	70.84
774.88	68.73
775.059	72.13
775.238	70.21
775.417	65.92
775.595	69.25
775.774	70.53
775.953	68.43
776.131	74.43
776.31	73.01
776.489	70.17
776.667	66.67
776.846	72.13
777.025	69.31
777.203	70.84
777.382	73.58
777.56	73.2
777.739	70.38
777.917	74.5
778.096	70.22
778.274	72.43
778.453	76.81
778.631	79.95
778.81	72.61
778.988	73.55
779.166	75.51
779.345	72.2
779.523	70.5
779.702	73.45
779.88	72.27
780.058	69.79
780.237	64.53
780.415	63.48
780.593	60.01
780.771	61.45
780.95	61.76
781.128	59.29
781.306	62.66
781.484	64.23
781.662	63.03
781.841	60.13
782.019	64.61
782.197	71.14
782.375	73.61
782.553	74.67
782.731	78.77
782.909	78.96
783.087	80.17
783.265	76.73
783.443	75.22
783.621	76.07
783.799	85.01
783.977	82.83
784.155	76.97
784.333	77.5
784.511	77.54
784.689	73.86
784.867	71.57
785.045	71.04
785.223	67.7
785.4	67.31
785.578	70.38
785.756	65.6
785.934	61.95
786.112	66.37
786.289	68.68
786.467	66.45
786.645	68.92
786.823	66.01
787	64.5
787.178	66.8
787.356	65.14
787.533	58.01
787.711	57.19
787.889	57.64
788.066	54.85
788.244	52.59
788.421	54.66
788.599	53.54
788.776	56.79
788.954	59.22
789.131	62.44
789.309	65.99
789.486	71.55
789.664	71.8
789.841	74.63
790.019	76.66
790.196	77.33
790.373	78.67
790.551	79.89
790.728	82.69
790.906	82.06
791.083	77.48
791.26	72.33
791.437	71.31
791.615	73.85
791.792	76.47
791.969	73.95
792.146	71.99
792.324	70.54
792.501	71.99
792.678	69.49
792.855	68.25
793.032	73.81
793.209	75.67
793.387	77.66
793.564	74.18
793.741	73.86
793.918	78.64
794.095	83.64
794.272	82.48
794.449	78.37
794.626	78.63
794.803	78.16
794.98	74.75
795.157	75.16
795.334	69.62
795.511	71.21
795.688	68.58
795.864	66.85
796.041	64.54
796.218	62.29
796.395	63.35
796.572	61.84
796.749	66.51
796.925	68.53
797.102	67.52
797.279	70.59
797.456	69.97
797.632	69.04
797.809	67.47
797.986	65.34
798.162	67.53
798.339	71.29
798.516	72.44
798.692	70.34
798.869	71.11
799.046	72.18
799.222	76.13
799.399	73.48
799.575	74.1
799.752	74.14
799.928	75.17
800.105	77.52
800.281	69.95
800.458	71.19
800.634	70.14
800.811	66.26
800.987	67.19
801.163	63.33
801.34	66.62
801.516	67.89
801.692	68.71
801.869	72.66
802.045	71.11
802.221	75.69
802.398	76.36
802.574	75.44
802.75	74.91
802.926	74.51
803.103	77.67
803.279	78.88
803.455	73.82
803.631	71.3
803.807	70.92
803.983	73.74
804.16	68.91
804.336	66.24
804.512	71.71
804.688	74.35
804.864	74.72
805.04	69.98
805.216	73.58
805.392	81.34
805.568	83.51
805.744	82.63
805.92	79.98
806.096	84.61
806.272	93.03
806.448	89.4
806.623	87.51
806.799	86.91
806.975	88.47
807.151	82.96
807.327	78.65
807.503	77.98
807.678	69.88
807.854	70.27
808.03	73.63
808.206	72.86
808.381	74.33
808.557	78.65
808.733	79.8
808.908	81.42
809.084	80.61
809.26	83.28
809.435	83.22
809.611	87.76
809.787	86.42
809.962	85.41
810.138	83.54
810.313	79.83
810.489	83.15
810.664	81.27
810.84	80.16
811.015	80.26
811.191	83.82
811.366	85.31
811.542	85.73
811.717	87.49
811.892	94.77
812.068	92.3
812.243	94.26
812.419	86.39
812.594	87.84
812.769	88.79
812.944	100.23
813.12	98
813.295	95.6
813.47	99.63
813.645	102.87
813.821	90.7
813.996	85.17
814.171	84.67
814.346	88.67
814.521	90.38
814.697	90.66
814.872	85.63
815.047	84.43
815.222	80.13
815.397	74.15
815.572	66.5
815.747	70.41
815.922	73.03
816.097	73.23
816.272	74.1
816.447	77.14
816.622	79.18
816.797	77.94
816.972	78.35
817.147	81.26
817.322	84.12
817.496	81.52
817.671	84.82
817.846	85.68
818.021	82.81
818.196	81.72
818.371	76.11
818.545	72.2
818.72	72.62
818.895	73.68
819.069	73.55
819.244	69.83
819.419	71.23
819.594	65.28
819.768	59.48
819.943	58.65
820.117	54.94
820.292	54.04
820.467	52.92
820.641	50.44
820.816	48.13
820.99	47.06
821.165	45.66
821.339	44.34
821.514	43.7
821.688	44.14
821.863	43.44
822.037	43.08
822.212	42.27
822.386	41.51
822.56	40.6
822.735	40.46
822.909	40.37
823.084	40.63
823.258	41.37
823.432	42.32
823.606	42.37
823.781	41.95
823.955	42.81
824.129	43.3
824.303	44
824.478	44.55
824.652	45.18
824.826	45.22
825	46.12
825.174	45.88
825.348	45.3
825.523	45.43
825.697	45.57
825.871	44.82
826.045	45.93
826.219	46.57
826.393	46.73
826.567	47.19
826.741	47.24
826.915	46.42
827.089	47.36
827.263	47.44
827.437	47.8
827.611	49.09
827.784	49.87
827.958	50.1
828.132	48.04
828.306	50.57
828.48	51.6
828.654	53.22
828.827	57.06
829.001	60.63
829.175	61.89
829.349	65.65
829.522	67.46
829.696	70.94
829.87	72.69
830.044	78.1
830.217	79.48
830.391	82.92
830.565	85.13
830.738	82.72
830.912	80.8
831.085	82.87
831.259	79.54
831.432	75.04
831.606	69.65
831.779	66.46
831.953	63.87
832.126	63.47
832.3	61.7
832.473	59.71
832.647	56.88
832.82	53.21
832.994	51
833.167	52.03
833.34	53.54
833.514	52.74
833.687	51.95
833.86	54.84
834.034	51.84
834.207	51.98
834.38	52.19
834.553	51.8
834.727	56.71
834.9	56.66
835.073	57.54
835.246	58.92
835.419	59.94
835.593	61.37
835.766	59.31
835.939	64.78
836.112	61.62
836.285	58.98
836.458	61.47
836.631	60
836.804	69.43
836.977	70.47
837.15	71.31
837.323	75.35
837.496	71.55
837.669	75.7
837.842	66.82
838.015	77.09
838.188	83.77
838.361	86.95
838.533	85.02
838.706	79.56
838.879	76.53
839.052	79.46
839.225	79.55
839.398	84.58
839.57	80.62
839.743	87.92
839.916	86.52
840.088	87.82
840.261	90.06
840.434	93.55
840.607	95.12
840.779	101.05
840.952	95.3
841.124	101
841.297	100.52
841.47	108.22
841.642	105.69
841.815	98.45
841.987	104.01
842.16	99.8
842.332	92.8
842.505	90.61
842.677	89.3
842.85	97.08
843.022	99.44
843.194	93.49
843.367	96.61
843.539	98.59
843.712	108.37
843.884	100.64
844.056	103.69
844.229	108.58
844.401	115.89
844.573	116.61
844.745	110.81
844.918	125
845.09	133.98
845.262	148.09
845.434	164.67
845.606	152.29
845.779	169.57
845.951	159.69
846.123	167.38
846.295	180.96
846.467	218.29
846.639	219.62
846.811	225.46
846.983	223.34
847.155	198.19
847.327	174.21
847.499	188.63
847.671	185.84
847.843	186.73
848.015	173.68
848.187	157.58
848.359	152.57
848.531	160.67
848.703	144.57
848.875	173.09
849.047	179.15
849.218	175.91
849.39	169.51
849.562	186.98
849.734	205.93
849.905	195.55
850.077	222.1
850.249	206.65
850.421	178.71
850.592	182.8
850.764	160.28
850.936	144.7
851.107	141.05
851.279	144.73
851.451	125.25
851.622	131.23
851.794	145.66
851.965	147.82
852.137	138.54
852.308	147.18
852.48	150.24
852.651	140.62
852.823	145.56
852.994	142.96
853.166	146.45
853.337	164.03
853.509	165.53
853.68	147.72
853.851	133.08
854.023	134.31
854.194	127.82
854.365	136.64
854.537	130.13
854.708	141.98
854.879	143.67
855.05	146.8
855.222	131.67
855.393	129.62
855.564	140.7
855.735	148.53
855.906	159.69
856.078	163.17
856.249	140.63
856.42	154.05
856.591	154.41
856.762	164.82
856.933	162.89
857.104	158.09
857.275	157.32
857.446	151.63
857.617	138.2
857.788	132.13
857.959	128.28
858.13	139.72
858.301	134.25
858.472	125.77
858.643	117.35
858.814	122.74
858.985	150.22
859.155	178.89
859.326	187.35
859.497	224.05
859.668	349.7
859.839	327.07
860.009	229.39
860.18	263.28
860.351	253.16
860.522	222.46
860.692	197.62
860.863	183.48
861.034	170.1
861.204	162.56
861.375	152.27
861.546	141.68
861.716	136.9
861.887	151.62
862.057	163.98
862.228	178.63
862.398	172.65
862.569	180.66
862.739	200.2
862.91	182.33
863.08	179.86
863.251	184.37
863.421	179.33
863.592	208.04
863.762	198.48
863.932	164.17
864.103	145.34
864.273	155.7
864.443	139.43
864.614	115.76
864.784	122.86
864.954	139.74
865.125	146.83
865.295	150.26
865.465	181.82
865.635	193
865.805	204.13
865.976	224.05
866.146	187
866.316	232.25
866.486	304.25
866.656	260.81
866.826	275.19
866.996	233.08
867.166	292.07
867.336	205.05
867.506	144.67
867.676	125
867.846	122.07
868.016	131.34
868.186	112.31
868.356	98.05
868.526	105.61
868.696	91.3
868.866	93.81
869.036	93.74
869.206	97.35
869.376	104.89
869.545	111.62
869.715	120.77
869.885	134.16
870.055	128.12
870.224	114.43
870.394	116.9
870.564	143.35
870.734	131.14
870.903	130.22
871.073	130.4
871.243	141.18
871.412	159.59
871.582	150.93
871.751	138.98
871.921	182.31
872.091	251.38
872.26	193.67
872.43	161.12
872.599	173.4
872.769	169.95
872.938	176.85
873.108	164.1
873.277	142.74
873.446	143.48
873.616	157.32
873.785	143.21
873.955	138.98
874.124	149.06
874.293	162.33
874.463	153.28
874.632	156.48
874.801	168.21
874.971	152.16
875.14	188.66
875.309	174.38
875.478	129.53
875.647	116.8
875.817	111.58
875.986	118.85
876.155	126.47
876.324	138.87
876.493	123.14
876.662	112.66
876.831	122.21
877	107.74
877.17	105.54
877.339	119.56
877.508	133.27
877.677	141.05
877.846	127.88
878.015	120.73
878.184	104.64
878.352	108.74
878.521	109.42
878.69	102.53
878.859	98.46
879.028	98.97
879.197	92.35
879.366	84.7
879.534	71.8
879.703	65.57
879.872	59.82
880.041	50.15
880.21	49.28
880.378	43.77
880.547	44.7
880.716	44.51
880.884	42.7
881.053	41.08
881.222	40.09
881.39	42.35
881.559	43.01
881.727	44.22
881.896	45.91
882.065	45.27
882.233	45.76
882.402	42.43
882.57	44.74
882.739	43.27
882.907	45.54
883.076	45.27
883.244	45.3
883.412	45.37
883.581	44.01
883.749	44.89
883.918	47.71
884.086	51.21
884.254	56.5
884.423	59.16
884.591	63.04
884.759	63.16
884.927	69.65
885.096	76.56
885.264	77.44
885.432	85.22
885.6	88.46
885.769	89.41
885.937	93
886.105	99.74
886.273	91.23
886.441	94.59
886.609	98.16
886.777	88.17
886.945	85.49
887.113	98.79
887.281	93.41
887.449	102.07
887.617	103.11
887.785	95.26
887.953	94.88
888.121	105.89
888.289	107.82
888.457	105.72
888.625	113.11
888.793	105.42
888.961	101.97
889.129	103.33
889.296	101.37
889.464	100.42
889.632	116.6
889.8	115.1
889.967	99.13
890.135	96.71
