Data from JASIL_3267_Reflection_1.txt Node
Date: Mon Nov 16 21:02:51 EST 2015
User: Geneva
Spectrometer: USB4E03002
Autoset integration time: false
Trigger mode: 4
Integration Time (sec): 1.000000E-1
Scans to average: 10
Electric dark correction enabled: false
Nonlinearity correction enabled: false
Boxcar width: 5
Stray light correction enabled: false
XAxis mode: Wavelengths
Stop averaging: false
Number of Pixels in Spectrum: 3648
>>>>>Begin Spectral Data<<<<<
177.575	-1087.18
177.794	-1079.29
178.014	-1030.12
178.233	-1787.85
178.452	-2575.9
178.672	-1768.18
178.891	-2122.64
179.11	6508.11
179.33	2208.93
179.549	-10540.91
179.768	1980.51
179.987	2483.87
180.207	1503.23
180.426	819.86
180.645	803.11
180.864	1423.38
181.084	591
181.303	571.99
181.522	1033.64
181.741	3091.55
181.96	699.72
182.179	898.14
182.398	1038.67
182.618	1019.92
182.837	1002.52
183.056	946.83
183.275	597.68
183.494	616.51
183.713	666.91
183.932	539.63
184.151	561.93
184.37	589.84
184.589	470.55
184.808	382.91
185.027	384.93
185.246	481.79
185.465	718.58
185.684	772.14
185.903	3180.46
186.122	1190.13
186.341	1556.18
186.56	745.53
186.779	1386.01
186.998	2066.92
187.216	2190.55
187.435	1674.25
187.654	1522.16
187.873	733.08
188.092	633.56
188.311	612.29
188.53	1002.75
188.748	906.21
188.967	2232
189.186	1062.45
189.405	1121.21
189.623	1165.28
189.842	1051.85
190.061	1191.87
190.28	3061.54
190.498	-3108.75
190.717	2031.75
190.936	-4425.42
191.154	-2316.96
191.373	-47533.33
191.592	-27472.73
191.81	-1706.9
192.029	-2241.22
192.248	-748.4
192.466	-673.67
192.685	-736.65
192.904	-990.48
193.122	-681.33
193.341	-1307.57
193.559	-1268.53
193.778	-1487.27
193.996	-1764.89
194.215	64475
194.433	-6235.71
194.652	1281.28
194.87	1098.7
195.089	1075.55
195.307	1265.26
195.526	3803.39
195.744	2018.42
195.963	1250.55
196.181	26450
196.399	-1808.55
196.618	9510
196.836	29750
197.055	-1490.16
197.273	-3372.41
197.491	-2285.56
197.71	-4043.14
197.928	2646.25
198.146	5240.48
198.365	-21640
198.583	1116.02
198.801	1507.02
199.019	3535.06
199.238	-6550
199.456	2674.53
199.674	1173.31
199.892	840.72
200.111	1110
200.329	1177.36
200.547	874.65
200.765	771.99
200.983	797.59
201.202	657.14
201.42	994.88
201.638	612.03
201.856	745.74
202.074	2191.74
202.292	2571.72
202.51	1677.55
202.728	2456.7
202.946	-5995
203.165	7933.33
203.383	-2654.64
203.601	-2946.51
203.819	5434
204.037	27610
204.255	2860.82
204.473	1254.21
204.691	1745.33
204.909	1160.82
205.127	1260.47
205.345	1460.8
205.562	1291.58
205.78	908.72
205.998	1114.69
206.216	1010
206.434	971.28
206.652	854.55
206.87	631.68
207.088	532.36
207.306	687.01
207.523	629.88
207.741	501.55
207.959	534.15
208.177	592.55
208.395	451.61
208.612	507.58
208.83	464.25
209.048	512.71
209.266	684.77
209.483	729.18
209.701	535.44
209.919	605.64
210.136	606.63
210.354	1387.5
210.572	1314.48
210.79	2042.96
211.007	1181.66
211.225	1964.34
211.442	-11533.33
211.66	-3130.56
211.878	-1409.72
212.095	494.43
212.313	507.82
212.53	747.35
212.748	436.3
212.966	373.66
213.183	326.62
213.401	334.13
213.618	310.01
213.836	351.02
214.053	347.63
214.271	339.86
214.488	1839.5
214.705	1043.12
214.923	755.48
215.14	768.33
215.358	662.77
215.575	1011.79
215.793	1041.1
216.01	1496.93
216.227	552.98
216.445	426.54
216.662	475.83
216.879	504.42
217.097	428.94
217.314	479.92
217.531	615.73
217.749	699.75
217.966	958
218.183	760.33
218.4	884.04
218.618	1093.7
218.835	1127.27
219.052	751.86
219.269	625.5
219.487	947.92
219.704	648.96
219.921	471.62
220.138	355.93
220.355	353.45
220.572	387.43
220.79	418.2
221.007	475.6
221.224	667.17
221.441	649.28
221.658	798.32
221.875	539.53
222.092	536.34
222.309	805.07
222.526	904.44
222.743	722.11
222.96	984.43
223.177	472.61
223.394	516.79
223.611	369.72
223.828	416.6
224.045	422.47
224.262	496.83
224.479	367.74
224.696	291.75
224.913	352.01
225.13	296.44
225.347	246.36
225.564	220.68
225.781	176.32
225.997	174.85
226.214	139.1
226.431	121.11
226.648	104.2
226.865	95.77
227.082	89.2
227.298	77.28
227.515	70.49
227.732	63.85
227.949	59.92
228.165	56.28
228.382	49.28
228.599	51.44
228.816	50.75
229.032	51.02
229.249	52.65
229.466	52.78
229.682	54.95
229.899	59.82
230.116	64.24
230.332	72.76
230.549	79.5
230.765	88.02
230.982	92.44
231.199	97.63
231.415	108.83
231.632	112.72
231.848	119.61
232.065	123.91
232.281	120.62
232.498	129.58
232.714	127.15
232.931	119.4
233.147	117.93
233.364	122.87
233.58	124.8
233.797	123.18
234.013	119.64
234.23	117.28
234.446	114.56
234.662	109.79
234.879	108.84
235.095	112.29
235.312	122.34
235.528	121.03
235.744	123.83
235.961	127.08
236.177	114.83
236.393	123.89
236.61	132.25
236.826	131.44
237.042	143.81
237.258	142.7
237.475	141.07
237.691	138.84
237.907	137.05
238.123	132.25
238.339	111.89
238.556	114.14
238.772	104.54
238.988	92.05
239.204	92.44
239.42	84.65
239.636	81.77
239.853	75.61
240.069	68.37
240.285	65.02
240.501	59.7
240.717	56.96
240.933	50.72
241.149	45.97
241.365	46.03
241.581	42.09
241.797	38.17
242.013	36.77
242.229	36.47
242.445	36.88
242.661	37.66
242.877	37.92
243.093	39.57
243.309	43.91
243.525	46.24
243.741	46.38
243.957	48.97
244.173	51.77
244.388	51.24
244.604	51.57
244.82	51.35
245.036	46.44
245.252	43.61
245.468	41.25
245.683	37.41
245.899	35.17
246.115	33.85
246.331	32.08
246.547	31.16
246.762	30.71
246.978	29.88
247.194	28.99
247.409	28.52
247.625	29.34
247.841	29.97
248.057	30.84
248.272	30.98
248.488	32.92
248.703	36.24
248.919	36.81
249.135	38.65
249.35	38.81
249.566	40.05
249.782	42.42
249.997	42.94
250.213	38.49
250.428	38.53
250.644	42.77
250.859	41.44
251.075	35.93
251.29	39.02
251.506	39.37
251.721	39.49
251.937	39.2
252.152	40.44
252.368	41.74
252.583	45.63
252.798	47.57
253.014	48
253.229	48.78
253.445	54.13
253.66	58.03
253.875	57.99
254.091	65.87
254.306	69.52
254.521	69.6
254.737	67.88
254.952	70.38
255.167	70.42
255.383	66.59
255.598	68.23
255.813	64.11
256.028	58.5
256.244	60.1
256.459	55.3
256.674	51.28
256.889	48.84
257.104	43.97
257.32	41.85
257.535	37.71
257.75	34.63
257.965	30.52
258.18	28.52
258.395	27.09
258.61	23.58
258.826	23.19
259.041	23.2
259.256	22.92
259.471	23.15
259.686	22.51
259.901	22.26
260.116	22.8
260.331	23.56
260.546	24.49
260.761	24.76
260.976	25.88
261.191	25.97
261.406	26.62
261.621	29.14
261.836	30.98
262.05	32.42
262.265	35.05
262.48	36.33
262.695	36.91
262.91	37.75
263.125	38.84
263.34	41.07
263.555	42.64
263.769	43.6
263.984	42.07
264.199	42.93
264.414	41.74
264.629	39.08
264.843	38.86
265.058	39.88
265.273	38.04
265.488	37.13
265.702	36.73
265.917	36.29
266.132	33.41
266.346	34.32
266.561	34.11
266.776	34.86
266.99	35.05
267.205	34.59
267.42	34.26
267.634	35.07
267.849	34.06
268.063	34.3
268.278	35.06
268.492	38.35
268.707	37.14
268.922	36.92
269.136	35.18
269.351	34.46
269.565	32.7
269.78	31.64
269.994	30.86
270.209	32.05
270.423	31.55
270.637	31.15
270.852	27.89
271.066	27.39
271.281	26.76
271.495	26.73
271.709	26.91
271.924	27.22
272.138	27.21
272.353	27.98
272.567	26.23
272.781	25.91
272.996	24.08
273.21	26.34
273.424	27.3
273.638	27.92
273.853	29.04
274.067	29.99
274.281	31.69
274.495	32.04
274.71	31.06
274.924	31.57
275.138	30.59
275.352	31.36
275.566	31.16
275.781	29.42
275.995	29
276.209	28.8
276.423	30.11
276.637	28.56
276.851	29.04
277.065	29.46
277.279	30.79
277.493	31.94
277.707	30.82
277.921	30.72
278.135	31.39
278.349	31.13
278.563	30.67
278.777	28.87
278.991	29.38
279.205	28.88
279.419	28.63
279.633	28.71
279.847	28.14
280.061	29.49
280.275	28.73
280.489	28.89
280.703	27.56
280.917	27.25
281.131	27.04
281.344	27.31
281.558	26.73
281.772	27.14
281.986	27.29
282.2	27.73
282.414	25.58
282.627	25.81
282.841	25.92
283.055	27.48
283.269	27.42
283.482	27.41
283.696	26.84
283.91	26.97
284.123	24.89
284.337	23.47
284.551	22.03
284.764	23.78
284.978	22.42
285.192	22.2
285.405	21.73
285.619	21.79
285.833	21.45
286.046	21.85
286.26	21.62
286.473	21.85
286.687	22.58
286.9	24.24
287.114	24.65
287.327	25.6
287.541	24.69
287.754	23.48
287.968	23.32
288.181	22.97
288.395	21.17
288.608	22.06
288.822	23.17
289.035	22.84
289.248	21.68
289.462	20.44
289.675	21.02
289.889	21.34
290.102	21.14
290.315	22.07
290.529	22.65
290.742	23.73
290.955	23.07
291.169	23.55
291.382	23.9
291.595	25.41
291.808	25.9
292.022	25.2
292.235	26.07
292.448	28.07
292.661	26.18
292.875	27.63
293.088	28.21
293.301	28.55
293.514	27.54
293.727	26.81
293.94	24.78
294.153	25.12
294.367	25.65
294.58	24.34
294.793	22.87
295.006	24.1
295.219	22.75
295.432	22.56
295.645	21.02
295.858	20.8
296.071	21.18
296.284	20.42
296.497	19.56
296.71	19.01
296.923	19.9
297.136	19.58
297.349	19.08
297.562	18.49
297.775	18.35
297.988	18.49
298.201	19.19
298.414	18.63
298.626	20.32
298.839	20.6
299.052	21.33
299.265	20.12
299.478	21.45
299.691	21.32
299.903	22.84
300.116	23.29
300.329	25.08
300.542	25.23
300.755	26.83
300.967	26.92
301.18	27.19
301.393	27.68
301.605	29.31
301.818	28.74
302.031	29.11
302.243	28.1
302.456	29.73
302.669	29.92
302.881	30.29
303.094	30.06
303.307	29.6
303.519	29.56
303.732	29.14
303.944	29.38
304.157	30.89
304.37	31.59
304.582	31.89
304.795	30.7
305.007	28.86
305.22	28.47
305.432	28.13
305.645	27.75
305.857	28.6
306.069	28.68
306.282	27.76
306.494	25.08
306.707	23.62
306.919	23.14
307.132	22.62
307.344	23.05
307.556	22.77
307.769	23.09
307.981	24.02
308.193	23.02
308.406	23.11
308.618	22.79
308.83	24.72
309.043	25.46
309.255	26.69
309.467	25.72
309.679	25.68
309.892	25.72
310.104	24.47
310.316	24.09
310.528	24.88
310.74	23.3
310.953	23.86
311.165	23.67
311.377	23.01
311.589	22.44
311.801	22.84
312.013	24.63
312.225	26.01
312.437	26.56
312.649	27.43
312.862	27.74
313.074	28.65
313.286	28.72
313.498	30.07
313.71	30.8
313.922	31.04
314.134	31.35
314.346	29.31
314.558	27.81
314.77	28.64
314.982	29.78
315.193	29.62
315.405	30.69
315.617	29.51
315.829	29.18
316.041	28.58
316.253	28.79
316.465	30.5
316.677	31.53
316.888	33.06
317.1	31.4
317.312	30.67
317.524	29.47
317.736	29.82
317.947	32.15
318.159	31.56
318.371	33.23
318.583	32.85
318.794	32.03
319.006	31.21
319.218	28.96
319.43	30.79
319.641	29.9
319.853	31.93
320.064	32.59
320.276	33.7
320.488	34.5
320.699	33.6
320.911	34.22
321.123	34.14
321.334	36.91
321.546	38.97
321.757	39.99
321.969	40.55
322.18	37.6
322.392	35.01
322.603	32.64
322.815	32.05
323.026	32.43
323.238	32.62
323.449	29.82
323.661	28.15
323.872	28.33
324.083	26.71
324.295	26.49
324.506	28.28
324.718	28.8
324.929	29.12
325.14	28.35
325.352	29.06
325.563	29.82
325.774	31.07
325.986	30.71
326.197	29.9
326.408	30.32
326.62	30.02
326.831	30.05
327.042	30.57
327.253	31.19
327.464	33.02
327.676	32.64
327.887	32.35
328.098	33.25
328.309	34.98
328.52	35.07
328.732	35.18
328.943	35.86
329.154	35.4
329.365	35.81
329.576	36.36
329.787	36.43
329.998	37.73
330.209	36.71
330.42	38.1
330.631	39.39
330.842	40.5
331.053	41.57
331.264	41.99
331.475	41.78
331.686	42.51
331.897	41.49
332.108	40.83
332.319	39.09
332.53	39
332.741	37.79
332.952	35.53
333.163	34.93
333.374	33.65
333.585	33.07
333.795	33.82
334.006	32.85
334.217	33.32
334.428	32.36
334.639	32.02
334.849	31.59
335.06	32.57
335.271	33.98
335.482	34.34
335.692	34.12
335.903	33.93
336.114	34.71
336.325	34.89
336.535	34.8
336.746	35.24
336.957	36.66
337.167	37.75
337.378	37.04
337.589	35.44
337.799	34.36
338.01	35.46
338.22	35.63
338.431	34.74
338.642	35.24
338.852	34.66
339.063	34.91
339.273	34.3
339.484	35.24
339.694	34.87
339.905	34.62
340.115	35.95
340.326	35.79
340.536	35.22
340.746	35.08
340.957	35.43
341.167	35.52
341.378	34.56
341.588	34.41
341.799	33.2
342.009	33.3
342.219	34.2
342.43	34.08
342.64	33.51
342.85	33.28
343.061	32.78
343.271	31.9
343.481	31.27
343.691	31.41
343.902	31.07
344.112	30.21
344.322	30.61
344.532	30.7
344.743	30.53
344.953	31.2
345.163	30.94
345.373	31.48
345.583	31.79
345.793	32.58
346.004	32.94
346.214	32.56
346.424	33.79
346.634	33.03
346.844	32.52
347.054	31.89
347.264	31.45
347.474	32.33
347.684	32.72
347.894	31.85
348.104	31.28
348.314	30.93
348.524	31.89
348.734	30.84
348.944	30.81
349.154	30.54
349.364	31.38
349.574	30.38
349.784	30.5
349.994	30.5
350.204	30.63
350.413	30.8
350.623	31.16
350.833	29.99
351.043	29.57
351.253	30.2
351.463	30.16
351.672	29.51
351.882	29.5
352.092	29.36
352.302	29.53
352.511	29.65
352.721	29.49
352.931	29.3
353.141	30.95
353.35	30.87
353.56	30.68
353.77	30.08
353.979	30.8
354.189	31.59
354.399	30.88
354.608	30.3
354.818	29.53
355.027	29.17
355.237	28.61
355.447	27.65
355.656	27.93
355.866	26.64
356.075	27.09
356.285	25.99
356.494	25.26
356.704	25.34
356.913	24.32
357.123	25.06
357.332	24.84
357.542	24.42
357.751	24.19
357.96	24.86
358.17	24.84
358.379	25.05
358.589	25.24
358.798	25.22
359.007	24.68
359.217	24.51
359.426	23.43
359.635	23.71
359.845	24.2
360.054	23.55
360.263	22.24
360.472	22.99
360.682	22.56
360.891	22.05
361.1	21.87
361.309	21.6
361.519	22
361.728	22.58
361.937	22.51
362.146	22.16
362.355	22.85
362.564	23.06
362.774	22.36
362.983	22.5
363.192	23.76
363.401	24.23
363.61	24.18
363.819	24.46
364.028	24.57
364.237	24.21
364.446	24.08
364.655	24.11
364.864	24.43
365.073	25.62
365.282	25.19
365.491	24.03
365.7	23.8
365.909	24.59
366.118	24.86
366.327	24.59
366.536	25.65
366.745	25.4
366.954	25.94
367.162	26.19
367.371	26.06
367.58	27.19
367.789	27.68
367.998	27.22
368.207	26.92
368.415	26.78
368.624	26.5
368.833	25.99
369.042	26.3
369.25	26.5
369.459	25.91
369.668	25.2
369.877	24.66
370.085	24.43
370.294	24.69
370.503	24.17
370.711	24.38
370.92	24.4
371.129	24.13
371.337	24.59
371.546	23.37
371.754	23.16
371.963	23.16
372.171	23.14
372.38	22.51
372.589	23.29
372.797	23.68
373.006	23.54
373.214	23.91
373.423	23.85
373.631	23.53
373.84	22.36
374.048	21.59
374.256	21.2
374.465	21.06
374.673	21.67
374.882	20.34
375.09	20.02
375.298	19.81
375.507	19.23
375.715	18.71
375.923	17.99
376.132	18.99
376.34	20.05
376.548	20.46
376.757	19.86
376.965	19.76
377.173	20.66
377.381	21.49
377.59	21.49
377.798	21.68
378.006	21.26
378.214	21.83
378.423	21.77
378.631	21.38
378.839	20.92
379.047	21.48
379.255	21.24
379.463	21.23
379.671	21.49
379.879	21.4
380.088	21.47
380.296	22.32
380.504	23.14
380.712	23.28
380.92	23.03
381.128	23.1
381.336	22.39
381.544	23.36
381.752	22.24
381.96	21.62
382.168	21.45
382.376	21.25
382.584	20.47
382.791	18.85
382.999	19.07
383.207	19.19
383.415	19.63
383.623	20.04
383.831	18.51
384.039	19.25
384.247	19.18
384.454	19.82
384.662	19.58
384.87	19.23
385.078	20.39
385.285	20.26
385.493	20.27
385.701	19.71
385.909	19.3
386.116	19.68
386.324	20.15
386.532	19.64
386.739	18.73
386.947	18.92
387.155	20.47
387.362	19.8
387.57	19.63
387.778	20.32
387.985	20.52
388.193	20.54
388.4	20.53
388.608	19.84
388.816	19.55
389.023	19.73
389.231	19.96
389.438	19.6
389.646	19.79
389.853	19.7
390.061	19.35
390.268	19.24
390.475	19.06
390.683	18.38
390.89	18.7
391.098	18.89
391.305	18.9
391.512	17.91
391.72	16.75
391.927	16.8
392.135	16.89
392.342	16.44
392.549	16.66
392.756	17.01
392.964	17.85
393.171	17.91
393.378	18.04
393.586	17.81
393.793	18.23
394	19.53
394.207	19.2
394.414	19.01
394.622	19.07
394.829	18.63
395.036	18.72
395.243	18.56
395.45	18.61
395.657	19.32
395.864	19.75
396.072	19.95
396.279	19.44
396.486	19.72
396.693	20.05
396.9	20.19
397.107	20.46
397.314	20.35
397.521	20.25
397.728	19.96
397.935	18.65
398.142	17.95
398.349	17.92
398.556	17.09
398.763	16.91
398.97	17.01
399.177	16.65
399.383	17.01
399.59	17.29
399.797	17.51
400.004	17.39
400.211	18.26
400.418	18.65
400.625	18.37
400.831	19.16
401.038	18.94
401.245	18.49
401.452	18.8
401.658	18.49
401.865	18.23
402.072	17.82
402.279	17.66
402.485	17.48
402.692	17.18
402.899	16.93
403.105	16.72
403.312	17.54
403.519	17.5
403.725	17.37
403.932	17.32
404.138	16.45
404.345	16.35
404.552	16.07
404.758	16.06
404.965	15.7
405.171	16.26
405.378	16.14
405.584	15.31
405.791	15.3
405.997	15.36
406.204	15.38
406.41	16.44
406.617	16.11
406.823	17.04
407.029	16.7
407.236	16.55
407.442	16.32
407.649	16.2
407.855	16.59
408.061	16.89
408.268	16.88
408.474	17.09
408.68	16.26
408.887	16.58
409.093	15.73
409.299	15.88
409.505	16.68
409.712	16.41
409.918	16.58
410.124	16.33
410.33	15.68
410.537	15.35
410.743	14.85
410.949	15.71
411.155	15.32
411.361	15.65
411.567	15.66
411.773	15.66
411.98	15.68
412.186	15.7
412.392	15.87
412.598	16.16
412.804	16.5
413.01	16.7
413.216	16.35
413.422	16.51
413.628	16.05
413.834	15.82
414.04	16.03
414.246	15.94
414.452	16.12
414.658	16.57
414.864	16.6
415.07	16.5
415.275	16.97
415.481	16.99
415.687	16.94
415.893	16.86
416.099	16.86
416.305	16.59
416.511	16
416.716	14.89
416.922	14.04
417.128	13.63
417.334	13.46
417.539	12.6
417.745	12.35
417.951	11.89
418.157	11.46
418.362	11.24
418.568	10.69
418.774	10.57
418.979	10.98
419.185	10.73
419.391	10.91
419.596	10.88
419.802	11.12
420.008	10.57
420.213	10.53
420.419	10.72
420.624	10.74
420.83	10.88
421.035	11.24
421.241	11.16
421.446	11.42
421.652	11.12
421.857	11.17
422.063	10.96
422.268	11.27
422.474	11.59
422.679	11.49
422.885	11.62
423.09	11.36
423.295	11.28
423.501	11.42
423.706	11.42
423.911	11.36
424.117	11.22
424.322	11.26
424.527	11.11
424.733	11.1
424.938	11.43
425.143	11.34
425.349	11.41
425.554	11.3
425.759	11.18
425.964	11.19
426.169	11.33
426.375	11.22
426.58	11.19
426.785	11.38
426.99	11.27
427.195	10.94
427.4	10.56
427.605	11.29
427.811	11.4
428.016	11.43
428.221	11.84
428.426	11.89
428.631	12.29
428.836	11.93
429.041	11.98
429.246	12.18
429.451	12.83
429.656	13.2
429.861	12.64
430.066	12.98
430.271	13.45
430.476	12.79
430.681	13.54
430.886	13.36
431.09	13.7
431.295	13.77
431.5	13.51
431.705	13.2
431.91	13.18
432.115	13.3
432.32	13.34
432.524	12.93
432.729	12.87
432.934	11.93
433.139	11.87
433.343	11.91
433.548	11.8
433.753	11.75
433.958	11.76
434.162	11.83
434.367	11.63
434.572	11.53
434.776	11.57
434.981	11.76
435.186	12.26
435.39	12.44
435.595	12.64
435.799	12.51
436.004	12.66
436.209	12.26
436.413	11.97
436.618	12.17
436.822	12.17
437.027	11.92
437.231	11.72
437.436	11.43
437.64	11.09
437.845	11.04
438.049	11.03
438.253	10.83
438.458	10.86
438.662	11.1
438.867	10.86
439.071	10.73
439.275	10.87
439.48	11
439.684	11.12
439.888	11.03
440.093	10.86
440.297	10.71
440.501	10.8
440.706	10.88
440.91	10.94
441.114	10.87
441.318	11.05
441.523	11.05
441.727	10.97
441.931	10.86
442.135	11.04
442.339	11.21
442.543	11.65
442.748	12
442.952	12.03
443.156	11.82
443.36	11.98
443.564	12.1
443.768	11.83
443.972	11.78
444.176	11.62
444.38	11.77
444.584	11.44
444.788	11.07
444.992	10.68
445.196	10.71
445.4	10.62
445.604	10.39
445.808	9.9
446.012	10.2
446.216	10.05
446.42	10.06
446.624	10.05
446.828	10.05
447.032	10.21
447.235	10.62
447.439	10.42
447.643	10.55
447.847	10.89
448.051	11.16
448.254	10.89
448.458	11.1
448.662	11.21
448.866	11.29
449.069	11.5
449.273	11.58
449.477	11.21
449.681	11.35
449.884	11.41
450.088	11.52
450.292	11.48
450.495	11.59
450.699	11.85
450.902	11.97
451.106	11.74
451.31	11.82
451.513	11.86
451.717	12.08
451.92	12.33
452.124	12.23
452.327	12.11
452.531	12.31
452.734	12.35
452.938	11.95
453.141	12.08
453.345	12.47
453.548	12.16
453.752	12.46
453.955	12.59
454.158	12.28
454.362	12.39
454.565	12.55
454.769	12.12
454.972	12.66
455.175	12.77
455.379	12.55
455.582	12.21
455.785	12.39
455.988	11.86
456.192	11.52
456.395	11.86
456.598	12.06
456.801	11.83
457.005	11.9
457.208	11.29
457.411	11.52
457.614	11.66
457.817	11.81
458.021	11.86
458.224	11.62
458.427	11.45
458.63	11.24
458.833	10.72
459.036	10.54
459.239	10.58
459.442	10.55
459.645	10.55
459.848	10.51
460.051	10.41
460.254	10.46
460.457	10.69
460.66	10.84
460.863	11.04
461.066	11.09
461.269	11.5
461.472	11.57
461.675	11.8
461.878	11.78
462.081	12.01
462.284	12.08
462.486	12
462.689	12.32
462.892	12.59
463.095	12.77
463.298	13.17
463.5	12.96
463.703	13.38
463.906	13.45
464.109	13.19
464.311	12.86
464.514	12.9
464.717	13.2
464.92	12.75
465.122	12.7
465.325	12.34
465.528	12.28
465.73	12.01
465.933	11.79
466.135	11.93
466.338	11.79
466.541	11.77
466.743	11.64
466.946	11.32
467.148	11.44
467.351	11.31
467.553	11.34
467.756	11.56
467.958	11.63
468.161	11.47
468.363	11.03
468.566	11.41
468.768	11.52
468.971	11.47
469.173	11.35
469.375	11.49
469.578	11.45
469.78	11.3
469.983	11.25
470.185	11.38
470.387	11.79
470.59	11.86
470.792	12.09
470.994	11.98
471.196	12
471.399	12.28
471.601	12.36
471.803	12.7
472.005	12.84
472.208	12.49
472.41	12.13
472.612	12.04
472.814	12.19
473.016	12.13
473.218	12.09
473.421	12.05
473.623	11.79
473.825	11.39
474.027	11.19
474.229	11.05
474.431	11.19
474.633	11.46
474.835	11.19
475.037	11.17
475.239	10.74
475.441	11.13
475.643	11.4
475.845	11.48
476.047	11.84
476.249	11.49
476.451	11.41
476.653	11.33
476.855	11.15
477.057	11.11
477.258	10.92
477.46	11.18
477.662	10.87
477.864	10.56
478.066	10.54
478.268	10.27
478.469	10.06
478.671	10.11
478.873	10.01
479.075	10.14
479.276	9.99
479.478	10.05
479.68	9.7
479.882	9.69
480.083	9.67
480.285	9.76
480.487	9.76
480.688	9.95
480.89	9.86
481.091	9.74
481.293	9.57
481.495	9.44
481.696	9.25
481.898	9.03
482.099	8.77
482.301	8.51
482.502	8.33
482.704	8.07
482.905	7.91
483.107	7.76
483.308	7.68
483.51	7.56
483.711	7.46
483.913	7.39
484.114	7.44
484.315	7.49
484.517	7.53
484.718	7.53
484.92	7.61
485.121	7.61
485.322	7.76
485.524	7.76
485.725	7.87
485.926	7.9
486.127	7.98
486.329	7.87
486.53	7.88
486.731	7.92
486.932	7.84
487.134	7.8
487.335	7.82
487.536	7.71
487.737	7.71
487.938	7.68
488.139	7.79
488.341	7.77
488.542	7.9
488.743	7.93
488.944	7.99
489.145	8.02
489.346	8.15
489.547	8.19
489.748	8.35
489.949	8.4
490.15	8.58
490.351	8.5
490.552	8.51
490.753	8.52
490.954	8.35
491.155	8.36
491.356	8.43
491.557	8.41
491.758	8.38
491.959	8.3
492.159	8.47
492.36	8.38
492.561	8.61
492.762	8.79
492.963	8.81
493.164	9.1
493.364	9.2
493.565	9.4
493.766	9.49
493.967	9.82
494.167	10.04
494.368	9.86
494.569	10.1
494.769	9.91
494.97	10.02
495.171	10.14
495.371	10.36
495.572	10.35
495.773	10.28
495.973	10.57
496.174	10.52
496.375	10.83
496.575	11.11
496.776	10.82
496.976	10.87
497.177	10.67
497.377	10.65
497.578	10.59
497.778	10.51
497.979	10.8
498.179	10.48
498.38	10.65
498.58	10.38
498.78	10.25
498.981	10.19
499.181	10.23
499.382	10.34
499.582	10.2
499.782	10.27
499.983	10.43
500.183	10.15
500.383	10.24
500.584	10.05
500.784	10.12
500.984	10.29
501.184	10.6
501.385	10.53
501.585	10.76
501.785	11.43
501.985	11.4
502.185	11.58
502.386	11.61
502.586	11.82
502.786	12.01
502.986	11.92
503.186	11.89
503.386	11.96
503.586	12.14
503.786	12.1
503.987	11.83
504.187	11.73
504.387	11.96
504.587	11.69
504.787	11.99
504.987	12.23
505.187	12.38
505.387	12.2
505.587	12.37
505.786	12.42
505.986	12.44
506.186	12.61
506.386	12.5
506.586	12.26
506.786	12.38
506.986	12.05
507.186	11.84
507.386	11.75
507.585	12.07
507.785	12.06
507.985	12.18
508.185	12.07
508.384	11.87
508.584	12
508.784	11.9
508.984	12.03
509.183	12.09
509.383	12.14
509.583	12.2
509.782	12.37
509.982	12.27
510.182	12.22
510.381	12.27
510.581	12.42
510.781	12.4
510.98	12.78
511.18	13
511.379	12.99
511.579	12.97
511.778	13.04
511.978	13.16
512.177	13.21
512.377	13.04
512.576	13.23
512.776	13.32
512.975	13.36
513.175	13.21
513.374	13.12
513.573	13.36
513.773	13.48
513.972	13.46
514.172	13.23
514.371	13.51
514.57	13.81
514.77	13.77
514.969	13.76
515.168	14.01
515.367	14.14
515.567	14.4
515.766	14.35
515.965	14.44
516.164	14.6
516.364	14.78
516.563	14.71
516.762	14.77
516.961	14.78
517.16	14.94
517.359	14.73
517.559	14.62
517.758	14.53
517.957	14.48
518.156	14.57
518.355	14.51
518.554	14.68
518.753	14.56
518.952	14.67
519.151	14.79
519.35	14.71
519.549	14.88
519.748	14.94
519.947	15.07
520.146	15.27
520.345	15.42
520.544	15.59
520.743	15.65
520.942	16
521.141	16.07
521.339	16.27
521.538	16.44
521.737	16.57
521.936	16.58
522.135	16.61
522.333	16.82
522.532	16.75
522.731	16.74
522.93	16.68
523.129	16.67
523.327	16.91
523.526	16.89
523.725	17.12
523.923	17.28
524.122	17.29
524.321	17.5
524.519	17.45
524.718	17.47
524.917	17.69
525.115	17.86
525.314	17.91
525.512	17.8
525.711	17.86
525.909	17.75
526.108	17.73
526.306	17.88
526.505	17.79
526.703	17.82
526.902	17.84
527.1	17.78
527.299	17.62
527.497	17.5
527.696	17.51
527.894	17.47
528.092	17.36
528.291	17.36
528.489	17.44
528.688	17.43
528.886	17.45
529.084	17.5
529.283	17.56
529.481	17.59
529.679	17.86
529.877	17.99
530.076	18.24
530.274	18.76
530.472	19.11
530.67	19.28
530.869	19.65
531.067	19.86
531.265	20.07
531.463	20.26
531.661	20.62
531.859	20.61
532.057	20.72
532.255	20.74
532.454	20.59
532.652	20.39
532.85	20.38
533.048	20.41
533.246	20.43
533.444	20.42
533.642	20.53
533.84	20.66
534.038	20.82
534.236	20.9
534.434	20.99
534.632	21.33
534.83	21.72
535.027	21.94
535.225	22.11
535.423	22.5
535.621	22.67
535.819	22.78
536.017	22.56
536.215	22.58
536.412	22.58
536.61	22.79
536.808	22.75
537.006	22.72
537.203	23.03
537.401	23.04
537.599	22.99
537.797	23.44
537.994	23.34
538.192	23.8
538.39	23.93
538.587	24.19
538.785	24.15
538.983	24.06
539.18	24.35
539.378	24.21
539.575	24.18
539.773	23.99
539.97	23.63
540.168	23.88
540.366	23.82
540.563	23.99
540.761	24.04
540.958	24.08
541.155	24.22
541.353	24.06
541.55	24.07
541.748	24.25
541.945	24.47
542.143	24.57
542.34	24.61
542.537	24.55
542.735	24.45
542.932	24.5
543.129	24.66
543.327	24.81
543.524	25.02
543.721	25.21
543.919	25.41
544.116	25.55
544.313	25.78
544.51	25.77
544.708	26.22
544.905	26.57
545.102	26.77
545.299	26.91
545.496	26.95
545.693	27.2
545.891	27.23
546.088	27.19
546.285	27.25
546.482	27.4
546.679	27.57
546.876	27.62
547.073	27.94
547.27	27.85
547.467	27.74
547.664	27.68
547.861	27.88
548.058	28.21
548.255	28.31
548.452	28.47
548.649	28.91
548.846	29.26
549.043	29.53
549.24	29.23
549.437	29.24
549.633	29.5
549.83	29.65
550.027	29.56
550.224	29.44
550.421	29.77
550.618	29.8
550.814	29.55
551.011	29.64
551.208	29.24
551.405	29.38
551.601	29.9
551.798	30.08
551.995	30.05
552.191	30.02
552.388	30.26
552.585	30.15
552.781	30.15
552.978	30.27
553.175	30.14
553.371	30.47
553.568	30.55
553.764	30.14
553.961	30.13
554.157	30.48
554.354	30.53
554.55	30.66
554.747	30.67
554.943	30.59
555.14	30.6
555.336	30.61
555.533	30.78
555.729	30.77
555.926	31.28
556.122	31.41
556.318	31.5
556.515	31.57
556.711	31.24
556.907	31.14
557.104	31.47
557.3	31.43
557.496	31.58
557.693	31.36
557.889	31.95
558.085	32.36
558.281	32.66
558.478	32.43
558.674	32.57
558.87	32.95
559.066	33.17
559.262	33.04
559.459	32.75
559.655	32.86
559.851	33.05
560.047	32.75
560.243	32.27
560.439	32.09
560.635	32.34
560.831	32.23
561.027	31.77
561.223	31.52
561.419	31.73
561.615	32.32
561.811	32.25
562.007	32.32
562.203	31.92
562.399	31.93
562.595	31.79
562.791	31.75
562.987	32.08
563.183	32.34
563.379	32.66
563.575	32.93
563.771	32.91
563.966	32.59
564.162	32.24
564.358	32.51
564.554	32.44
564.75	32.37
564.945	31.95
565.141	31.42
565.337	31.46
565.533	31.53
565.728	31.08
565.924	30.78
566.12	30.92
566.315	30.84
566.511	30.49
566.707	30.44
566.902	30.42
567.098	31.04
567.293	31.48
567.489	31.15
567.684	30.91
567.88	31.08
568.076	31.32
568.271	31.49
568.467	31.79
568.662	32.07
568.858	32.18
569.053	32.27
569.248	31.96
569.444	31.85
569.639	32.06
569.835	32.17
570.03	32.12
570.225	32.01
570.421	32.01
570.616	31.74
570.812	31.8
571.007	31.56
571.202	31.33
571.397	31.08
571.593	31.28
571.788	31.44
571.983	31.37
572.178	31.73
572.374	31.49
572.569	31.25
572.764	31.35
572.959	31.51
573.154	31.81
573.35	32.14
573.545	32.43
573.74	32.12
573.935	32.25
574.13	32.27
574.325	31.78
574.52	31.93
574.715	32.15
574.91	32.17
575.105	32.19
575.3	32.28
575.495	32.24
575.69	32.08
575.885	32.63
576.08	32.71
576.275	32.93
576.47	33.29
576.665	33.49
576.86	33.84
577.055	34.15
577.25	34.04
577.444	34.03
577.639	34.34
577.834	34.83
578.029	34.66
578.224	34.56
578.418	34.78
578.613	34.88
578.808	35.09
579.003	34.82
579.197	35.15
579.392	35.65
579.587	35.66
579.781	35.21
579.976	35.35
580.171	35.27
580.365	35.05
580.56	34.71
580.755	35.08
580.949	34.97
581.144	35.22
581.338	34.97
581.533	34.45
581.727	34.77
581.922	35.09
582.116	34.96
582.311	34.81
582.505	35
582.7	35.51
582.894	35.21
583.089	35.26
583.283	35.24
583.478	35.37
583.672	35.36
583.866	35.18
584.061	35.09
584.255	34.78
584.449	34.96
584.644	35.24
584.838	34.87
585.032	34.89
585.226	35.36
585.421	35.58
585.615	35.68
585.809	35.55
586.003	35.87
586.198	36.2
586.392	36.75
586.586	36.75
586.78	36.73
586.974	36.7
587.168	36.57
587.363	35.88
587.557	35.33
587.751	35.12
587.945	35.41
588.139	35.41
588.333	35.31
588.527	34.93
588.721	35.03
588.915	34.89
589.109	35
589.303	35.35
589.497	35.43
589.691	35.9
589.885	35.92
590.079	35.69
590.273	35.22
590.466	35.42
590.66	35.65
590.854	35.46
591.048	35.54
591.242	35.57
591.436	35.45
591.629	35.77
591.823	35.61
592.017	35.66
592.211	36
592.404	36.4
592.598	35.81
592.792	35.53
592.986	35.89
593.179	35.48
593.373	35.09
593.567	35.25
593.76	35.25
593.954	35.26
594.147	35.41
594.341	35.23
594.535	35.21
594.728	35.27
594.922	35.23
595.115	34.56
595.309	34.93
595.502	35.57
595.696	35.2
595.889	35.22
596.083	35.13
596.276	35.22
596.47	35.36
596.663	35.34
596.856	35.54
597.05	35.82
597.243	36.03
597.437	36.12
597.63	35.96
597.823	35.7
598.017	35.95
598.21	36.03
598.403	36.15
598.596	36.31
598.79	36.14
598.983	36.07
599.176	36.01
599.369	36.25
599.563	35.75
599.756	36.06
599.949	36.76
600.142	36.28
600.335	36.72
600.528	36.37
600.722	35.96
600.915	36.03
601.108	36.25
601.301	35.92
601.494	35.65
601.687	36.09
601.88	35.84
602.073	35.44
602.266	35.3
602.459	35.01
602.652	34.87
602.845	35.14
603.038	35.25
603.231	35.12
603.424	34.98
603.617	35.5
603.809	35.05
604.002	34.77
604.195	34.83
604.388	35.15
604.581	35.17
604.774	35.43
604.966	35.08
605.159	34.9
605.352	34.84
605.545	35.57
605.737	35.16
605.93	36.11
606.123	36.87
606.316	37.39
606.508	37.64
606.701	38.13
606.894	38.29
607.086	38.68
607.279	38.93
607.471	39.24
607.664	38.83
607.857	38.83
608.049	38.05
608.242	37.67
608.434	37.63
608.627	37.2
608.819	36.26
609.012	36.13
609.204	36.38
609.397	36.04
609.589	36.03
609.782	35.92
609.974	35.88
610.166	36.46
610.359	35.85
610.551	35.58
610.743	35.55
610.936	36.14
611.128	36.01
611.32	35.82
611.513	36.14
611.705	36.33
611.897	36.32
612.09	36.21
612.282	36.16
612.474	36.71
612.666	37.34
612.858	37.4
613.051	37.3
613.243	37.51
613.435	37.93
613.627	38.32
613.819	38.17
614.011	39.51
614.203	40.37
614.395	40.32
614.588	40.83
614.78	40.85
614.972	41.63
615.164	41.53
615.356	41.67
615.548	41.45
615.74	41.45
615.932	41.54
616.124	40.43
616.315	40.18
616.507	40.25
616.699	40.22
616.891	39.69
617.083	39.28
617.275	39.55
617.467	39.63
617.659	39.24
617.85	39.33
618.042	39.09
618.234	39.64
618.426	39.22
618.618	39.26
618.809	38.96
619.001	39
619.193	38.76
619.384	39.24
619.576	39.02
619.768	39.47
619.959	39.01
620.151	39.27
620.343	39.51
620.534	39.75
620.726	38.93
620.917	38.81
621.109	38.94
621.301	39.42
621.492	39.33
621.684	40.17
621.875	39.81
622.067	40.01
622.258	39.98
622.45	39.89
622.641	40.04
622.832	40.92
623.024	40.81
623.215	40.22
623.407	40.14
623.598	40.2
623.789	39.79
623.981	40.32
624.172	40.25
624.363	40.4
624.555	39.95
624.746	39.36
624.937	39.02
625.129	39.21
625.32	39.78
625.511	39.78
625.702	39.06
625.893	38.93
626.085	38.2
626.276	38.5
626.467	38.2
626.658	38.43
626.849	38.52
627.04	38.38
627.231	38.04
627.422	37.79
627.614	37.61
627.805	37.88
627.996	37.92
628.187	38.21
628.378	37.95
628.569	38.52
628.76	38.73
628.951	38.8
629.142	39.15
629.332	39.51
629.523	39.63
629.714	39.94
629.905	40.58
630.096	40.96
630.287	41.56
630.478	41.98
630.669	41.59
630.859	41.5
631.05	41.93
631.241	41.56
631.432	41.68
631.623	42.62
631.813	43.06
632.004	42.49
632.195	41.6
632.385	41.96
632.576	41.66
632.767	41.53
632.957	41.49
633.148	41.63
633.339	42.01
633.529	41.68
633.72	40.86
633.91	40.45
634.101	40.79
634.292	41.19
634.482	40.45
634.673	40.49
634.863	40.67
635.054	41.06
635.244	40.51
635.435	40.74
635.625	40.88
635.815	40.74
636.006	41.07
636.196	41.35
636.387	41.25
636.577	41.62
636.767	41.3
636.958	41.45
637.148	40.54
637.338	41.36
637.529	41.18
637.719	41.84
637.909	42.24
638.099	42.07
638.29	41.56
638.48	41.99
638.67	42.02
638.86	42.77
639.05	42.76
639.241	43.44
639.431	43.08
639.621	43.21
639.811	42.49
640.001	42.33
640.191	42.12
640.381	42.33
640.571	41.92
640.761	41.45
640.951	41.35
641.141	41.3
641.331	40.82
641.521	40.72
641.711	40.72
641.901	41.8
642.091	42.39
642.281	41.88
642.471	41.97
642.661	42.02
642.851	43.04
643.041	43.02
643.231	43.22
643.42	43.44
643.61	44.18
643.8	44.05
643.99	43.44
644.18	43.23
644.369	43.83
644.559	44.04
644.749	44.1
644.939	44.09
645.128	43.66
645.318	43.59
645.508	43.76
645.697	43.96
645.887	43.5
646.076	43.52
646.266	43
646.456	42.81
646.645	42.13
646.835	41.6
647.024	41.17
647.214	41.83
647.403	41.74
647.593	41.82
647.782	41
647.972	41.69
648.161	41.55
648.351	41.89
648.54	41.9
648.73	42.46
648.919	42.66
649.108	42.11
649.298	42.13
649.487	42.26
649.677	42.66
649.866	42.73
650.055	43.01
650.244	43.14
650.434	42.3
650.623	42.77
650.812	42.94
651.002	43.95
651.191	44.35
651.38	44
651.569	43.54
651.758	43.2
651.947	43.22
652.137	43.05
652.326	43.22
652.515	43.66
652.704	43.59
652.893	43.34
653.082	42.56
653.271	42.66
653.46	42.71
653.649	43.5
653.838	43.55
654.027	43.46
654.216	42.82
654.405	42.5
654.594	42.73
654.783	42.68
654.972	42.42
655.161	42.54
655.35	41.95
655.539	41.63
655.728	41.22
655.916	40.39
656.105	40.89
656.294	41.24
656.483	41.79
656.672	41.77
656.86	41.05
657.049	41.77
657.238	41.19
657.427	41.74
657.615	41.95
657.804	41.56
657.993	41.21
658.181	40.03
658.37	40.14
658.559	40.2
658.747	40.13
658.936	40.64
659.125	41.41
659.313	41.72
659.502	41.44
659.69	41.55
659.879	41.91
660.067	42.26
660.256	43.41
660.444	43.5
660.633	43.14
660.821	43.37
661.01	43.17
661.198	41.05
661.387	41.79
661.575	42.35
661.763	42.35
661.952	42.49
662.14	43.33
662.328	43.35
662.517	42.84
662.705	42.8
662.893	43.06
663.082	43.33
663.27	44.61
663.458	43.65
663.646	43.58
663.834	43.93
664.023	43.84
664.211	43.22
664.399	43.31
664.587	43.84
664.775	44.18
664.963	44.84
665.152	44.99
665.34	44.88
665.528	45.69
665.716	45.4
665.904	45.34
666.092	45.3
666.28	46.73
666.468	45.7
666.656	46.29
666.844	46.77
667.032	46.44
667.22	46.23
667.408	45.37
667.596	44.96
667.784	45.45
667.971	45.64
668.159	46.35
668.347	45.55
668.535	46.35
668.723	45.84
668.911	45.45
669.098	45.16
669.286	45.44
669.474	46.26
669.662	46.63
669.849	47.61
670.037	47.9
670.225	47.48
670.413	47.25
670.6	47.5
670.788	47.34
670.976	47.42
671.163	47.71
671.351	48.06
671.538	48.46
671.726	48.25
671.913	47.22
672.101	45.92
672.289	46.44
672.476	45.9
672.664	45.73
672.851	45.81
673.039	45.78
673.226	45.45
673.413	45.36
673.601	45.73
673.788	46.22
673.976	45.6
674.163	47.27
674.35	46.11
674.538	47.43
674.725	47.86
674.912	48.6
675.1	48.54
675.287	48.12
675.474	48.27
675.662	47.57
675.849	47.83
676.036	48.41
676.223	48.45
676.411	49.13
676.598	48.92
676.785	48.97
676.972	48.47
677.159	49.19
677.346	49.89
677.533	48.91
677.721	49.22
677.908	48.64
678.095	48.85
678.282	47.5
678.469	46.93
678.656	46.52
678.843	45.83
679.03	45.33
679.217	44.73
679.404	44.68
679.591	45.86
679.778	46.01
679.964	45.82
680.151	45.29
680.338	45.26
680.525	45.61
680.712	45.37
680.899	45.27
681.086	45.75
681.272	45.7
681.459	45.44
681.646	44.22
681.833	43.54
682.02	43.69
682.206	44.34
682.393	44.95
682.58	45.04
682.766	44.77
682.953	46.5
683.14	46.27
683.326	46.82
683.513	47.07
683.7	47.09
683.886	47.73
684.073	47.98
684.259	47.48
684.446	47.38
684.632	47.82
684.819	49.18
685.005	48.39
685.192	48.44
685.378	48.93
685.565	48.89
685.751	49.43
685.938	49.28
686.124	48.91
686.31	49.69
686.497	50.15
686.683	50.35
686.87	49.97
687.056	49.33
687.242	49.56
687.429	48.86
687.615	48.68
687.801	48.33
687.987	48.41
688.174	49.06
688.36	48.51
688.546	48.01
688.732	47.8
688.918	48.21
689.105	48.36
689.291	48.62
689.477	48.58
689.663	49.91
689.849	50.51
690.035	50.07
690.221	50.17
690.407	50.61
690.593	51.45
690.779	51.27
690.965	51.01
691.151	50.38
691.337	50.36
691.523	50.5
691.709	49.94
691.895	50.46
692.081	50.06
692.267	50.04
692.453	49.57
692.639	49.09
692.825	49.62
693.011	49.4
693.196	50.45
693.382	50.36
693.568	50.89
693.754	50.95
693.94	50.07
694.125	50.28
694.311	50.34
694.497	49.54
694.682	49.62
694.868	48.91
695.054	48.7
695.239	48.72
695.425	48.8
695.611	47.5
695.796	46.73
695.982	47.08
696.168	47.26
696.353	46.74
696.539	46.68
696.724	46.08
696.91	45.79
697.095	45.85
697.281	45.16
697.466	44.44
697.652	44.29
697.837	44.14
698.023	43.97
698.208	43.16
698.393	42.89
698.579	43.33
698.764	43.45
698.949	42.8
699.135	43.39
699.32	43.56
699.505	44.59
699.691	44.51
699.876	44.9
700.061	44.77
700.246	46.08
700.432	46.26
700.617	46.88
700.802	47.54
700.987	49.81
701.172	50.03
701.358	50.85
701.543	49
701.728	49.56
701.913	49.73
702.098	49.83
702.283	49.77
702.468	50.67
702.653	50.99
702.838	51.99
703.023	51.68
703.208	50.49
703.393	50.39
703.578	52.8
703.763	53.73
703.948	53.65
704.133	54.3
704.318	55.86
704.503	56.28
704.688	55.22
704.873	53.92
705.057	54.15
705.242	53.07
705.427	53.63
705.612	53.55
705.797	54.04
705.981	53.83
706.166	53.88
706.351	51.3
706.536	50.75
706.72	51.29
706.905	51.87
707.09	51.09
707.274	53.92
707.459	54.17
707.644	54.38
707.828	54.58
708.013	54.72
708.197	54.93
708.382	55.71
708.567	55.6
708.751	54.63
708.936	54.88
709.12	55.11
709.305	53.56
709.489	53.27
709.673	52.66
709.858	52.75
710.042	53.04
710.227	52.9
710.411	53.48
710.596	53.64
710.78	54.21
710.964	53.32
711.149	53.11
711.333	54.01
711.517	53.58
711.702	54.17
711.886	53.74
712.07	54.3
712.254	54.38
712.438	53.45
712.623	53.89
712.807	53.43
712.991	53.15
713.175	53.86
713.359	54.16
713.544	54.6
713.728	54.04
713.912	53.87
714.096	53.95
714.28	52.44
714.464	53.19
714.648	52.4
714.832	54.53
715.016	55.66
715.2	54.1
715.384	53.01
715.568	52.38
715.752	52.57
715.936	51.5
716.12	50.84
716.304	52.49
716.488	52.6
716.671	52.96
716.855	51.07
717.039	50.26
717.223	51.02
717.407	51.12
717.59	51.84
717.774	51.64
717.958	52.8
718.142	53.37
718.325	53.87
718.509	53.84
718.693	55.42
718.877	56.4
719.06	56.9
719.244	57.73
719.428	58.49
719.611	58.95
719.795	59.25
719.978	59.44
720.162	59.16
720.345	59.75
720.529	60.65
720.713	59.32
720.896	58.52
721.08	58.67
721.263	59.54
721.446	60.03
721.63	61.14
721.813	59.82
721.997	62.09
722.18	62.59
722.364	62.22
722.547	62.26
722.73	62.36
722.914	63.03
723.097	63.21
723.28	62.75
723.464	63.2
723.647	61.33
723.83	62.27
724.013	60.92
724.197	60.53
724.38	59.18
724.563	59.02
724.746	61.22
724.929	61.6
725.112	62.23
725.296	61.5
725.479	61.21
725.662	60.38
725.845	59.71
726.028	60.01
726.211	60.15
726.394	61.21
726.577	60.09
726.76	57.95
726.943	57.61
727.126	56.64
727.309	56.03
727.492	57.17
727.675	58.55
727.858	60.01
728.041	58.13
728.224	57.51
728.407	57.03
728.589	57.01
728.772	56.43
728.955	57.18
729.138	59
729.321	59.72
729.503	59.3
729.686	58.42
729.869	58.07
730.052	59
730.234	59.3
730.417	58.51
730.6	59.66
730.782	59.78
730.965	58.81
731.148	57.55
731.33	56.01
731.513	55.68
731.695	55.84
731.878	55.88
732.061	55.24
732.243	54.59
732.426	55.34
732.608	54.85
732.791	55.68
732.973	55.79
733.156	56.66
733.338	59.16
733.52	60.1
733.703	59.96
733.885	59.83
734.068	60.86
734.25	62.78
734.432	64.35
734.615	65
734.797	64.67
734.979	64.56
735.162	62.06
735.344	60.24
735.526	59.22
735.708	59.59
735.891	60.38
736.073	60.69
736.255	59.36
736.437	58.98
736.619	59.01
736.802	59.51
736.984	59.68
737.166	61.13
737.348	62.13
737.53	61.72
737.712	62.61
737.894	61.08
738.076	60.7
738.258	62.81
738.44	61.64
738.622	62.68
738.804	63.21
738.986	63.92
739.168	66.14
739.35	66.84
739.532	66.29
739.714	65.77
739.896	65.53
740.078	66.75
740.259	65.37
740.441	67.71
740.623	67.12
740.805	66.94
740.987	66.28
741.168	63.94
741.35	63.57
741.532	64.04
741.714	64.18
741.895	65.18
742.077	63.32
742.259	63.47
742.44	61.9
742.622	63.62
742.804	64.71
742.985	66.32
743.167	66.91
743.348	67.99
743.53	69.69
743.711	73.08
743.893	75.77
744.075	79.07
744.256	79.35
744.438	79.49
744.619	78.97
744.8	77.95
744.982	77.3
745.163	80.48
745.345	79.84
745.526	78.39
745.707	75.82
745.889	73.39
746.07	72.35
746.252	71.35
746.433	70.27
746.614	68.35
746.795	65.93
746.977	67.01
747.158	64.97
747.339	62.23
747.52	62.24
747.702	61.65
747.883	63.34
748.064	62.67
748.245	64.09
748.426	65.92
748.607	65.81
748.788	69.55
748.97	69.32
749.151	69.11
749.332	72.8
749.513	73.77
749.694	74.76
749.875	75.42
750.056	76.03
750.237	76.19
750.418	74.5
750.599	76.42
750.78	72.7
750.96	70.73
751.141	70.75
751.322	69.31
751.503	66.96
751.684	67.67
751.865	65.64
752.046	64.7
752.226	63.51
752.407	64.07
752.588	63.63
752.769	65.29
752.949	65.71
753.13	65.62
753.311	66
753.492	68.16
753.672	67.17
753.853	68.88
754.034	71.08
754.214	69.99
754.395	71.22
754.575	70.58
754.756	71.22
754.937	74.02
755.117	74.35
755.298	76.3
755.478	76.46
755.659	75.93
755.839	71.93
756.02	73.19
756.2	76.75
756.381	75.13
756.561	76.38
756.741	76.75
756.922	75.99
757.102	77.91
757.283	75.89
757.463	74.45
757.643	77.12
757.823	79.68
758.004	78.47
758.184	77.11
758.364	77.73
758.545	78.7
758.725	76.99
758.905	76.62
759.085	74.85
759.265	72.96
759.446	71.69
759.626	69.95
759.806	70.14
759.986	68.41
760.166	68.38
760.346	66.76
760.526	63.83
760.706	64.96
760.886	63.99
761.066	64.82
761.246	66.66
761.426	68.19
761.606	65.95
761.786	64.29
761.966	63.75
762.146	64.43
762.326	65.98
762.506	66.82
762.686	65.71
762.866	64.93
763.046	63.78
763.225	61.55
763.405	59.49
763.585	60.27
763.765	60.23
763.945	60.76
764.124	61.09
764.304	61.78
764.484	61.48
764.664	63.06
764.843	63.03
765.023	63.56
765.203	62.4
765.382	65.24
765.562	66.27
765.741	67.37
765.921	68.73
766.101	66.79
766.28	64.77
766.46	65.34
766.639	65
766.819	66.31
766.998	68.24
767.178	72.05
767.357	72.48
767.537	74.04
767.716	73.98
767.896	72.98
768.075	73.84
768.254	74.04
768.434	76.41
768.613	74.2
768.792	74.32
768.972	72.42
769.151	75.74
769.33	76.34
769.51	75.11
769.689	78.69
769.868	79.13
770.047	78.1
770.226	80.07
770.406	77.24
770.585	81.68
770.764	82.51
770.943	82.16
771.122	78.77
771.301	79.24
771.48	79.67
771.66	79.34
771.839	81.18
772.018	86.27
772.197	88.9
772.376	91.76
772.555	92.39
772.734	90.89
772.913	91.83
773.092	92.35
773.271	91.8
773.449	93.26
773.628	90.84
773.807	90.68
773.986	87.57
774.165	86.26
774.344	89.12
774.523	87.7
774.701	90.92
774.88	93.36
775.059	92.52
775.238	94.99
775.417	98.09
775.595	98.87
775.774	96.93
775.953	100.09
776.131	98.04
776.31	93.35
776.489	93.06
776.667	90.91
776.846	86.69
777.025	86.16
777.203	83.47
777.382	80.65
777.56	83.48
777.739	83.97
777.917	84.99
778.096	84.38
778.274	83.3
778.453	80.91
778.631	82.02
778.81	85.49
778.988	86.76
779.166	85.06
779.345	88.09
779.523	90.04
779.702	98.87
779.88	96.92
780.058	96.54
780.237	99.36
780.415	99.35
780.593	99.29
780.771	97.49
780.95	101.48
781.128	102.46
781.306	99.6
781.484	93.7
781.662	90.43
781.841	90.66
782.019	89.27
782.197	89.79
782.375	89.23
782.553	87.42
782.731	89.21
782.909	87.4
783.087	90.59
783.265	94.24
783.443	96.76
783.621	93.88
783.799	95.2
783.977	102
784.155	102.57
784.333	102.76
784.511	104.68
784.689	108.84
784.867	111.84
785.045	115.08
785.223	108.39
785.4	111.65
785.578	105
785.756	105.82
785.934	102.02
786.112	101.13
786.289	98.85
786.467	100.63
786.645	96.64
786.823	96.14
787	96.04
787.178	98.31
787.356	96.57
787.533	98.71
787.711	95.54
787.889	95.57
788.066	93.63
788.244	102.44
788.421	100.9
788.599	105.05
788.776	106.4
788.954	104.95
789.131	102.03
789.309	103.58
789.486	108.68
789.664	109.95
789.841	116.99
790.019	119.16
790.196	116.81
790.373	116.11
790.551	111.27
790.728	112.42
790.906	111.37
791.083	116.3
791.26	118.87
791.437	114.13
791.615	117.7
791.792	111.56
791.969	111.03
792.146	108.13
792.324	105.33
792.501	108.72
792.678	101.78
792.855	101.11
793.032	100.69
793.209	94.16
793.387	95.55
793.564	95.22
793.741	97.02
793.918	95.67
794.095	93.79
794.272	98.06
794.449	99.59
794.626	106.08
794.803	104.22
794.98	99.89
795.157	100.31
795.334	96.44
795.511	94.06
795.688	94.31
795.864	93.9
796.041	100.21
796.218	98.27
796.395	94.61
796.572	91.37
796.749	92.63
796.925	95.04
797.102	93.03
797.279	96.33
797.456	97.96
797.632	101.65
797.809	108.49
797.986	106.53
798.162	107.88
798.339	113.15
798.516	117.14
798.692	117.21
798.869	122.12
799.046	137.34
799.222	135.67
799.399	131.73
799.575	132.52
799.752	121.96
799.928	118.07
800.105	115.75
800.281	116.47
800.458	114.14
800.634	112.11
800.811	112.12
800.987	112.83
801.163	111.97
801.34	115.62
801.516	108.19
801.692	113.37
801.869	114.53
802.045	116.81
802.221	107.27
802.398	106.08
802.574	108.14
802.75	110.75
802.926	106.1
803.103	109.37
803.279	109.73
803.455	113.54
803.631	116.19
803.807	121.36
803.983	126.18
804.16	137.37
804.336	142.7
804.512	143.74
804.688	150.24
804.864	155.02
805.04	150.42
805.216	146.6
805.392	151.89
805.568	150.35
805.744	145.45
805.92	138.08
806.096	133.72
806.272	134.78
806.448	132.62
806.623	128.39
806.799	126.82
806.975	128.07
807.151	132.34
807.327	132.27
807.503	130.46
807.678	130.77
807.854	140.44
808.03	137.84
808.206	141.01
808.381	136.99
808.557	125.24
808.733	121.8
808.908	120.11
809.084	118.62
809.26	116.6
809.435	120.38
809.611	120.55
809.787	109.93
809.962	117.11
810.138	118.41
810.313	124.69
810.489	129.13
810.664	132.64
810.84	127.48
811.015	125.49
811.191	130.98
811.366	130.58
811.542	135.68
811.717	143.83
811.892	137.62
812.068	133.68
812.243	139.63
812.419	138.49
812.594	139.38
812.769	146.95
812.944	149.96
813.12	143.47
813.295	142.68
813.47	134.81
813.645	135.88
813.821	140.76
813.996	145.13
814.171	144.2
814.346	150.75
814.521	145.58
814.697	148.93
814.872	145.74
815.047	145.38
815.222	138.42
815.397	140.73
815.572	141.51
815.747	138.71
815.922	125.93
816.097	119.23
816.272	114.65
816.447	108.87
816.622	105.14
816.797	104.84
816.972	105.52
817.147	104.24
817.322	104.88
817.496	103.6
817.671	102.27
817.846	108.31
818.021	111.97
818.196	112.08
818.371	115.85
818.545	116.39
818.72	116.84
818.895	114.33
819.069	113.17
819.244	111.2
819.419	107.6
819.594	100.44
819.768	92.4
819.943	83.16
820.117	78.37
820.292	75.53
820.467	71.89
820.641	66.74
820.816	62.69
820.99	61.24
821.165	58.44
821.339	55.04
821.514	53.75
821.688	52.2
821.863	50.63
822.037	49.37
822.212	48.41
822.386	47.43
822.56	46.71
822.735	46.28
822.909	46.06
823.084	45.75
823.258	45.89
823.432	46.22
823.606	47.46
823.781	49.86
823.955	51.24
824.129	52.13
824.303	54.4
824.478	55.88
824.652	57.88
824.826	59.73
825	60.76
825.174	63.37
825.348	63.27
825.523	63.21
825.697	63
825.871	62.64
826.045	62.45
826.219	62.36
826.393	62.85
826.567	62.03
826.741	60.76
826.915	61.89
827.089	61.73
827.263	64.22
827.437	64.99
827.611	65.53
827.784	69.28
827.958	71.92
828.132	72.25
828.306	73.55
828.48	76.8
828.654	80.22
828.827	81.83
829.001	85.01
829.175	85.93
829.349	89.59
829.522	92.54
829.696	92.52
829.87	93.37
830.044	99.97
830.217	104.23
830.391	108.71
830.565	110.6
830.738	116.65
830.912	115.99
831.085	117.98
831.259	115.21
831.432	119.97
831.606	127.8
831.779	130.1
831.953	123.52
832.126	119.5
832.3	113.94
832.473	107.61
832.647	106.57
832.82	102.95
832.994	101.55
833.167	94.85
833.34	91.91
833.514	85.02
833.687	80.76
833.86	78.67
834.034	80.58
834.207	80.97
834.38	81.31
834.553	80.09
834.727	82.2
834.9	83.2
835.073	90.55
835.246	91.04
835.419	94.22
835.593	98.72
835.766	102.53
835.939	100.7
836.112	106.46
836.285	112.1
836.458	114.12
836.631	115.49
836.804	118.36
836.977	118.23
837.15	123.33
837.323	123.37
837.496	128.27
837.669	139.05
837.842	146.05
838.015	146.05
838.188	146.01
838.361	148.57
838.533	144.77
838.706	158.54
838.879	158.27
839.052	155.62
839.225	173.41
839.398	174.31
839.57	160.32
839.743	162.7
839.916	159.3
840.088	145.3
840.261	152.37
840.434	163.67
840.607	152.18
840.779	162.78
840.952	163.92
841.124	154.6
841.297	161.92
841.47	170.98
841.642	170
841.815	177.32
841.987	209.92
842.16	199.78
842.332	209.53
842.505	217.88
842.677	199.92
842.85	234.58
843.022	241.25
843.194	248.91
843.367	248.76
843.539	243.07
843.712	210.58
843.884	197.88
844.056	222.26
844.229	209.07
844.401	221.56
844.573	227.65
844.745	223.11
844.918	226.5
845.09	221.49
845.262	241.49
845.434	249.53
845.606	278.68
845.779	278.52
845.951	275.89
846.123	252.16
846.295	259.97
846.467	264.25
846.639	241.62
846.811	252.1
846.983	239.29
847.155	245.96
847.327	223.92
847.499	243.57
847.671	298.04
847.843	284.11
848.015	426.04
848.187	377.12
848.359	370.81
848.531	393.53
848.703	384.47
848.875	511.45
849.047	450.45
849.218	592.46
849.39	549.34
849.562	434.82
849.734	422.42
849.905	317.47
850.077	374
850.249	514.53
850.421	606.98
850.592	534.12
850.764	440
850.936	454.81
851.107	476.85
851.279	537.47
851.451	428.22
851.622	382.57
851.794	342.86
851.965	304.69
852.137	278.09
852.308	271.46
852.48	272.22
852.651	258.97
852.823	250.41
852.994	243.02
853.166	226.63
853.337	252.63
853.509	287.18
853.68	383.88
853.851	376.62
854.023	460.49
854.194	419.02
854.365	484.66
854.537	495.19
854.708	738.92
854.879	1288.72
855.05	1103.69
855.222	939.13
855.393	586.03
855.564	638.95
855.735	580.37
855.906	426.14
856.078	490.54
856.249	563.6
856.42	515.93
856.591	440.46
856.762	424.07
856.933	539.85
857.104	605.13
857.275	683.78
857.446	421.32
857.617	420.25
857.788	438.11
857.959	370.05
858.13	311.2
858.301	363.02
858.472	409.12
858.643	426.67
858.814	490.07
858.985	455.15
859.155	450.92
859.326	600.45
859.497	599.77
859.668	534.65
859.839	932.22
860.009	618.76
860.18	429.36
860.351	360.05
860.522	333.92
860.692	260.66
860.863	265.47
861.034	274.04
861.204	242.52
861.375	265.34
861.546	261.8
861.716	225.92
861.887	257.54
862.057	340.19
862.228	290.72
862.398	305.53
862.569	314.74
862.739	326.7
862.91	301.17
863.08	407.48
863.251	401.33
863.421	440.04
863.592	415.36
863.762	445.24
863.932	348.67
864.103	443.37
864.273	388.27
864.443	434.59
864.614	369.14
864.784	414.92
864.954	375.31
865.125	388.12
865.295	423.42
865.465	451.24
865.635	509.59
865.805	509.3
865.976	472.65
866.146	519.93
866.316	598.03
866.486	895.3
866.656	597.63
866.826	606.35
866.996	509.35
867.166	457.79
867.336	425.5
867.506	334.62
867.676	337.9
867.846	327.22
868.016	346.08
868.186	312.04
868.356	264.82
868.526	298
868.696	304.61
868.866	348.57
869.036	342.54
869.206	330.5
869.376	374.89
869.545	352.36
869.715	399.38
869.885	408.06
870.055	435.53
870.224	530.98
870.394	744.41
870.564	596.42
870.734	619.2
870.903	542.13
871.073	611.91
871.243	478.4
871.412	509.57
871.582	412.27
871.751	406.21
871.921	410.56
872.091	384.1
872.26	347.41
872.43	261.3
872.599	271.11
872.769	315.75
872.938	310.68
873.108	429.27
873.277	455.66
873.446	581.06
873.616	532.71
873.785	575.33
873.955	740.7
874.124	558.96
874.293	1526.67
874.463	1638.32
874.632	2000
874.801	2278.99
874.971	684.95
875.14	703.16
875.309	459.45
875.478	426.64
875.647	441.89
875.817	367.71
875.986	425.7
876.155	425.16
876.324	438.93
876.493	422.73
876.662	383.58
876.831	436.83
877	406.94
877.17	483.66
877.339	580.25
877.508	398.36
877.677	413.56
877.846	445.04
878.015	377.52
878.184	314.27
878.352	290.71
878.521	289.88
878.69	300.21
878.859	270.38
879.028	279.67
879.197	256.77
879.366	299
879.534	279.45
879.703	261.41
879.872	237.82
880.041	243.98
880.21	221.64
880.378	209.43
880.547	188.21
880.716	178.76
880.884	164.45
881.053	147.24
881.222	133.7
881.39	122.89
881.559	107.21
881.727	101.49
881.896	97.2
882.065	88.65
882.233	85.46
882.402	81.71
882.57	81.33
882.739	78.21
882.907	79.44
883.076	80.84
883.244	82.58
883.412	86.43
883.581	88.21
883.749	92.69
883.918	100.84
884.086	103
884.254	107.1
884.423	112.83
884.591	122.04
884.759	118.73
884.927	118.25
885.096	124.26
885.264	131.11
885.432	143.09
885.6	148.79
885.769	158.1
885.937	174.6
886.105	171.96
886.273	168.54
886.441	171.67
886.609	198.14
886.777	217.35
886.945	247.2
887.113	248.57
887.281	269.2
887.449	263.69
887.617	266.26
887.785	299.05
887.953	309.05
888.121	319.33
888.289	330.17
888.457	404.59
888.625	507.03
888.793	382.78
888.961	406.46
889.129	299.25
889.296	315.66
889.464	331.65
889.632	268.38
889.8	302.66
889.967	311.99
890.135	335.98
