Data from JASIL_3076_Reflection_02.txt Node
Date: Mon Nov 09 11:46:38 EST 2015
User: Geneva
Spectrometer: USB4E03002
Autoset integration time: false
Trigger mode: 4
Integration Time (sec): 1.000000E-1
Scans to average: 10
Electric dark correction enabled: false
Nonlinearity correction enabled: false
Boxcar width: 5
Stray light correction enabled: false
XAxis mode: Wavelengths
Stop averaging: false
Number of Pixels in Spectrum: 3648
>>>>>Begin Spectral Data<<<<<
177.575	-129.15
177.794	-86.27
178.014	-72.97
178.233	-81.28
178.452	-85.98
178.672	-97.27
178.891	-185.79
179.11	-121.97
179.33	-160.49
179.549	-187.27
179.768	-97.68
179.987	-171.18
180.207	-133.33
180.426	-636.36
180.645	-238.51
180.864	-250
181.084	-119.94
181.303	-10.02
181.522	-37.82
181.741	-46.45
181.96	-32.17
182.179	-53.16
182.398	-50.39
182.618	-82.76
182.837	-67.84
183.056	-65.69
183.275	-61.68
183.494	-212
183.713	-530.77
183.932	11900
184.151	1108.7
184.37	705.45
184.589	-557.14
184.808	488.24
185.027	-26500
185.246	-150.65
185.465	169.62
185.684	610.53
185.903	-55.56
186.122	162.64
186.341	291.3
186.56	460
186.779	223.33
186.998	219.61
187.216	182.07
187.435	127.84
187.654	256.25
187.873	57.58
188.092	19.9
188.311	-62
188.53	-1182.76
188.748	1704.55
188.967	-459
189.186	-233.06
189.405	-529.76
189.623	-386.41
189.842	-68.16
190.061	-46.05
190.28	-140.25
190.498	-240.86
190.717	-181.91
190.936	-282.61
191.154	-353.51
191.373	2685.71
191.592	1533.33
191.81	416.13
192.029	489.57
192.248	463.41
192.466	209.22
192.685	296.55
192.904	828.79
193.122	472.16
193.341	273.68
193.559	-401.69
193.778	6600
193.996	1123.68
194.215	-681.03
194.433	-185.44
194.652	519.05
194.87	-761.29
195.089	-254.74
195.307	-76.92
195.526	-53.69
195.744	-9.87
195.963	-29.95
196.181	19.48
196.399	22.98
196.618	24.57
196.836	11.52
197.055	11.62
197.273	31.27
197.491	17.12
197.71	-9.86
197.928	9.32
198.146	-16.15
198.365	-30.59
198.583	-158.97
198.801	-195.71
199.019	-657.69
199.238	-287.67
199.456	-776.84
199.674	-1007.79
199.892	-490.85
200.111	-1031.03
200.329	483.67
200.547	432.96
200.765	221.08
200.983	281.73
201.202	325.39
201.42	178.22
201.638	166.28
201.856	112.5
202.074	155.53
202.292	141.92
202.51	166.5
202.728	369.11
202.946	7916.67
203.165	-103.93
203.383	-82.72
203.601	-585.37
203.819	-137.04
204.037	-64.67
204.255	-45.77
204.473	-43.97
204.691	-49.76
204.909	-51.37
205.127	-20.93
205.345	-27.5
205.562	-104.12
205.78	-33.43
205.998	-4.66
206.216	11.42
206.434	16.59
206.652	17.31
206.87	-65.69
207.088	45.95
207.306	-32.69
207.523	-16.16
207.741	32.44
207.959	65.75
208.177	109.93
208.395	95.44
208.612	106.05
208.83	114.55
209.048	119.43
209.266	89.98
209.483	119.32
209.701	152.96
209.919	216.92
210.136	154.6
210.354	150.58
210.572	184.49
210.79	248.3
211.007	269.39
211.225	180.66
211.442	670.59
211.66	1097.5
211.878	680.88
212.095	-1500
212.313	21414.29
212.53	-3487.5
212.748	2465
212.966	480.9
213.183	338.35
213.401	329.07
213.618	525
213.836	365.93
214.053	501.61
214.271	512.42
214.488	169.89
214.705	226.94
214.923	535
215.14	-2100
215.358	-145.23
215.575	-63.66
215.793	-77.32
216.01	-54
216.227	-44.72
216.445	-15.98
216.662	-55.06
216.879	-81.64
217.097	-147.43
217.314	-245.3
217.531	1906.25
217.749	2606.67
217.966	298.67
218.183	110.38
218.4	-121.92
218.618	4.1
218.835	-60.31
219.052	-203.67
219.269	444.68
219.487	159.32
219.704	1178.26
219.921	-487.18
220.138	217.31
220.355	262.99
220.572	214.13
220.79	134.87
221.007	170.17
221.224	207.94
221.441	140.06
221.658	128.35
221.875	119.21
222.092	9.09
222.309	47.14
222.526	95.42
222.743	39.5
222.96	113.6
223.177	46.78
223.394	35.84
223.611	19.96
223.828	0.42
224.045	41.22
224.262	51.73
224.479	63.98
224.696	69.03
224.913	68.04
225.13	90.99
225.347	72.2
225.564	56.57
225.781	31.96
225.997	55.54
226.214	37.41
226.431	33.8
226.648	21.4
226.865	25.85
227.082	27.24
227.298	29.86
227.515	28.59
227.732	29.58
227.949	32.8
228.165	30.56
228.382	26.07
228.599	24.52
228.816	24.8
229.032	32.22
229.249	27.53
229.466	24.15
229.682	24.15
229.899	25.29
230.116	21.43
230.332	13.11
230.549	28.44
230.765	29.34
230.982	30.56
231.199	31.29
231.415	19.16
231.632	16.71
231.848	-1.77
232.065	-11.32
232.281	-14.6
232.498	-8.64
232.714	10.74
232.931	8.16
233.147	11.09
233.364	22.96
233.58	19.49
233.797	27.56
234.013	25.89
234.23	29.73
234.446	36.66
234.662	43.75
234.879	57.99
235.095	56.58
235.312	69.81
235.528	67.07
235.744	56.69
235.961	61.25
236.177	69.27
236.393	70.23
236.61	85.61
236.826	75.21
237.042	71.41
237.258	52.5
237.475	58.98
237.691	34.57
237.907	69.8
238.123	71.71
238.339	59.55
238.556	21.43
238.772	18.9
238.988	15.14
239.204	21.79
239.42	17.81
239.636	17.25
239.853	11.03
240.069	9.93
240.285	1.44
240.501	0.89
240.717	2.49
240.933	12.42
241.149	16.32
241.365	14.82
241.581	16.46
241.797	18.57
242.013	18.03
242.229	20.24
242.445	21.17
242.661	23.88
242.877	22.57
243.093	25.36
243.309	25.39
243.525	12.56
243.741	15.69
243.957	13.94
244.173	9.44
244.388	6.17
244.604	6.29
244.82	8.05
245.036	6.78
245.252	7.22
245.468	5.74
245.683	3.22
245.899	6.08
246.115	5.59
246.331	6.81
246.547	8.25
246.762	10.09
246.978	9.56
247.194	9.52
247.409	9.34
247.625	12.12
247.841	12.71
248.057	14.78
248.272	14.55
248.488	14.9
248.703	13.95
248.919	14.41
249.135	6.26
249.35	7.79
249.566	6.81
249.782	8.95
249.997	9.28
250.213	11.15
250.428	11.09
250.644	12.97
250.859	11.28
251.075	8.56
251.29	5.47
251.506	13.16
251.721	11.96
251.937	15.53
252.152	18.56
252.368	17.99
252.583	15.8
252.798	12.95
253.014	22.17
253.229	21.16
253.445	27.51
253.66	32.16
253.875	32.14
254.091	29.9
254.306	25.53
254.521	22.44
254.737	21.14
254.952	22.4
255.167	28.83
255.383	22.83
255.598	29.24
255.813	27.87
256.028	25.74
256.244	18.09
256.459	20.13
256.674	17.71
256.889	18.53
257.104	17.44
257.32	16.18
257.535	15.67
257.75	11.33
257.965	11.59
258.18	10.27
258.395	8.57
258.61	8.67
258.826	7.8
259.041	6.74
259.256	5.31
259.471	3.17
259.686	4.52
259.901	2
260.116	3.14
260.331	2.88
260.546	-0.7
260.761	1.05
260.976	5.01
261.191	4.39
261.406	4.16
261.621	7.49
261.836	12.44
262.05	9.95
262.265	15.43
262.48	15.31
262.695	14
262.91	18.79
263.125	15.91
263.34	13.62
263.555	20.34
263.769	25.67
263.984	20.54
264.199	19.88
264.414	17.59
264.629	12.94
264.843	18.09
265.058	12.84
265.273	14.34
265.488	17.12
265.702	17.48
265.917	16.34
266.132	13.55
266.346	16.27
266.561	11.67
266.776	9.29
266.99	10.64
267.205	3.97
267.42	7.48
267.634	5.48
267.849	-0.44
268.063	-3.53
268.278	-4.69
268.492	-3.07
268.707	-4.69
268.922	-1.17
269.136	4.05
269.351	3.05
269.565	7.48
269.78	7.44
269.994	6.41
270.209	9.72
270.423	9.33
270.637	8.99
270.852	8.01
271.066	8.33
271.281	7.02
271.495	7.7
271.709	7.78
271.924	6.26
272.138	6.96
272.353	8.25
272.567	8.7
272.781	9.93
272.996	9.16
273.21	9.45
273.424	7.75
273.638	8.07
273.853	6.07
274.067	4.02
274.281	2.54
274.495	-2.05
274.71	-4.37
274.924	0.17
275.138	-1.69
275.352	-0.45
275.566	2.06
275.781	4.51
275.995	6.01
276.209	7.19
276.423	7.61
276.637	9.56
276.851	9.89
277.065	13.48
277.279	13.09
277.493	14.23
277.707	11.81
277.921	9.88
278.135	14.18
278.349	14.56
278.563	13.27
278.777	15.14
278.991	15.26
279.205	17.05
279.419	15.41
279.633	12.55
279.847	12.79
280.061	16.87
280.275	16.89
280.489	13.92
280.703	12.7
280.917	7.86
281.131	6.54
281.344	7.52
281.558	6.59
281.772	6.95
281.986	7.18
282.2	5.44
282.414	2.4
282.627	5.34
282.841	4.8
283.055	5.13
283.269	10.36
283.482	12.52
283.696	10.61
283.91	8.73
284.123	7.33
284.337	6.37
284.551	5.06
284.764	5.78
284.978	3.35
285.192	1.86
285.405	0.17
285.619	-1.58
285.833	-5.23
286.046	-4.45
286.26	-1.82
286.473	-2.35
286.687	0
286.9	0.15
287.114	-0.76
287.327	-2.21
287.541	-2.11
287.754	1.05
287.968	4.69
288.181	4.41
288.395	6.01
288.608	6.59
288.822	5.38
289.035	3.62
289.248	5.04
289.462	5
289.675	6.29
289.889	8.6
290.102	5.18
290.315	0.89
290.529	2.84
290.742	2.66
290.955	4.29
291.169	8.65
291.382	9.2
291.595	10.63
291.808	11.51
292.022	9.48
292.235	6.89
292.448	12.38
292.661	12.55
292.875	11.34
293.088	6.19
293.301	3.32
293.514	2.54
293.727	1.98
293.94	1.42
294.153	1.86
294.367	3.84
294.58	4.52
294.793	2.16
295.006	3.7
295.219	4.29
295.432	7.11
295.645	7.31
295.858	5.55
296.071	7.02
296.284	7.18
296.497	9.31
296.71	9.7
296.923	9.25
297.136	8.43
297.349	9.79
297.562	9.93
297.775	9.07
297.988	8.38
298.201	9.54
298.414	8.73
298.626	8.66
298.839	6.25
299.052	5.7
299.265	6.86
299.478	6.95
299.691	3.5
299.903	4.33
300.116	5.78
300.329	7.75
300.542	8.2
300.755	8.22
300.967	6.02
301.18	4.94
301.393	8.33
301.605	7.95
301.818	9.35
302.031	10.24
302.243	9.15
302.456	9.79
302.669	7.44
302.881	4.98
303.094	4.47
303.307	6.97
303.519	6.76
303.732	3.74
303.944	4.38
304.157	2.58
304.37	2.6
304.582	4.16
304.795	3.5
305.007	4.32
305.22	2.92
305.432	2.36
305.645	2.43
305.857	4.2
306.069	1.89
306.282	2.44
306.494	4.54
306.707	6.54
306.919	5.89
307.132	6.21
307.344	7.1
307.556	9.01
307.769	8.09
307.981	6.74
308.193	4.09
308.406	4.91
308.618	4.51
308.83	1.91
309.043	2.29
309.255	3.66
309.467	1.73
309.679	2.3
309.892	3.69
310.104	4.84
310.316	5.85
310.528	5.91
310.74	6.55
310.953	7.94
311.165	9.52
311.377	8.9
311.589	7.92
311.801	8.22
312.013	8.98
312.225	10
312.437	10.13
312.649	8.14
312.862	10.85
313.074	11.33
313.286	8.09
313.498	7.23
313.71	7.12
313.922	6.61
314.134	9.54
314.346	7.39
314.558	8.56
314.77	9.74
314.982	12.68
315.193	12.52
315.405	10.3
315.617	10.24
315.829	10.1
316.041	6.57
316.253	6.45
316.465	5.15
316.677	9.16
316.888	5.98
317.1	1.82
317.312	1.41
317.524	-1.44
317.736	1.65
317.947	2.33
318.159	2.23
318.371	6.02
318.583	4.09
318.794	3.82
319.006	1.44
319.218	-0.1
319.43	3.02
319.641	3.4
319.853	5.26
320.064	5.41
320.276	7.75
320.488	7.4
320.699	7.12
320.911	6.47
321.123	4.25
321.334	5.7
321.546	4.81
321.757	6.35
321.969	7.02
322.18	7.06
322.392	7.11
322.603	4.84
322.815	4.31
323.026	3.19
323.238	5.64
323.449	5.93
323.661	6.43
323.872	8.15
324.083	8.14
324.295	7.16
324.506	6.39
324.718	5.14
324.929	8.89
325.14	12.38
325.352	14.4
325.563	13.66
325.774	14.57
325.986	13.37
326.197	12.14
326.408	10.25
326.62	9.32
326.831	10.51
327.042	10.1
327.253	5.18
327.464	2.17
327.676	-0.5
327.887	0.49
328.098	-0.33
328.309	-1.96
328.52	0.42
328.732	1.98
328.943	4.33
329.154	4.57
329.365	6.93
329.576	9.65
329.787	12.16
329.998	12.81
330.209	13.8
330.42	16.65
330.631	17.28
330.842	15.81
331.053	15.63
331.264	14.61
331.475	12.93
331.686	13.61
331.897	14.57
332.108	12.4
332.319	14.91
332.53	13.07
332.741	13.1
332.952	13.97
333.163	17.77
333.374	17.37
333.585	17.42
333.795	18.97
334.006	18.1
334.217	14.74
334.428	16.23
334.639	16.09
334.849	18.21
335.06	16.49
335.271	17.6
335.482	16.53
335.692	14.44
335.903	15.14
336.114	14.34
336.325	13.58
336.535	16.31
336.746	15.9
336.957	14.33
337.167	12.53
337.378	13.11
337.589	11.44
337.799	10.04
338.01	13.26
338.22	11.72
338.431	13.19
338.642	12.12
338.852	11.78
339.063	10.69
339.273	10.54
339.484	12.59
339.694	12.26
339.905	14.92
340.115	15.11
340.326	15.46
340.536	14.91
340.746	13.41
340.957	13.12
341.167	11.45
341.378	13.06
341.588	12.89
341.799	12.34
342.009	12.93
342.219	10.29
342.43	10.31
342.64	8.99
342.85	8.66
343.061	9.94
343.271	12.58
343.481	13.3
343.691	12.26
343.902	13.19
344.112	12.66
344.322	13.05
344.532	12.01
344.743	11.86
344.953	12.21
345.163	16.14
345.373	15.52
345.583	13.43
345.793	13.88
346.004	12.95
346.214	15.14
346.424	16.15
346.634	15.72
346.844	17
347.054	16.7
347.264	17.11
347.474	14.52
347.684	15.08
347.894	16.11
348.104	16.58
348.314	15.57
348.524	11.4
348.734	12.14
348.944	10.25
349.154	9.45
349.364	7.78
349.574	7.68
349.784	6.09
349.994	7.42
350.204	8.16
350.413	6.83
350.623	8.14
350.833	9.26
351.043	8.38
351.253	10.62
351.463	10.91
351.672	11.23
351.882	9.4
352.092	11.4
352.302	10.59
352.511	9.35
352.721	10.76
352.931	12.1
353.141	13.32
353.35	12.87
353.56	11.89
353.77	12.22
353.979	12.48
354.189	12.25
354.399	11.13
354.608	10.58
354.818	11.1
355.027	9.64
355.237	10.19
355.447	7.97
355.656	6.29
355.866	5.8
356.075	4.93
356.285	6.35
356.494	6.65
356.704	7.34
356.913	6.65
357.123	8.19
357.332	9.23
357.542	7.57
357.751	9.04
357.96	11.36
358.17	11.97
358.379	12.58
358.589	10.75
358.798	11
359.007	8.73
359.217	9.1
359.426	8.47
359.635	8.3
359.845	8.05
360.054	8.37
360.263	8
360.472	7.74
360.682	8.31
360.891	8.67
361.1	8.3
361.309	11.29
361.519	11.3
361.728	10.77
361.937	10.95
362.146	12.61
362.355	13.26
362.564	13.57
362.774	13.21
362.983	12.34
363.192	12.31
363.401	13.09
363.61	10.76
363.819	10.99
364.028	10.03
364.237	9.61
364.446	8.47
364.655	5.21
364.864	6.19
365.073	5.91
365.282	5.84
365.491	6.09
365.7	5
365.909	6.78
366.118	6.17
366.327	7.98
366.536	8.68
366.745	8.59
366.954	11.92
367.162	10.83
367.371	12.05
367.58	13.51
367.789	14.3
367.998	14.5
368.207	12.99
368.415	12.91
368.624	12.48
368.833	11.93
369.042	11.18
369.25	10.04
369.459	9.49
369.668	9.5
369.877	9.2
370.085	7.67
370.294	8.54
370.503	9.52
370.711	10.81
370.92	10.89
371.129	11.56
371.337	12.56
371.546	11.55
371.754	9.99
371.963	9.45
372.171	9.6
372.38	9.65
372.589	8.97
372.797	8.48
373.006	7.28
373.214	5.73
373.423	4.63
373.631	4.84
373.84	5.61
374.048	6.8
374.256	6.75
374.465	5.74
374.673	6
374.882	6.67
375.09	7.58
375.298	7.97
375.507	8.88
375.715	9.49
375.923	9.19
376.132	10.26
376.34	10.4
376.548	11.29
376.757	11.16
376.965	11.4
377.173	11.35
377.381	10.15
377.59	9.58
377.798	9.55
378.006	10.01
378.214	10.37
378.423	8.97
378.631	7.79
378.839	6.82
379.047	6.2
379.255	6.16
379.463	6.76
379.671	7.23
379.879	7.98
380.088	8.53
380.296	7.9
380.504	8.18
380.712	7.98
380.92	8.67
381.128	7.96
381.336	10.04
381.544	10.8
381.752	9.96
381.96	8.69
382.168	7.74
382.376	6.67
382.584	6.55
382.791	5.89
382.999	6.28
383.207	6.14
383.415	6.35
383.623	6.07
383.831	5.9
384.039	6.98
384.247	8.07
384.454	8.81
384.662	9.66
384.87	9.46
385.078	8.8
385.285	8.3
385.493	10.02
385.701	10.98
385.909	10.35
386.116	10.02
386.324	9.31
386.532	9.33
386.739	8.54
386.947	9.64
387.155	10.65
387.362	11.36
387.57	11.07
387.778	10.63
387.985	9.77
388.193	10.96
388.4	12.52
388.608	12.67
388.816	11.82
389.023	10.66
389.231	9.34
389.438	8.24
389.646	8.28
389.853	9.35
390.061	9.07
390.268	9.81
390.475	8.12
390.683	7.35
390.89	7.46
391.098	7.96
391.305	9.45
391.512	8.83
391.72	9.57
391.927	9
392.135	7
392.342	5.97
392.549	6.79
392.756	8.29
392.964	8.11
393.171	7.02
393.378	7.37
393.586	7.15
393.793	7.67
394	7.58
394.207	6.62
394.414	8.02
394.622	9.19
394.829	7.8
395.036	8.01
395.243	8.88
395.45	10.4
395.657	10.1
395.864	11.02
396.072	10.32
396.279	10.34
396.486	10.85
396.693	11.13
396.9	9.69
397.107	8.87
397.314	8.07
397.521	6.52
397.728	5.26
397.935	4.98
398.142	4.03
398.349	4.11
398.556	4.05
398.763	4.63
398.97	3.74
399.177	4.55
399.383	6.23
399.59	4.66
399.797	5.51
400.004	6.46
400.211	5.8
400.418	6.62
400.625	6.98
400.831	5.88
401.038	6.01
401.245	7.73
401.452	7.18
401.658	6.39
401.865	7.8
402.072	7.76
402.279	8.78
402.485	9.69
402.692	9.48
402.899	8.74
403.105	9.6
403.312	9.53
403.519	8.59
403.725	9.72
403.932	9.37
404.138	9.52
404.345	9.57
404.552	8.06
404.758	7.58
404.965	7.22
405.171	8.31
405.378	7.87
405.584	7.71
405.791	9.19
405.997	8.95
406.204	10.84
406.41	11.46
406.617	12.21
406.823	12.54
407.029	12.46
407.236	11.96
407.442	11.73
407.649	11.77
407.855	11.9
408.061	10.89
408.268	11
408.474	10.48
408.68	10
408.887	8.77
409.093	8.59
409.299	10.29
409.505	10.83
409.712	10.19
409.918	10.76
410.124	10.87
410.33	10.39
410.537	8.99
410.743	7.33
410.949	6.88
411.155	7.66
411.361	7.77
411.567	6.43
411.773	6.06
411.98	6.77
412.186	5.85
412.392	5.8
412.598	6.39
412.804	7.17
413.01	7.18
413.216	6.38
413.422	6.07
413.628	5.81
413.834	7.17
414.04	6.91
414.246	6.85
414.452	6.68
414.658	5.91
414.864	5.74
415.07	5.76
415.275	6.99
415.481	8.05
415.687	8.67
415.893	8.61
416.099	8.11
416.305	8.29
416.511	7.08
416.716	7.39
416.922	7.81
417.128	7.95
417.334	7.37
417.539	6.97
417.745	7.02
417.951	6.36
418.157	6.37
418.362	5.82
418.568	5.68
418.774	6.61
418.979	6.91
419.185	6.96
419.391	6.8
419.596	8.04
419.802	8.21
420.008	8.1
420.213	11.86
420.419	11.58
420.624	11.98
420.83	12.41
421.035	12.11
421.241	11.86
421.446	11.81
421.652	11.37
421.857	10.73
422.063	10.34
422.268	9.92
422.474	6.06
422.679	6.7
422.885	6.35
423.09	6.25
423.295	6.65
423.501	6.65
423.706	6.81
423.911	7.21
424.117	7.11
424.322	7.44
424.527	7.63
424.733	8
424.938	8.2
425.143	7.94
425.349	7.5
425.554	7.7
425.759	8.28
425.964	8.99
426.169	9.08
426.375	9.3
426.58	9.23
426.785	9.3
426.99	8.9
427.195	8.62
427.4	9.56
427.605	10.44
427.811	10.28
428.016	10.02
428.221	8.91
428.426	8.7
428.631	8.62
428.836	8.21
429.041	8.67
429.246	8.77
429.451	8.35
429.656	8.65
429.861	8.07
430.066	7.21
430.271	7.55
430.476	7.69
430.681	7.98
430.886	7.57
431.09	8.65
431.295	8.55
431.5	8.47
431.705	9.24
431.91	8.83
432.115	8.31
432.32	8.51
432.524	7.69
432.729	7.97
432.934	7.83
433.139	8.43
433.343	8.14
433.548	7.9
433.753	7.58
433.958	7.41
434.162	7.52
434.367	8.7
434.572	8.86
434.776	9.65
434.981	9.14
435.186	9.28
435.39	8.65
435.595	8.55
435.799	9.19
436.004	9.58
436.209	9.13
436.413	9.51
436.618	9.16
436.822	9.29
437.027	8.97
437.231	9.32
437.436	9.65
437.64	10.25
437.845	10.13
438.049	9.58
438.253	9.53
438.458	9.45
438.662	8.65
438.867	8.91
439.071	8.97
439.275	8.72
439.48	8.39
439.684	7.95
439.888	7.11
440.093	7.42
440.297	7.15
440.501	7.07
440.706	6.94
440.91	7.49
441.114	7.26
441.318	6.72
441.523	6.88
441.727	7.32
441.931	7.59
442.135	8.49
442.339	8.07
442.543	7.9
442.748	7.52
442.952	7.33
443.156	6.99
443.36	6.79
443.564	6.98
443.768	7.53
443.972	7.28
444.176	7.6
444.38	6.9
444.584	7.23
444.788	7.48
444.992	7.44
445.196	7.56
445.4	7.65
445.604	7.36
445.808	7.03
446.012	6.76
446.216	6.74
446.42	6.74
446.624	7.33
446.828	6.75
447.032	6.96
447.235	7.35
447.439	7.41
447.643	7.06
447.847	7.39
448.051	8.27
448.254	7.99
448.458	8.42
448.662	7.98
448.866	7.57
449.069	8.01
449.273	8.1
449.477	8.11
449.681	7.91
449.884	7.7
450.088	7.98
450.292	8.28
450.495	8.22
450.699	7.9
450.902	7.96
451.106	8.35
451.31	8.18
451.513	8.57
451.717	9.03
451.92	9.05
452.124	10.04
452.327	9.81
452.531	8.94
452.734	9.41
452.938	9.64
453.141	9.87
453.345	9.67
453.548	9.82
453.752	9.18
453.955	8.1
454.158	8.32
454.362	7.55
454.565	7.39
454.769	7.84
454.972	7.75
455.175	7.99
455.379	7.81
455.582	7.99
455.785	7.74
455.988	7.74
456.192	8.6
456.395	8.41
456.598	8.47
456.801	8.8
457.005	8.51
457.208	8.14
457.411	7.36
457.614	6.93
457.817	6.76
458.021	6.98
458.224	7.32
458.427	7.29
458.63	7.02
458.833	7.39
459.036	7.23
459.239	7.39
459.442	7.01
459.645	7.8
459.848	7.76
460.051	7.73
460.254	7.68
460.457	7.1
460.66	7.17
460.863	7.75
461.066	7.26
461.269	7.53
461.472	7.86
461.675	8.76
461.878	8.4
462.081	8.59
462.284	9.12
462.486	9.32
462.689	9.43
462.892	9.07
463.095	9.58
463.298	10.07
463.5	9.93
463.703	9.12
463.906	8.95
464.109	9.21
464.311	9.26
464.514	8.28
464.717	7.99
464.92	8.64
465.122	8.26
465.325	7.73
465.528	7.26
465.73	7.25
465.933	7.78
466.135	7.85
466.338	7.25
466.541	7.58
466.743	8.33
466.946	8.75
467.148	8.58
467.351	8.39
467.553	8.47
467.756	8.54
467.958	7.86
468.161	7.84
468.363	8.23
468.566	8.24
468.768	8.63
468.971	7.95
469.173	7.44
469.375	7.69
469.578	8.71
469.78	7.67
469.983	8
470.185	8.53
470.387	8.33
470.59	7.88
470.792	8.23
470.994	8.28
471.196	8.83
471.399	8.8
471.601	8.72
471.803	8.53
472.005	9.58
472.208	9.36
472.41	9.63
472.612	9.95
472.814	9.97
473.016	9.51
473.218	9.21
473.421	9.21
473.623	9.48
473.825	9
474.027	9.12
474.229	9.18
474.431	9.34
474.633	8.75
474.835	8.33
475.037	8.05
475.239	8
475.441	7.73
475.643	8.1
475.845	7.79
476.047	8.11
476.249	7.84
476.451	7.74
476.653	7.89
476.855	8.48
477.057	8.44
477.258	8.24
477.46	8.26
477.662	8.19
477.864	7.62
478.066	7.67
478.268	7.66
478.469	7.87
478.671	7.42
478.873	7.21
479.075	7.43
479.276	7.64
479.478	7.68
479.68	7.66
479.882	7.8
480.083	7.9
480.285	7.91
480.487	7.95
480.688	7.92
480.89	7.96
481.091	8.01
481.293	7.75
481.495	7.43
481.696	7.67
481.898	7.38
482.099	7.25
482.301	7.08
482.502	6.89
482.704	6.91
482.905	6.85
483.107	6.94
483.308	7.04
483.51	6.87
483.711	6.87
483.913	6.69
484.114	6.82
484.315	6.82
484.517	7.08
484.718	7.37
484.92	7.08
485.121	6.87
485.322	6.79
485.524	6.4
485.725	6.53
485.926	6.62
486.127	6.78
486.329	6.87
486.53	6.99
486.731	6.73
486.932	6.81
487.134	6.92
487.335	7.03
487.536	7.31
487.737	7.5
487.938	7.57
488.139	7.77
488.341	7.97
488.542	7.96
488.743	7.8
488.944	7.98
489.145	7.86
489.346	8
489.547	8.17
489.748	8.15
489.949	8.24
490.15	8.31
490.351	8.12
490.552	7.81
490.753	7.86
490.954	8.09
491.155	8.02
491.356	7.96
491.557	7.93
491.758	7.96
491.959	7.84
492.159	7.7
492.36	7.41
492.561	7.61
492.762	8.16
492.963	8.2
493.164	7.91
493.364	8.23
493.565	8.31
493.766	8.35
493.967	8.3
494.167	8.67
494.368	8.45
494.569	8.46
494.769	8.59
494.97	8.13
495.171	8.37
495.371	8.6
495.572	8.55
495.773	8.32
495.973	8.42
496.174	8.01
496.375	7.66
496.575	7.34
496.776	7.61
496.976	7.56
497.177	7.33
497.377	7.5
497.578	7.61
497.778	8
497.979	8.89
498.179	8.75
498.38	9.57
498.58	10.18
498.78	10.61
498.981	10.63
499.181	10.47
499.382	11.07
499.582	10.46
499.782	10.2
499.983	9.72
500.183	9.13
500.383	8.98
500.584	8.3
500.784	7.26
500.984	7.32
501.184	7.04
501.385	7.5
501.585	6.69
501.785	7.08
501.985	6.94
502.185	7.07
502.386	7.12
502.586	7.42
502.786	7.73
502.986	8.55
503.186	8.76
503.386	9.33
503.586	9.26
503.786	10.22
503.987	9.85
504.187	10.09
504.387	10.17
504.587	10.33
504.787	9.63
504.987	9.41
505.187	9.19
505.387	9.69
505.587	9.59
505.786	9.31
505.986	8.99
506.186	8.93
506.386	9.12
506.586	9.49
506.786	9.19
506.986	9.8
507.186	9.92
507.386	10.25
507.585	10.05
507.785	10.01
507.985	9.97
508.185	10.14
508.384	10.27
508.584	10.09
508.784	10.18
508.984	10.14
509.183	10.09
509.383	10.22
509.583	9.49
509.782	9.52
509.982	9.49
510.182	9.6
510.381	9.41
510.581	9.45
510.781	9.49
510.98	9.34
511.18	9.69
511.379	10.01
511.579	10.15
511.778	11
511.978	10.89
512.177	10.87
512.377	10.99
512.576	11.38
512.776	11.87
512.975	12.03
513.175	12.11
513.374	11.99
513.573	11.94
513.773	12.2
513.972	11.5
514.172	11.84
514.371	11.87
514.57	11.32
514.77	11.2
514.969	10.92
515.168	10.7
515.367	10.2
515.567	10.1
515.766	10.3
515.965	10.25
516.164	10.37
516.364	10.15
516.563	10.4
516.762	11.07
516.961	10.53
517.16	10.78
517.359	10.95
517.559	11.12
517.758	11.24
517.957	10.7
518.156	10.49
518.355	10.86
518.554	10.69
518.753	10.56
518.952	10.24
519.151	10.86
519.35	10.89
519.549	10.9
519.748	11.29
519.947	11.45
520.146	12.35
520.345	12.48
520.544	12.45
520.743	13.15
520.942	13.49
521.141	14.05
521.339	13.76
521.538	14.11
521.737	14.03
521.936	13.76
522.135	13.72
522.333	13.62
522.532	13.63
522.731	13.94
522.93	13.33
523.129	12.81
523.327	12.77
523.526	12.79
523.725	12.36
523.923	12.61
524.122	12.83
524.321	12.93
524.519	12.72
524.718	12.35
524.917	12.24
525.115	12.57
525.314	13.24
525.512	12.88
525.711	13.03
525.909	13.26
526.108	13.18
526.306	12.94
526.505	12.9
526.703	12.91
526.902	13.47
527.1	13.33
527.299	13.28
527.497	12.93
527.696	13.13
527.894	13.13
528.092	13.1
528.291	13.2
528.489	13.4
528.688	13.58
528.886	13.58
529.084	13.28
529.283	13.54
529.481	13.69
529.679	14.1
529.877	14
530.076	14.03
530.274	14.09
530.472	14.35
530.67	14.37
530.869	14.47
531.067	14.6
531.265	14.94
531.463	14.57
531.661	14.79
531.859	14.64
532.057	15
532.255	15.15
532.454	14.88
532.652	14.84
532.85	14.85
533.048	14.75
533.246	14.8
533.444	14.7
533.642	15
533.84	14.68
534.038	14.8
534.236	14.74
534.434	15.15
534.632	15.54
534.83	15.7
535.027	15.94
535.225	16.34
535.423	16.76
535.621	16.89
535.819	17.1
536.017	17.48
536.215	17.89
536.412	18
536.61	17.94
536.808	18.07
537.006	18
537.203	18.07
537.401	18.08
537.599	18
537.797	18.35
537.994	18.48
538.192	18.12
538.39	18.47
538.587	18.64
538.785	18.42
538.983	18.76
539.18	18.86
539.378	18.62
539.575	18.52
539.773	18.41
539.97	18.3
540.168	18.29
540.366	18.64
540.563	18.34
540.761	18.41
540.958	18.65
541.155	18.68
541.353	18.68
541.55	18.79
541.748	18.83
541.945	19.01
542.143	19.27
542.34	19.26
542.537	19.17
542.735	19.12
542.932	18.89
543.129	18.92
543.327	18.95
543.524	19.38
543.721	19.82
543.919	20.12
544.116	20.13
544.313	20.19
544.51	20.61
544.708	20.91
544.905	21.45
545.102	21.89
545.299	21.96
545.496	21.91
545.693	22.03
545.891	22.05
546.088	22.33
546.285	22.8
546.482	22.69
546.679	23.19
546.876	23.31
547.073	23.28
547.27	23.56
547.467	23.91
547.664	24.74
547.861	24.73
548.058	25.36
548.255	25.73
548.452	26.35
548.649	27.25
548.846	27.03
549.043	27.57
549.24	27.56
549.437	27.81
549.633	27.64
549.83	27.38
550.027	27.87
550.224	27.77
550.421	27.48
550.618	27.02
550.814	26.71
551.011	26.55
551.208	26.41
551.405	27.26
551.601	27.36
551.798	27.84
551.995	27.9
552.191	28.01
552.388	28.35
552.585	28.65
552.781	28.57
552.978	29.29
553.175	29.48
553.371	30.36
553.568	29.83
553.764	30.14
553.961	30.54
554.157	31.26
554.354	31.65
554.55	31.86
554.747	31.93
554.943	32.52
555.14	32.06
555.336	32.3
555.533	31.41
555.729	32.05
555.926	31.13
556.122	31.16
556.318	31.05
556.515	30.75
556.711	31.02
556.907	31.04
557.104	31.03
557.3	31.05
557.496	31.54
557.693	32.24
557.889	32.96
558.085	33.79
558.281	34.11
558.478	33.98
558.674	33.82
558.87	33.7
559.066	34.25
559.262	34
559.459	34.3
559.655	33.91
559.851	34.13
560.047	33.63
560.243	33.93
560.439	34.57
560.635	34.45
560.831	34.96
561.027	34.83
561.223	34.15
561.419	34.7
561.615	34.83
561.811	34.75
562.007	35.08
562.203	34.94
562.399	34.92
562.595	34.12
562.791	34.95
562.987	34.74
563.183	34.95
563.379	35.54
563.575	35.33
563.771	35.23
563.966	35.89
564.162	35.31
564.358	35.69
564.554	35.54
564.75	36.1
564.945	35.72
565.141	35.88
565.337	35.96
565.533	35.9
565.728	35.9
565.924	35.87
566.12	36.14
566.315	36.75
566.511	36.49
566.707	36.96
566.902	36.89
567.098	37.4
567.293	37.3
567.489	37.58
567.684	37.61
567.88	37.83
568.076	38.46
568.271	38.3
568.467	37.96
568.662	38.45
568.858	38.3
569.053	38.44
569.248	37.95
569.444	38.36
569.639	38.25
569.835	38.48
570.03	38.85
570.225	38.29
570.421	38.25
570.616	38.4
570.812	38.29
571.007	38.52
571.202	38.1
571.397	38.62
571.593	39.09
571.788	39.22
571.983	39.38
572.178	39.14
572.374	39.46
572.569	39.76
572.764	40.11
572.959	39.89
573.154	39.53
573.35	40.23
573.545	39.84
573.74	39.37
573.935	38.79
574.13	38.94
574.325	38.78
574.52	39.37
574.715	39.26
574.91	38.7
575.105	39.19
575.3	39.83
575.495	40.06
575.69	40.48
575.885	40.47
576.08	41.28
576.275	41.07
576.47	41.77
576.665	42.11
576.86	42.17
577.055	42.49
577.25	42.84
577.444	43.38
577.639	43.54
577.834	43.87
578.029	44.27
578.224	44.1
578.418	44.73
578.613	44.75
578.808	44.24
579.003	44.5
579.197	45.26
579.392	44.89
579.587	43.85
579.781	43.75
579.976	43.55
580.171	43.61
580.365	44.33
580.56	44.61
580.755	44.95
580.949	45.48
581.144	45.55
581.338	45.37
581.533	45.91
581.727	47.05
581.922	47.27
582.116	47.21
582.311	47.89
582.505	47.45
582.7	47.17
582.894	47.78
583.089	48.05
583.283	48.51
583.478	47.84
583.672	48.15
583.866	48.01
584.061	47.49
584.255	48.31
584.449	48.41
584.644	48.96
584.838	49.37
585.032	49.22
585.226	48.79
585.421	48.3
585.615	49.52
585.809	48.91
586.003	48.93
586.198	49.33
586.392	48.45
586.586	47.79
586.78	47.25
586.974	47.53
587.168	46.77
587.363	46.19
587.557	46.02
587.751	45.59
587.945	45.82
588.139	45.94
588.333	46
588.527	46.47
588.721	46.23
588.915	46.54
589.109	45.7
589.303	46.06
589.497	46.35
589.691	46.85
589.885	47.57
590.079	48.21
590.273	48.56
590.466	48.55
590.66	48.66
590.854	48.2
591.048	48.34
591.242	49.01
591.436	49.08
591.629	50.28
591.823	50.46
592.017	49.82
592.211	48.81
592.404	47.99
592.598	47.44
592.792	47.49
592.986	48.37
593.179	48.01
593.373	47.26
593.567	47.42
593.76	46.28
593.954	45.62
594.147	45.73
594.341	46
594.535	45.94
594.728	46.25
594.922	46.13
595.115	45.97
595.309	45.9
595.502	46.3
595.696	45.97
595.889	45.93
596.083	46.28
596.276	46.35
596.47	46.62
596.663	46.86
596.856	47.26
597.05	47.65
597.243	48.73
597.437	49.26
597.63	49.47
597.823	49.79
598.017	51.18
598.21	52.05
598.403	52.36
598.596	53.15
598.79	53.76
598.983	53.69
599.176	53.46
599.369	52.44
599.563	51.83
599.756	52.05
599.949	52.84
600.142	52.58
600.335	52.01
600.528	51.44
600.722	50.11
600.915	50.18
601.108	50.26
601.301	50.68
601.494	50.95
601.687	51.14
601.88	51.48
602.073	51.34
602.266	50.65
602.459	50.3
602.652	50.59
602.845	51.42
603.038	50.87
603.231	50.81
603.424	50.7
603.617	50.96
603.809	51.21
604.002	50.75
604.195	51.05
604.388	51.46
604.581	52.68
604.774	52.81
604.966	53.34
605.159	53.8
605.352	53.83
605.545	53.8
605.737	54
605.93	54.45
606.123	54.53
606.316	54.01
606.508	54.46
606.701	53.25
606.894	53.19
607.086	52.44
607.279	52.54
607.471	52.34
607.664	52.54
607.857	52.53
608.049	53.11
608.242	53.27
608.434	53.13
608.627	53.12
608.819	53.6
609.012	53.18
609.204	53.35
609.397	53.36
609.589	53.52
609.782	53.14
609.974	52.47
610.166	51.56
610.359	51.89
610.551	52.17
610.743	51.66
610.936	51.5
611.128	53.29
611.32	53.03
611.513	52.64
611.705	54.02
611.897	55.28
612.09	56.48
612.282	57.35
612.474	57.64
612.666	58.74
612.858	59.8
613.051	59.5
613.243	58.37
613.435	58.94
613.627	59.53
613.819	58.19
614.011	58.07
614.203	58.38
614.395	58.06
614.588	57.74
614.78	57.13
614.972	57.07
615.164	57.97
615.356	58.87
615.548	58.71
615.74	59.29
615.932	59.29
616.124	59.37
616.315	59.24
616.507	58.97
616.699	59.5
616.891	60.07
617.083	59.72
617.275	60.59
617.467	60.78
617.659	60.53
617.85	60.45
618.042	61.29
618.234	60.76
618.426	60.25
618.618	60.59
618.809	59.98
619.001	59.54
619.193	59.63
619.384	58.75
619.576	58.33
619.768	58.82
619.959	58.39
620.151	58.49
620.343	57.47
620.534	57.4
620.726	58.06
620.917	58.79
621.109	59.34
621.301	58.85
621.492	59.52
621.684	58.88
621.875	58.77
622.067	59.11
622.258	59.19
622.45	60.54
622.641	61.94
622.832	61.87
623.024	61.71
623.215	60.47
623.407	60.71
623.598	59.31
623.789	60.07
623.981	59.94
624.172	59.55
624.363	58.86
624.555	57.87
624.746	56.53
624.937	56.35
625.129	55.92
625.32	56
625.511	55.43
625.702	55.36
625.893	55.02
626.085	55.2
626.276	55.2
626.467	55.31
626.658	55.81
626.849	55.97
627.04	55.69
627.231	56.18
627.422	56.32
627.614	57.17
627.805	58.28
627.996	57.92
628.187	57.97
628.378	58.45
628.569	58.94
628.76	58.43
628.951	58.2
629.142	58.15
629.332	58.62
629.523	58.98
629.714	58.24
629.905	57.49
630.096	58.09
630.287	58.58
630.478	57.43
630.669	57.54
630.859	58.3
631.05	59.23
631.241	59.7
631.432	59.24
631.623	59.62
631.813	60.01
632.004	59.88
632.195	59.87
632.385	59.39
632.576	60.09
632.767	59.68
632.957	59.71
633.148	59.68
633.339	59.29
633.529	59.26
633.72	58.7
633.91	59.17
634.101	60.42
634.292	60.74
634.482	61.61
634.673	62.63
634.863	63.68
635.054	63.8
635.244	64.28
635.435	65.55
635.625	65.4
635.815	65.97
636.006	65.73
636.196	65.21
636.387	65.18
636.577	63.91
636.767	63.47
636.958	63.12
637.148	63.74
637.338	62.31
637.529	61.99
637.719	62.84
637.909	62.45
638.099	62.35
638.29	63.09
638.48	62.91
638.67	64.34
638.86	64.69
639.05	64.17
639.241	63.68
639.431	65.89
639.621	65.56
639.811	65.45
640.001	66.27
640.191	65.58
640.381	64.95
640.571	64.53
640.761	64.8
640.951	64.77
641.141	65.44
641.331	65.27
641.521	64.31
641.711	64.72
641.901	62.9
642.091	63.19
642.281	64.37
642.471	64.01
642.661	65.02
642.851	63.94
643.041	63.36
643.231	64.12
643.42	64.71
643.61	65.35
643.8	64.59
643.99	64.7
644.18	63.22
644.369	63.28
644.559	63.62
644.749	63.63
644.939	64.03
645.128	64.93
645.318	64.05
645.508	63.75
645.697	63.09
645.887	62.81
646.076	64.02
646.266	64.42
646.456	63.8
646.645	64.58
646.835	63.51
647.024	63.56
647.214	62.45
647.403	61.13
647.593	61.28
647.782	60.26
647.972	60.1
648.161	60.55
648.351	61.12
648.54	61.48
648.73	60.25
648.919	61.24
649.108	59.75
649.298	60.06
649.487	62.64
649.677	62.57
649.866	62.82
650.055	62.71
650.244	62.33
650.434	62.55
650.623	62.71
650.812	62.89
651.002	63.25
651.191	64.45
651.38	63.79
651.569	63.89
651.758	63.82
651.947	64.57
652.137	65.64
652.326	66.51
652.515	65.25
652.704	64.79
652.893	66.29
653.082	65.47
653.271	65.69
653.46	67.41
653.649	65.85
653.838	66.47
654.027	65.56
654.216	64.14
654.405	63.08
654.594	64.4
654.783	63.82
654.972	63.39
655.161	64.41
655.35	64.13
655.539	63.68
655.728	63.42
655.916	62.34
656.105	63.03
656.294	64.26
656.483	64.23
656.672	64.2
656.86	64.97
657.049	63.85
657.238	62.48
657.427	62.36
657.615	62.81
657.804	62.94
657.993	62.49
658.181	61.83
658.37	61.17
658.559	60.91
658.747	61.53
658.936	62.06
659.125	63.3
659.313	64.53
659.502	64.79
659.69	63.18
659.879	63.33
660.067	64.24
660.256	64.73
660.444	65.88
660.633	65.32
660.821	64.82
661.01	63.92
661.198	63.08
661.387	62.67
661.575	64.37
661.763	65.3
661.952	64.9
662.14	64.71
662.328	64.24
662.517	65.43
662.705	66.78
662.893	67.07
663.082	67.93
663.27	69.71
663.458	70.97
663.646	69.83
663.834	71.68
664.023	71.56
664.211	72.85
664.399	74.41
664.587	73.85
664.775	74.48
664.963	73.22
665.152	74.02
665.34	71.59
665.528	71.18
665.716	72.42
665.904	70.67
666.092	71.99
666.28	72.71
666.468	72.26
666.656	71.87
666.844	71.07
667.032	70.84
667.22	68.95
667.408	70.01
667.596	69.66
667.784	69.59
667.971	70.55
668.159	70.56
668.347	68.63
668.535	69.35
668.723	68.81
668.911	68.97
669.098	70.14
669.286	71.61
669.474	70.89
669.662	69.58
669.849	69.6
670.037	70.44
670.225	71.03
670.413	71.88
670.6	70.55
670.788	70.36
670.976	71.82
671.163	71.66
671.351	71.17
671.538	72.29
671.726	72.74
671.913	71.92
672.101	70.37
672.289	69.67
672.476	68.71
672.664	69.07
672.851	70.1
673.039	70.65
673.226	71.22
673.413	72.04
673.601	72.08
673.788	73.05
673.976	73.47
674.163	73.8
674.35	73.95
674.538	74.25
674.725	74.88
674.912	74.51
675.1	73.54
675.287	73.08
675.474	72.4
675.662	71.75
675.849	73.4
676.036	73.86
676.223	73.99
676.411	74.27
676.598	75.1
676.785	76.38
676.972	76.56
677.159	76.23
677.346	76.86
677.533	77.14
677.721	76.87
677.908	75.27
678.095	74.78
678.282	74.6
678.469	73.89
678.656	73.26
678.843	71.98
679.03	70.39
679.217	70.49
679.404	69.47
679.591	68.88
679.778	68.75
679.964	68.33
680.151	68.36
680.338	67.95
680.525	68.4
680.712	67.92
680.899	68.36
681.086	69.48
681.272	70.1
681.459	70.11
681.646	70.67
681.833	71.38
682.02	71.98
682.206	71.08
682.393	71.14
682.58	70.22
682.766	70.33
682.953	70.69
683.14	71.59
683.326	70.79
683.513	71.3
683.7	70.56
683.886	70.27
684.073	69.43
684.259	70
684.446	71.43
684.632	70.28
684.819	72.33
685.005	71.12
685.192	70.08
685.378	70.08
685.565	70.61
685.751	70.57
685.938	69.06
686.124	70.02
686.31	69.08
686.497	66.77
686.683	67.86
686.87	65.7
687.056	66.24
687.242	67.07
687.429	68.19
687.615	69.28
687.801	69.12
687.987	72.03
688.174	71.15
688.36	72.47
688.546	75.12
688.732	76.14
688.918	76.66
689.105	75.13
689.291	74.73
689.477	74.28
689.663	72.48
689.849	73.07
690.035	73.23
690.221	73.7
690.407	74.78
690.593	73.43
690.779	73.72
690.965	73.94
691.151	76.89
691.337	77.37
691.523	75.62
691.709	75.3
691.895	75.13
692.081	74.97
692.267	75.17
692.453	74.54
692.639	73.89
692.825	71.92
693.011	72.85
693.196	71.19
693.382	69.42
693.568	71.25
693.754	71.12
693.94	71.91
694.125	70.34
694.311	69.59
694.497	69.08
694.682	68.94
694.868	70.69
695.054	72.97
695.239	73.43
695.425	73.4
695.611	71.32
695.796	71.46
695.982	71.08
696.168	69.53
696.353	69.48
696.539	68.1
696.724	69.68
696.91	67
697.095	64.54
697.281	62.83
697.466	63.22
697.652	63.18
697.837	62.14
698.023	60.41
698.208	61.72
698.393	62.33
698.579	63.12
698.764	62.51
698.949	64.09
699.135	64.67
699.32	65.89
699.505	66.98
699.691	69.1
699.876	71.62
700.061	74.01
700.246	74.33
700.432	73.61
700.617	74.21
700.802	74.77
700.987	75.86
701.172	75.73
701.358	75.37
701.543	74.7
701.728	74.08
701.913	74.68
702.098	76.65
702.283	76.96
702.468	78.14
702.653	77.37
702.838	78.24
703.023	80.38
703.208	79.2
703.393	80.7
703.578	81.44
703.763	81.79
703.948	80.35
704.133	77.88
704.318	80.34
704.503	80.64
704.688	82.48
704.873	81.24
705.057	79.54
705.242	83.6
705.427	84.09
705.612	84.52
705.797	84.03
705.981	84.3
706.166	85.56
706.351	83.04
706.536	82.76
706.72	80.68
706.905	80.5
707.09	79.64
707.274	77.92
707.459	77.42
707.644	77.1
707.828	78.32
708.013	78.78
708.197	78.56
708.382	78.76
708.567	78.02
708.751	79.32
708.936	79.96
709.12	81.31
709.305	80.46
709.489	80.31
709.673	79.31
709.858	79.41
710.042	78.66
710.227	79.49
710.411	80.02
710.596	81.78
710.78	79.69
710.964	79.73
711.149	78.31
711.333	80.46
711.517	80.46
711.702	80.3
711.886	78.47
712.07	77.04
712.254	76.28
712.438	74.54
712.623	73.69
712.807	75.48
712.991	75.32
713.175	76.4
713.359	74.3
713.544	76.47
713.728	76.01
713.912	77.62
714.096	79.77
714.28	78.07
714.464	77.19
714.648	74.09
714.832	71.23
715.016	69.38
715.2	67.56
715.384	68.21
715.568	66.8
715.752	66.49
715.936	63.95
716.12	63.52
716.304	63.58
716.488	65.13
716.671	64.46
716.855	68.42
717.039	68.79
717.223	69.29
717.407	69.21
717.59	66.5
717.774	69.03
717.958	71.65
718.142	70.86
718.325	72.58
718.509	72.89
718.693	76.07
718.877	71.97
719.06	72.94
719.244	73.59
719.428	73.72
719.611	76.77
719.795	75.79
719.978	77.02
720.162	76.35
720.345	78.62
720.529	75.63
720.713	77.65
720.896	81.8
721.08	82.68
721.263	80.94
721.446	80.07
721.63	79.63
721.813	79.88
721.997	76.78
722.18	78.55
722.364	76.58
722.547	77.77
722.73	75.56
722.914	74.53
723.097	72.8
723.28	75.09
723.464	77.19
723.647	77.34
723.83	74.75
724.013	76.42
724.197	76.56
724.38	75.51
724.563	77.68
724.746	78.49
724.929	74.91
725.112	75.22
725.296	76.2
725.479	71.65
725.662	70.26
725.845	72.54
726.028	71.1
726.211	71.98
726.394	74.32
726.577	72.5
726.76	73.4
726.943	76.97
727.126	79.37
727.309	75.1
727.492	79.57
727.675	82.32
727.858	82.56
728.041	82.68
728.224	82.85
728.407	80.02
728.589	81.91
728.772	81
728.955	81.96
729.138	81.17
729.321	84.45
729.503	82.99
729.686	79.04
729.869	76.53
730.052	77.06
730.234	78.88
730.417	78.24
730.6	79.98
730.782	81.8
730.965	80.44
731.148	80.95
731.33	81.33
731.513	81.65
731.695	85.15
731.878	89.17
732.061	89.26
732.243	90.29
732.426	93.14
732.608	89.97
732.791	91.02
732.973	92.25
733.156	92.36
733.338	90.05
733.52	92.58
733.703	95.27
733.885	93.92
734.068	96.74
734.25	93.55
734.432	94.81
734.615	100.07
734.797	97.95
734.979	97.8
735.162	97.74
735.344	101.58
735.526	101.44
735.708	96.92
735.891	100.89
736.073	95.6
736.255	94.32
736.437	94.47
736.619	92.18
736.802	96.12
736.984	96.57
737.166	96.76
737.348	96.45
737.53	95.96
737.712	95.63
737.894	92.69
738.076	95.76
738.258	95.97
738.44	96.47
738.622	96.24
738.804	96.17
738.986	95.79
739.168	98.22
739.35	100.37
739.532	100.57
739.714	102.56
739.896	103.66
740.078	104.98
740.259	105.52
740.441	104.6
740.623	101.76
740.805	100.31
740.987	103.98
741.168	101.35
741.35	100.44
741.532	102.64
741.714	103.97
741.895	106.03
742.077	104.98
742.259	107.48
742.44	113.05
742.622	123.38
742.804	124.19
742.985	117.87
743.167	122.78
743.348	119.35
743.53	117.8
743.711	121.63
743.893	121.54
744.075	123.53
744.256	117.82
744.438	116.23
744.619	114.58
744.8	114.01
744.982	116.68
745.163	117.43
745.345	124.71
745.526	124.61
745.707	122.86
745.889	120.66
746.07	118.89
746.252	127.59
746.433	125.11
746.614	120.01
746.795	123.36
746.977	125.51
747.158	119.91
747.339	117.22
747.52	119.63
747.702	114.78
747.883	120.43
748.064	120.48
748.245	115.59
748.426	111.71
748.607	113.01
748.788	107.81
748.97	102.79
749.151	103.42
749.332	103.79
749.513	100.85
749.694	103.39
749.875	98.36
750.056	97.77
750.237	100.35
750.418	103.26
750.599	103.45
750.78	103.61
750.96	107.06
751.141	108.42
751.322	105.16
751.503	107.86
751.684	111.43
751.865	116.88
752.046	114.12
752.226	112.01
752.407	114.51
752.588	111.94
752.769	117.17
752.949	119.85
753.13	121.1
753.311	124.89
753.492	125.26
753.672	117.2
753.853	117.06
754.034	123.05
754.214	126.48
754.395	124.76
754.575	130.9
754.756	130.18
754.937	125.48
755.117	123.91
755.298	122.52
755.478	120.45
755.659	122.82
755.839	119.44
756.02	117.61
756.2	117.75
756.381	113.21
756.561	108.93
756.741	107.29
756.922	104.15
757.102	101.44
757.283	100.62
757.463	92.99
757.643	91.5
757.823	86.01
758.004	83.25
758.184	78.13
758.364	78.77
758.545	76.75
758.725	73.91
758.905	75.85
759.085	73.4
759.265	70.64
759.446	74.97
759.626	71.16
759.806	72.17
759.986	71.34
760.166	70
760.346	70.69
760.526	68.92
760.706	67.28
760.886	64.79
761.066	69.31
761.246	69.94
761.426	66.76
761.606	67.07
761.786	66.36
761.966	66.86
762.146	69.28
762.326	68.36
762.506	66.82
762.686	68.7
762.866	71.02
763.046	69.58
763.225	71.95
763.405	74.83
763.585	77.83
763.765	80.63
763.945	81.31
764.124	86.23
764.304	86.97
764.484	94.61
764.664	94.43
764.843	93.1
765.023	96.18
765.203	96.62
765.382	101.44
765.562	103.54
765.741	107.38
765.921	109.74
766.101	111.38
766.28	114.63
766.46	117.63
766.639	125.64
766.819	130.95
766.998	130.99
767.178	130.94
767.357	129.24
767.537	130.23
767.716	128.48
767.896	127.19
768.075	118.99
768.254	120.99
768.434	116.57
768.613	111.04
768.792	113.83
768.972	111.58
769.151	111.8
769.33	112.06
769.51	110.35
769.689	115.77
769.868	120.72
770.047	120.4
770.226	117.44
770.406	117.58
770.585	124.33
770.764	118.28
770.943	125.49
771.122	127.64
771.301	125.57
771.48	131.22
771.66	134.67
771.839	134.08
772.018	146.12
772.197	150.89
772.376	156.25
772.555	154.33
772.734	166.8
772.913	154.21
773.092	164.2
773.271	164.81
773.449	152.46
773.628	149.7
773.807	149.6
773.986	142.25
774.165	142.99
774.344	135.8
774.523	134.17
774.701	133.95
774.88	136.6
775.059	134.13
775.238	140.48
775.417	144.25
775.595	146.73
775.774	144.93
775.953	156.02
776.131	152.14
776.31	158.92
776.489	163.02
776.667	151.15
776.846	161.15
777.025	153.11
777.203	151.27
777.382	154.1
777.56	153.16
777.739	156.49
777.917	147.05
778.096	149.7
778.274	150.99
778.453	152.78
778.631	161.21
778.81	152.14
778.988	158.81
779.166	160
779.345	154.64
779.523	158.44
779.702	161.24
779.88	160.4
780.058	157.25
780.237	156.9
780.415	142.45
780.593	144.95
780.771	152.51
780.95	153.55
781.128	151.47
781.306	164.24
781.484	152.36
781.662	150.15
781.841	145.2
782.019	139.62
782.197	134
782.375	135.54
782.553	136.1
782.731	134.4
782.909	129.72
783.087	137.16
783.265	135.7
783.443	141.65
783.621	136.82
783.799	140.28
783.977	152.8
784.155	153.86
784.333	163.32
784.511	161.45
784.689	154.04
784.867	157.09
785.045	150
785.223	139.64
785.4	131.86
785.578	132.44
785.756	131.11
785.934	125.17
786.112	120.16
786.289	115.01
786.467	110.97
786.645	118.08
786.823	111.05
787	109
787.178	106.5
787.356	110.81
787.533	111.28
787.711	109.52
787.889	108.85
788.066	109.7
788.244	106.57
788.421	115.7
788.599	115.77
788.776	119.97
788.954	128
789.131	139.03
789.309	129.26
789.486	128.96
789.664	128.92
789.841	130.09
790.019	137.33
790.196	147.51
790.373	137.79
790.551	139.78
790.728	149.49
790.906	150.5
791.083	149.84
791.26	156.7
791.437	157.28
791.615	157.94
791.792	161.47
791.969	168.31
792.146	168.85
792.324	163.64
792.501	154.85
792.678	147.53
792.855	145
793.032	131.7
793.209	126.56
793.387	133.18
793.564	131.01
793.741	128.63
793.918	121.43
794.095	118.57
794.272	122.68
794.449	120.14
794.626	123.34
794.803	121.6
794.98	125.91
795.157	118.15
795.334	105.91
795.511	105.91
795.688	99.61
795.864	100
796.041	103.52
796.218	105.54
796.395	106.88
796.572	103.49
796.749	99.38
796.925	97.66
797.102	106.22
797.279	114.36
797.456	119.9
797.632	120.82
797.809	122.2
797.986	108.18
798.162	100.33
798.339	99.23
798.516	90.6
798.692	90.04
798.869	97.86
799.046	94.79
799.222	94.61
799.399	104.29
799.575	112.56
799.752	122.08
799.928	123.31
800.105	137.24
800.281	126.21
800.458	148.6
800.634	159.09
800.811	166.1
800.987	163.84
801.163	159.84
801.34	129.88
801.516	119.28
801.692	112.62
801.869	124.03
802.045	117.34
802.221	127.18
802.398	115.24
802.574	99.41
802.75	90.9
802.926	89.53
803.103	93.42
803.279	110.54
803.455	119.81
803.631	112.25
803.807	107.35
803.983	103.65
804.16	109.9
804.336	120.35
804.512	130.1
804.688	133.22
804.864	128.73
805.04	127.02
805.216	119.42
805.392	110.24
805.568	120.52
805.744	117.77
805.92	127.07
806.096	123.42
806.272	116.54
806.448	122.11
806.623	132.09
806.799	153.94
806.975	150.97
807.151	143.57
807.327	147.85
807.503	135.81
807.678	140.61
807.854	137.51
808.03	143.98
808.206	147.44
808.381	129.9
808.557	116.24
808.733	110.66
808.908	108.7
809.084	122.77
809.26	134.2
809.435	144.54
809.611	153.86
809.787	142.59
809.962	141.09
810.138	130.08
810.313	141.44
810.489	151.71
810.664	157.83
810.84	160.25
811.015	139.32
811.191	128.3
811.366	121.33
811.542	104.13
811.717	113.13
811.892	108.16
812.068	110.85
812.243	118.93
812.419	128.68
812.594	127.78
812.769	122.78
812.944	137.79
813.12	132.59
813.295	126.52
813.47	128.28
813.645	113.45
813.821	101.33
813.996	85.99
814.171	80.86
814.346	68.8
814.521	59.48
814.697	67.86
814.872	70.8
815.047	74.11
815.222	82.2
815.397	99.41
815.572	103.83
815.747	113.95
815.922	125.45
816.097	130.04
816.272	125.73
816.447	132.48
816.622	122.82
816.797	111.33
816.972	101.95
817.147	104.23
817.322	102.15
817.496	99.64
817.671	103.67
817.846	99.43
818.021	96.44
818.196	103.34
818.371	105.45
818.545	109.1
818.72	118.19
818.895	118.94
819.069	110.94
819.244	100.41
819.419	95.92
819.594	84.63
819.768	81.83
819.943	77.47
820.117	68.76
820.292	67.53
820.467	61.5
820.641	60.62
820.816	58.2
820.99	57.06
821.165	54.98
821.339	54.78
821.514	56.86
821.688	57.59
821.863	55.97
822.037	57.16
822.212	57.15
822.386	61
822.56	59.88
822.735	64.06
822.909	62.84
823.084	66.29
823.258	69.97
823.432	69.18
823.606	68.32
823.781	68.48
823.955	70.86
824.129	75.13
824.303	72.76
824.478	78.15
824.652	71.83
824.826	70.37
825	66.73
825.174	61.47
825.348	60.42
825.523	60.31
825.697	63.4
825.871	60.2
826.045	54.35
826.219	59.33
826.393	57.59
826.567	58.92
826.741	64.3
826.915	66.44
827.089	69.13
827.263	75.87
827.437	77.91
827.611	77.8
827.784	83.73
827.958	89.69
828.132	83.75
828.306	92.7
828.48	97.29
828.654	102.69
828.827	116.58
829.001	122.22
829.175	111.97
829.349	105.12
829.522	109.74
829.696	104.1
829.87	95.88
830.044	109.41
830.217	90.16
830.391	93.87
830.565	95.06
830.738	84.38
830.912	67.73
831.085	65.31
831.259	75.27
831.432	75.25
831.606	82.56
831.779	86.81
831.953	74.74
832.126	76.94
832.3	72.18
832.473	68.83
832.647	72.08
832.82	79.9
832.994	76.77
833.167	77.84
833.34	78.45
833.514	79.16
833.687	79.24
833.86	82.64
834.034	84.46
834.207	93.46
834.38	88.55
834.553	86.75
834.727	87.68
834.9	97.32
835.073	94.18
835.246	100.06
835.419	115.71
835.593	125.1
835.766	146.37
835.939	158.08
836.112	141.43
836.285	193.8
836.458	287.89
836.631	294.83
836.804	263.92
836.977	234.38
837.15	220.68
837.323	184.37
837.496	160.29
837.669	141.04
837.842	130.26
838.015	155.17
838.188	133.36
838.361	124.21
838.533	113.56
838.706	110.13
838.879	116.26
839.052	126.35
839.225	122.08
839.398	123.2
839.57	128.4
839.743	147.93
839.916	132.57
840.088	121.27
840.261	114.03
840.434	133.71
840.607	145.58
840.779	146.59
840.952	134.76
841.124	127.71
841.297	144.81
841.47	127.46
841.642	124.83
841.815	123.39
841.987	138.94
842.16	155.33
842.332	180.65
842.505	181.95
842.677	161.74
842.85	127.35
843.022	163.99
843.194	130.37
843.367	132.78
843.539	154.4
843.712	161.64
843.884	133.63
844.056	124.73
844.229	113.33
844.401	112.04
844.573	118.22
844.745	130.93
844.918	140.94
845.09	176.95
845.262	205.02
845.434	171.37
845.606	167.85
845.779	253.91
845.951	252.97
846.123	248.99
846.295	206.48
846.467	234.61
846.639	261.81
846.811	208.65
846.983	282.72
847.155	409.86
847.327	-3909.09
847.499	489.6
847.671	445.03
847.843	710.34
848.015	549.66
848.187	873.12
848.359	-861.43
848.531	-981.25
848.703	-316.37
848.875	438.1
849.047	548.68
849.218	429.22
849.39	306.19
849.562	276.03
849.734	422.76
849.905	414.81
850.077	535.85
850.249	329.58
850.421	250.94
850.592	210.16
850.764	246.18
850.936	205.82
851.107	178.39
851.279	160.77
851.451	149.09
851.622	127.89
851.794	123.34
851.965	119.45
852.137	107.69
852.308	105.87
852.48	122.08
852.651	136.92
852.823	106.37
852.994	113.27
853.166	126.81
853.337	107.73
853.509	105.57
853.68	86.3
853.851	86.49
854.023	116.39
854.194	126.9
854.365	115.96
854.537	100.83
854.708	104.23
854.879	128.4
855.05	180.29
855.222	267.38
855.393	296.69
855.564	303.82
855.735	228.22
855.906	220.84
856.078	248.36
856.249	271.17
856.42	274.31
856.591	394.66
856.762	333.16
856.933	295.88
857.104	272.34
857.275	197.58
857.446	223.75
857.617	256.87
857.788	248.1
857.959	251.08
858.13	263.05
858.301	241.61
858.472	195.71
858.643	144.47
858.814	125.95
858.985	105.3
859.155	206.15
859.326	210.36
859.497	690.91
859.668	32.32
859.839	-10.66
860.009	36.29
860.18	8.77
860.351	7.63
860.522	-81.2
860.692	-1053.33
860.863	570.83
861.034	131.61
861.204	109.06
861.375	87.8
861.546	92.41
861.716	69.85
861.887	88.1
862.057	100
862.228	105.38
862.398	147.41
862.569	140.88
862.739	155.47
862.91	233.69
863.08	464.29
863.251	533.69
863.421	260.99
863.592	291.19
863.762	265.39
863.932	278.14
864.103	245.47
864.273	202.45
864.443	238.78
864.614	220.42
864.784	176.85
864.954	161.51
865.125	168.09
865.295	181.94
865.465	191.95
865.635	203.62
865.805	189.3
865.976	237.33
866.146	241.8
866.316	179.13
866.486	290.68
866.656	382.3
866.826	436.84
866.996	218.41
867.166	230.32
867.336	229.65
867.506	230.92
867.676	293.65
867.846	377.16
868.016	294.68
868.186	403.94
868.356	263.01
868.526	211.55
868.696	172.11
868.866	153.56
869.036	192.31
869.206	151.49
869.376	204.74
869.545	191.89
869.715	146.41
869.885	196
870.055	164.19
870.224	201.73
870.394	206.75
870.564	768.6
870.734	-1905.13
870.903	529.05
871.073	1002.06
871.243	1036.99
871.412	3500
871.582	-1301.85
871.751	-1038.81
871.921	-294.04
872.091	-310.21
872.26	-135.77
872.43	-227.09
872.599	-314.23
872.769	-744.17
872.938	-1554.39
873.108	2855.26
873.277	1679.69
873.446	1539.13
873.616	582.78
873.785	197.73
873.955	153.54
874.124	109.88
874.293	114.67
874.463	169.41
874.632	141.44
874.801	169.23
874.971	143.24
875.14	102.62
875.309	134.17
875.478	-360.53
875.647	-6.95
875.817	-25
875.986	-59.67
876.155	-79.08
876.324	-79.88
876.493	-117.37
876.662	-458.82
876.831	9333.33
877	-658.41
877.17	-2880
877.339	644.03
877.508	1048.48
877.677	357.38
877.846	350.17
878.015	672.73
878.184	440.59
878.352	716.04
878.521	-1428.95
878.69	-149.78
878.859	885
879.028	367.97
879.197	218.81
879.366	127.78
879.534	112.72
879.703	78.18
879.872	57.63
880.041	58.38
880.21	69.65
880.378	72.91
880.547	66.67
880.716	63.95
880.884	66.55
881.053	69.68
881.222	71.61
881.39	71.61
881.559	69.46
881.727	81.03
881.896	82.51
882.065	81.53
882.233	83.52
882.402	81.08
882.57	87.64
882.739	93.94
882.907	98.79
883.076	94.97
883.244	93.59
883.412	96.52
883.581	79.54
883.749	75.36
883.918	60.69
884.086	57.41
884.254	76.64
884.423	76.24
884.591	72.23
884.759	49.41
884.927	58.53
885.096	78.94
885.264	86.15
885.432	92.31
885.6	115.7
885.769	129.99
885.937	105.8
886.105	83.36
886.273	131.02
886.441	144.44
886.609	142.9
886.777	151.6
886.945	105.24
887.113	134.17
887.281	178.53
887.449	117
887.617	135.89
887.785	167.47
887.953	151.89
888.121	97.1
888.289	99.66
888.457	167.4
888.625	247.53
888.793	161.36
888.961	253.95
889.129	227.6
889.296	481.11
889.464	-6675
889.632	-172.07
889.8	-327.63
889.967	-229.27
890.135	-345.26
