Data from JASIL_3333_Reflection_2.txt Node
Date: Tue Nov 17 20:18:16 EST 2015
User: Geneva
Spectrometer: USB4E03002
Autoset integration time: false
Trigger mode: 4
Integration Time (sec): 1.000000E-1
Scans to average: 10
Electric dark correction enabled: false
Nonlinearity correction enabled: false
Boxcar width: 5
Stray light correction enabled: false
XAxis mode: Wavelengths
Stop averaging: false
Number of Pixels in Spectrum: 3648
>>>>>Begin Spectral Data<<<<<
177.575	-445.54
177.794	-641.3
178.014	-712.36
178.233	-1369.81
178.452	-1341.67
178.672	-746.46
178.891	-1679.31
179.11	9970
179.33	2089.13
179.549	1798.04
179.768	-9381.82
179.987	831.82
180.207	451.23
180.426	780.82
180.645	961.6
180.864	7194.12
181.084	769.28
181.303	602.68
181.522	763.22
181.741	765.73
181.96	1517.17
182.179	8735.29
182.398	-1781.82
182.618	-585.07
182.837	-548.57
183.056	-656.83
183.275	-634.44
183.494	-255.53
183.713	-207.33
183.932	-147.05
184.151	-114.31
184.37	-96.39
184.589	-115.3
184.808	-102.64
185.027	-103.07
185.246	-162.84
185.465	-144.8
185.684	-181.9
185.903	-283.5
186.122	-352.92
186.341	-903.54
186.56	-578.57
186.779	-3285.19
186.998	-443.92
187.216	-421.11
187.435	-506.67
187.654	-475.15
187.873	-346.43
188.092	-459.62
188.311	-595
188.53	-424.46
188.748	-161.73
188.967	-206.06
189.186	-140.41
189.405	-305.34
189.623	-250.63
189.842	-265.08
190.061	-233.66
190.28	-129.95
190.498	-161.2
190.717	-119.96
190.936	-116.67
191.154	-379.67
191.373	-942.53
191.592	1944.19
191.81	777.67
192.029	954.74
192.248	446.08
192.466	419.89
192.685	184.84
192.904	427.72
193.122	295.6
193.341	400.42
193.559	547.46
193.778	528.73
193.996	431.28
194.215	1143.48
194.433	566.43
194.652	502.8
194.87	448.12
195.089	486.15
195.307	789.47
195.526	-447.96
195.744	-325.18
195.963	-367.33
196.181	-481.82
196.399	-780.46
196.618	921.05
196.836	551.77
197.055	641.89
197.273	805.22
197.491	1027.93
197.71	523.41
197.928	485.43
198.146	444.52
198.365	2702.38
198.583	1680.95
198.801	-762.9
199.019	-263.08
199.238	-167.69
199.456	-119.9
199.674	-151.48
199.892	-151.46
200.111	-136.62
200.329	-151.34
200.547	-258.65
200.765	1890.2
200.983	-837.61
201.202	1376.32
201.42	440
201.638	326.05
201.856	465.81
202.074	735.33
202.292	385.71
202.51	355.56
202.728	437.99
202.946	3289.29
203.165	1421.15
203.383	325.27
203.601	453.3
203.819	611.82
204.037	-2178.79
204.255	-3325.93
204.473	-503.5
204.691	-437.06
204.909	-355.75
205.127	-1504.17
205.345	498.79
205.562	-628.68
205.78	-159.34
205.998	-146.4
206.216	-150.53
206.434	-218.32
206.652	-247.4
206.87	-557.49
207.088	-442.86
207.306	-546.24
207.523	-443.89
207.741	-303.37
207.959	-481.53
208.177	-501.04
208.395	-496.57
208.612	-544.44
208.83	-351.08
209.048	-358.31
209.266	-304.7
209.483	-185.46
209.701	-215.91
209.919	-195.75
210.136	-249.88
210.354	-257.21
210.572	-322.67
210.79	-391.33
211.007	-873.94
211.225	-7593.33
211.442	1915.25
211.66	5116
211.878	460.47
212.095	1126.18
212.313	1894.07
212.53	1035.55
212.748	890.84
212.966	648.7
213.183	763.81
213.401	-9211.11
213.618	-660.71
213.836	-544.71
214.053	-705.96
214.271	-521.47
214.488	-372.32
214.705	-274.48
214.923	-197.92
215.14	-112.89
215.358	-95.76
215.575	-107.96
215.793	-213.04
216.01	-584.83
216.227	-1038.79
216.445	-869.44
216.662	-466.38
216.879	-472.17
217.097	-288.95
217.314	-349.42
217.531	13537.5
217.749	1103.96
217.966	593.96
218.183	302.42
218.4	452.26
218.618	455.92
218.835	303.21
219.052	275.74
219.269	223.91
219.487	138.99
219.704	156.28
219.921	170
220.138	254.71
220.355	221.38
220.572	226.63
220.79	195.95
221.007	286.97
221.224	363.5
221.441	365.15
221.658	417.52
221.875	-2048.57
222.092	-913.64
222.309	2766.67
222.526	484.24
222.743	466.67
222.96	592.09
223.177	2086.05
223.394	1150
223.611	733.57
223.828	416.8
224.045	311.73
224.262	235.32
224.479	254.73
224.696	416.83
224.913	714.05
225.13	625.47
225.347	491.72
225.564	228.66
225.781	128.51
225.997	101.65
226.214	102.77
226.431	95.63
226.648	96.41
226.865	63.44
227.082	54.2
227.298	58.16
227.515	56.09
227.732	54.66
227.949	53.79
228.165	49.27
228.382	49.86
228.599	52.34
228.816	55.51
229.032	56.05
229.249	64.3
229.466	69.34
229.682	64.27
229.899	70.7
230.116	79.75
230.332	83.99
230.549	96.21
230.765	82.37
230.982	78.43
231.199	80.74
231.415	80.27
231.632	78.75
231.848	69.55
232.065	76.73
232.281	63.67
232.498	57.52
232.714	53.18
232.931	54.55
233.147	61.35
233.364	70.15
233.58	75.4
233.797	70.24
234.013	74.41
234.23	91.26
234.446	101.64
234.662	135.54
234.879	214.41
235.095	193.21
235.312	167.61
235.528	177.88
235.744	204.63
235.961	255.3
236.177	252.13
236.393	351.14
236.61	282.37
236.826	223.92
237.042	154.61
237.258	130.05
237.475	134.67
237.691	176.54
237.907	138.22
238.123	113.82
238.339	106.12
238.556	91.93
238.772	63.15
238.988	55.45
239.204	45.68
239.42	56.83
239.636	59.05
239.853	52.83
240.069	49.29
240.285	44.51
240.501	40.67
240.717	38.04
240.933	40.49
241.149	42.47
241.365	42.91
241.581	42.02
241.797	43.29
242.013	41.74
242.229	39.33
242.445	40.67
242.661	39.18
242.877	43.15
243.093	44.94
243.309	42.74
243.525	40.9
243.741	42.41
243.957	40.95
244.173	31.86
244.388	33.57
244.604	35.05
244.82	32.66
245.036	33.82
245.252	29.52
245.468	27.53
245.683	25.13
245.899	22.44
246.115	21.6
246.331	20.28
246.547	23.13
246.762	22.1
246.978	22.25
247.194	23.06
247.409	21.44
247.625	22.92
247.841	25.38
248.057	30
248.272	33.89
248.488	31.86
248.703	37.23
248.919	41.37
249.135	44.61
249.35	46.87
249.566	44.46
249.782	44.68
249.997	43.02
250.213	39.41
250.428	34.05
250.644	32.05
250.859	32.07
251.075	27.56
251.29	21.51
251.506	19.44
251.721	19.37
251.937	22.37
252.152	22.99
252.368	22.79
252.583	20.95
252.798	24.7
253.014	24.47
253.229	27.98
253.445	38.1
253.66	40.03
253.875	40.06
254.091	36.26
254.306	34.77
254.521	31.41
254.737	31.54
254.952	28.44
255.167	28.36
255.383	27.31
255.598	30.3
255.813	22.73
256.028	22.94
256.244	24.05
256.459	27.7
256.674	28.32
256.889	30.4
257.104	27.57
257.32	25.27
257.535	20.61
257.75	23.46
257.965	19.41
258.18	18.46
258.395	16.53
258.61	14.31
258.826	12.14
259.041	10.13
259.256	7.65
259.471	7.34
259.686	8.25
259.901	10.34
260.116	8.36
260.331	9.25
260.546	11.45
260.761	14.11
260.976	18.05
261.191	18.96
261.406	21.25
261.621	24.92
261.836	27.3
262.05	25.36
262.265	24.61
262.48	28.19
262.695	31.18
262.91	30.94
263.125	29.48
263.34	27.81
263.555	26.6
263.769	26.57
263.984	24.52
264.199	25.17
264.414	30.71
264.629	28.08
264.843	27.57
265.058	22.27
265.273	17.37
265.488	17.73
265.702	18.17
265.917	20.79
266.132	20.94
266.346	22.14
266.561	22.95
266.776	23.92
266.99	26.25
267.205	24.87
267.42	24.52
267.634	27
267.849	24.87
268.063	22.2
268.278	19.18
268.492	18.47
268.707	18.55
268.922	16.65
269.136	17.63
269.351	15.9
269.565	18.04
269.78	20.18
269.994	19.89
270.209	20.65
270.423	21.93
270.637	23.13
270.852	22.91
271.066	21.69
271.281	23.24
271.495	22.19
271.709	22.81
271.924	21.99
272.138	22.28
272.353	22.34
272.567	22.96
272.781	22.52
272.996	23.06
273.21	22.55
273.424	23.52
273.638	23.16
273.853	22.34
274.067	23.66
274.281	21.56
274.495	23.4
274.71	25.89
274.924	26.99
275.138	30.37
275.352	31.38
275.566	33.15
275.781	32.32
275.995	31.72
276.209	32.99
276.423	27.82
276.637	29.6
276.851	27.7
277.065	23.13
277.279	20.12
277.493	16.25
277.707	15.11
277.921	13.98
278.135	17.01
278.349	15.94
278.563	14.9
278.777	15.59
278.991	15.69
279.205	17.89
279.419	16.82
279.633	17.42
279.847	19.43
280.061	17.48
280.275	16.27
280.489	12.07
280.703	10.8
280.917	11.81
281.131	12.38
281.344	12.71
281.558	9.54
281.772	12.5
281.986	13.93
282.2	11.48
282.414	14.11
282.627	14.85
282.841	15.33
283.055	14.48
283.269	13.48
283.482	15.17
283.696	14.74
283.91	15.87
284.123	15.89
284.337	16.63
284.551	17.52
284.764	15.66
284.978	14.17
285.192	16.23
285.405	17.44
285.619	18.51
285.833	17.31
286.046	17.83
286.26	17
286.473	17.61
286.687	15.63
286.9	16.22
287.114	17.41
287.327	18.41
287.541	16.1
287.754	16.88
287.968	15.78
288.181	16.44
288.395	15.46
288.608	16.22
288.822	14.17
289.035	16.09
289.248	15.68
289.462	14.73
289.675	15.13
289.889	16.83
290.102	15.98
290.315	16.32
290.529	16.71
290.742	17.24
290.955	18.97
291.169	20.87
291.382	19.64
291.595	20.29
291.808	21.51
292.022	22.2
292.235	20.84
292.448	20.41
292.661	21.18
292.875	21.14
293.088	20.87
293.301	18.73
293.514	16.94
293.727	17.45
293.94	15.75
294.153	15.17
294.367	15.49
294.58	14.7
294.793	14.5
295.006	13.24
295.219	12.23
295.432	10.49
295.645	11.79
295.858	12.4
296.071	11.95
296.284	13.12
296.497	13.17
296.71	13.95
296.923	14.6
297.136	15.15
297.349	15.21
297.562	15.85
297.775	16.98
297.988	15.13
298.201	14.16
298.414	14.66
298.626	13.1
298.839	12.39
299.052	12.2
299.265	14.37
299.478	15.26
299.691	16.55
299.903	15.4
300.116	15.41
300.329	14.94
300.542	17.39
300.755	17.02
300.967	17.3
301.18	17.72
301.393	16.99
301.605	14.94
301.818	15.07
302.031	14.77
302.243	14.09
302.456	14.36
302.669	15.2
302.881	14.8
303.094	14.42
303.307	14.91
303.519	14.98
303.732	15.27
303.944	16.67
304.157	17.59
304.37	18.92
304.582	21.14
304.795	21.75
305.007	21.13
305.22	19.07
305.432	19.99
305.645	21.41
305.857	21.8
306.069	19.41
306.282	18.16
306.494	16.04
306.707	15.62
306.919	13.99
307.132	13.3
307.344	15.52
307.556	16.1
307.769	15.4
307.981	15.29
308.193	15.18
308.406	16.84
308.618	14.76
308.83	14.24
309.043	12.54
309.255	13.78
309.467	14.29
309.679	12.87
309.892	13.04
310.104	13.97
310.316	14.18
310.528	14.49
310.74	13.85
310.953	15.36
311.165	16.01
311.377	17.94
311.589	18.07
311.801	17.76
312.013	16.85
312.225	17.44
312.437	16.43
312.649	14.9
312.862	15.58
313.074	14.66
313.286	15.71
313.498	15.59
313.71	13.82
313.922	13.61
314.134	12.43
314.346	15.03
314.558	14.77
314.77	15.18
314.982	17.39
315.193	16
315.405	17.97
315.617	15.84
315.829	15.88
316.041	17.55
316.253	15.81
316.465	18.46
316.677	16.84
316.888	18.11
317.1	17.19
317.312	16.77
317.524	18.05
317.736	17.25
317.947	19.68
318.159	21.67
318.371	20.29
318.583	22.61
318.794	21.73
319.006	23.05
319.218	22.13
319.43	22.74
319.641	22.03
319.853	22.03
320.064	20.94
320.276	20.57
320.488	18.01
320.699	18.67
320.911	16.29
321.123	15.76
321.334	15.84
321.546	16.21
321.757	17.91
321.969	18.51
322.18	17.34
322.392	18.93
322.603	19.32
322.815	20.84
323.026	19.58
323.238	21
323.449	20.39
323.661	18.73
323.872	17.65
324.083	17.75
324.295	15.87
324.506	17.3
324.718	16.15
324.929	15.81
325.14	17.47
325.352	17.17
325.563	18.07
325.774	17.52
325.986	18.78
326.197	19.52
326.408	19.3
326.62	20.07
326.831	18.51
327.042	20.42
327.253	20.28
327.464	18.17
327.676	18.55
327.887	16.85
328.098	18.25
328.309	18.37
328.52	18.36
328.732	18.1
328.943	19.23
329.154	19.99
329.365	18.08
329.576	18.13
329.787	20.55
329.998	21.09
330.209	22.54
330.42	22.52
330.631	22.84
330.842	23.08
331.053	22.58
331.264	23.73
331.475	24.55
331.686	27.29
331.897	26.32
332.108	25.06
332.319	24.85
332.53	24.62
332.741	24.3
332.952	23.56
333.163	24.4
333.374	25.57
333.585	23.25
333.795	23.99
334.006	22.16
334.217	23.81
334.428	22.21
334.639	21.91
334.849	23.47
335.06	25.49
335.271	27.01
335.482	26.3
335.692	26.21
335.903	26.38
336.114	25.98
336.325	25.56
336.535	25.48
336.746	26.8
336.957	26.96
337.167	24.88
337.378	24.57
337.589	23.44
337.799	23.41
338.01	22.92
338.22	23.21
338.431	21.92
338.642	22.64
338.852	21.59
339.063	20.65
339.273	21.86
339.484	22.39
339.694	21.32
339.905	20.76
340.115	20.62
340.326	19.45
340.536	19.48
340.746	19.76
340.957	18.73
341.167	19.67
341.378	20.28
341.588	20.19
341.799	20.24
342.009	19.18
342.219	20.26
342.43	20.6
342.64	20.66
342.85	20.5
343.061	20.25
343.271	22.42
343.481	21.04
343.691	21.07
343.902	21.03
344.112	21.78
344.322	22.27
344.532	22.62
344.743	23.28
344.953	23.86
345.163	23.25
345.373	23.77
345.583	22.85
345.793	23.65
346.004	24.23
346.214	23.71
346.424	22.88
346.634	23.58
346.844	22.47
347.054	21.08
347.264	21.15
347.474	21.11
347.684	20.69
347.894	20.29
348.104	19.25
348.314	18.54
348.524	17.93
348.734	19.03
348.944	17.74
349.154	18.06
349.364	18.58
349.574	18.14
349.784	18.6
349.994	18.12
350.204	17.66
350.413	17.72
350.623	17.1
350.833	18.37
351.043	17.3
351.253	18.68
351.463	17.59
351.672	18.45
351.882	17.58
352.092	18.4
352.302	19.58
352.511	20.23
352.721	21.07
352.931	20.87
353.141	20.19
353.35	20.45
353.56	19.15
353.77	20.56
353.979	19.59
354.189	21.06
354.399	19.76
354.608	18.21
354.818	17.66
355.027	17.62
355.237	16.92
355.447	17.54
355.656	16.57
355.866	17.14
356.075	18.18
356.285	18.09
356.494	17.3
356.704	18.59
356.913	19.45
357.123	19.34
357.332	18.85
357.542	20.34
357.751	19.88
357.96	19.91
358.17	20.03
358.379	18.18
358.589	18.22
358.798	18.95
359.007	18.55
359.217	18.81
359.426	18.36
359.635	18.03
359.845	17.57
360.054	16.42
360.263	16.68
360.472	16.49
360.682	17.01
360.891	17.16
361.1	17.2
361.309	17.77
361.519	17.11
361.728	17.93
361.937	18.65
362.146	18.45
362.355	18.93
362.564	18.77
362.774	19.58
362.983	19.37
363.192	19.87
363.401	19.79
363.61	19.12
363.819	20.13
364.028	20.3
364.237	19.36
364.446	18.63
364.655	17.91
364.864	18.59
365.073	18.45
365.282	17.08
365.491	16.59
365.7	17.27
365.909	16.44
366.118	16.78
366.327	16.12
366.536	16.37
366.745	16.77
366.954	17.64
367.162	17.14
367.371	17.29
367.58	19.21
367.789	18.85
367.998	18.06
368.207	16.99
368.415	15.91
368.624	15.61
368.833	16.07
369.042	16.81
369.25	17.19
369.459	17.2
369.668	15.97
369.877	16.16
370.085	16.54
370.294	16.31
370.503	17.92
370.711	17.22
370.92	17.64
371.129	16.85
371.337	16.85
371.546	16.21
371.754	16.16
371.963	16.51
372.171	14.98
372.38	14.5
372.589	14.09
372.797	12.74
373.006	13.73
373.214	12.98
373.423	12.95
373.631	12.9
373.84	12.53
374.048	13.1
374.256	13.48
374.465	14.66
374.673	15.09
374.882	14.49
375.09	15.26
375.298	15.45
375.507	15.45
375.715	16.16
375.923	16.7
376.132	17.56
376.34	16.5
376.548	16.35
376.757	16.14
376.965	15.92
377.173	16.8
377.381	17.4
377.59	16.45
377.798	16.67
378.006	16.34
378.214	16.12
378.423	15.55
378.631	15.7
378.839	15.29
379.047	16.25
379.255	16.84
379.463	15.94
379.671	15.62
379.879	16.37
380.088	16.75
380.296	17.53
380.504	17.27
380.712	17.68
380.92	17.64
381.128	18.4
381.336	16.79
381.544	15.95
381.752	15.79
381.96	14.99
382.168	13.65
382.376	13.57
382.584	13.29
382.791	13.29
382.999	12.59
383.207	13.34
383.415	13.11
383.623	13.64
383.831	14.07
384.039	14.91
384.247	15.42
384.454	16.64
384.662	16.55
384.87	16.46
385.078	16.42
385.285	16.8
385.493	16.87
385.701	16.13
385.909	16.16
386.116	16.43
386.324	15.99
386.532	15.46
386.739	14.88
386.947	14.98
387.155	14.72
387.362	14.24
387.57	14.1
387.778	12.49
387.985	11.7
388.193	12.23
388.4	11.67
388.608	12.04
388.816	12.71
389.023	13.35
389.231	13.46
389.438	13.63
389.646	13.88
389.853	14.75
390.061	15.36
390.268	15.59
390.475	14.73
390.683	14.51
390.89	14.13
391.098	14.49
391.305	14.23
391.512	14.04
391.72	13.62
391.927	14.03
392.135	12.98
392.342	12.93
392.549	13.12
392.756	13.49
392.964	13.33
393.171	14.04
393.378	13.51
393.586	13.36
393.793	13.18
394	13.36
394.207	12.29
394.414	13.15
394.622	13.67
394.829	14.29
395.036	14.17
395.243	14.49
395.45	14.38
395.657	14.43
395.864	14.68
396.072	15.29
396.279	15.67
396.486	15.99
396.693	15.64
396.9	15.46
397.107	15.68
397.314	15.23
397.521	15.26
397.728	14.32
397.935	14.1
398.142	14.12
398.349	13.25
398.556	12.56
398.763	13.07
398.97	13.19
399.177	13.09
399.383	12.46
399.59	13.14
399.797	12.99
400.004	14.6
400.211	14.71
400.418	14.18
400.625	14.3
400.831	14.91
401.038	14.29
401.245	14.75
401.452	14.97
401.658	15.71
401.865	15.28
402.072	15.3
402.279	14.34
402.485	14.72
402.692	15.01
402.899	14.7
403.105	14.37
403.312	14.75
403.519	14.47
403.725	13.87
403.932	13.58
404.138	14.17
404.345	14.27
404.552	14.82
404.758	14.76
404.965	14.95
405.171	15.37
405.378	15.78
405.584	16.08
405.791	15.86
405.997	16.43
406.204	16.79
406.41	16.45
406.617	16.4
406.823	15.62
407.029	15.19
407.236	15.22
407.442	14.84
407.649	15.19
407.855	14.75
408.061	14.58
408.268	14.99
408.474	15.11
408.68	14.97
408.887	15.27
409.093	15.96
409.299	16.41
409.505	16.26
409.712	17.42
409.918	16.89
410.124	16.69
410.33	16.97
410.537	16.54
410.743	15.77
410.949	16.19
411.155	15.53
411.361	15.01
411.567	14.18
411.773	14.64
411.98	14.03
412.186	14.53
412.392	15.04
412.598	15.03
412.804	15.07
413.01	15.59
413.216	15.25
413.422	15.08
413.628	16.08
413.834	16.85
414.04	16.11
414.246	15.74
414.452	14.85
414.658	14.22
414.864	14.59
415.07	14.73
415.275	14.34
415.481	14.57
415.687	15.08
415.893	14.59
416.099	14.47
416.305	14.45
416.511	14.37
416.716	14.64
416.922	15.28
417.128	14.82
417.334	14.89
417.539	15.09
417.745	15.28
417.951	15.07
418.157	15.48
418.362	15.54
418.568	15.53
418.774	15.37
418.979	15.34
419.185	14.98
419.391	14.99
419.596	14.69
419.802	14.73
420.008	14.2
420.213	14.44
420.419	14
420.624	13.94
420.83	14.22
421.035	14.42
421.241	14.46
421.446	14.68
421.652	14.9
421.857	15.41
422.063	15.07
422.268	15.36
422.474	14.92
422.679	14.85
422.885	14.65
423.09	14.46
423.295	14.42
423.501	14.2
423.706	14.01
423.911	13.74
424.117	13.33
424.322	13.49
424.527	13.45
424.733	14.12
424.938	13.94
425.143	14.16
425.349	14.05
425.554	14.16
425.759	14.7
425.964	14.7
426.169	14.69
426.375	14.81
426.58	15.11
426.785	15.17
426.99	14.76
427.195	15.29
427.4	15.39
427.605	15.78
427.811	16.04
428.016	15.63
428.221	15.92
428.426	16.54
428.631	16.56
428.836	16.18
429.041	15.94
429.246	15.82
429.451	15.48
429.656	15.36
429.861	15.03
430.066	14.89
430.271	15.44
430.476	15.14
430.681	14.51
430.886	14.49
431.09	14.52
431.295	14.49
431.5	14.96
431.705	14.97
431.91	14.83
432.115	14.92
432.32	14.76
432.524	14.07
432.729	14.11
432.934	14.33
433.139	14.29
433.343	14.26
433.548	14.51
433.753	13.84
433.958	13.78
434.162	14.37
434.367	14.39
434.572	14.19
434.776	14.48
434.981	14.75
435.186	14.76
435.39	14.83
435.595	14.57
435.799	14.32
436.004	14.41
436.209	15.02
436.413	14.23
436.618	14.01
436.822	14.72
437.027	14.91
437.231	14.66
437.436	14.5
437.64	14.59
437.845	14.65
438.049	14.46
438.253	14.38
438.458	13.87
438.662	14.22
438.867	14.36
439.071	14.08
439.275	14.03
439.48	14.19
439.684	14.52
439.888	14.67
440.093	14.49
440.297	14.72
440.501	15.34
440.706	15.47
440.91	15.55
441.114	15.61
441.318	15.66
441.523	15.56
441.727	15.21
441.931	15.21
442.135	15.07
442.339	15.22
442.543	15.28
442.748	14.83
442.952	14.71
443.156	14.27
443.36	14.09
443.564	13.9
443.768	13.96
443.972	14.67
444.176	14.53
444.38	14.03
444.584	14
444.788	13.55
444.992	13.39
445.196	13.32
445.4	13.29
445.604	13.22
445.808	13.27
446.012	12.9
446.216	12.24
446.42	12.15
446.624	12.57
446.828	12.86
447.032	13.11
447.235	13.22
447.439	13.12
447.643	13.46
447.847	13.58
448.051	13.46
448.254	13.81
448.458	14.11
448.662	14.07
448.866	13.87
449.069	13.62
449.273	13.54
449.477	13.63
449.681	13.8
449.884	13.76
450.088	13.57
450.292	13.47
450.495	13.39
450.699	13.58
450.902	13.58
451.106	13.29
451.31	13.58
451.513	13.92
451.717	14
451.92	14.16
452.124	14.19
452.327	14.28
452.531	14.36
452.734	14.47
452.938	14.44
453.141	14.25
453.345	14.55
453.548	14.31
453.752	14.21
453.955	14.03
454.158	14.35
454.362	14.14
454.565	14.34
454.769	14.63
454.972	14.75
455.175	14.65
455.379	15.34
455.582	15.45
455.785	15.32
455.988	15.45
456.192	15.41
456.395	14.92
456.598	14.96
456.801	15.02
457.005	14.75
457.208	14.46
457.411	14.19
457.614	13.61
457.817	13.38
458.021	13.35
458.224	12.96
458.427	13.11
458.63	12.98
458.833	13.09
459.036	12.97
459.239	12.8
459.442	12.66
459.645	12.9
459.848	13.13
460.051	13.49
460.254	13.69
460.457	14.05
460.66	14.03
460.863	14.47
461.066	14.46
461.269	14.35
461.472	14.74
461.675	15.21
461.878	15.23
462.081	15.06
462.284	14.67
462.486	14.43
462.689	14.22
462.892	14.49
463.095	14.63
463.298	14.66
463.5	15.25
463.703	15.04
463.906	14.94
464.109	14.89
464.311	14.89
464.514	15.06
464.717	14.85
464.92	15.4
465.122	15.16
465.325	14.98
465.528	14.85
465.73	14.38
465.933	14.26
466.135	14.2
466.338	14.64
466.541	14.57
466.743	14.68
466.946	14.95
467.148	14.66
467.351	14.63
467.553	14.32
467.756	14.42
467.958	14.65
468.161	15.05
468.363	15.2
468.566	14.64
468.768	15.09
468.971	14.78
469.173	15.47
469.375	15.33
469.578	15.47
469.78	15.6
469.983	16
470.185	15.82
470.387	15.88
470.59	15.62
470.792	15.68
470.994	15.32
471.196	15.48
471.399	14.58
471.601	14.63
471.803	14.52
472.005	14.49
472.208	14.09
472.41	14.01
472.612	13.75
472.814	13.95
473.016	14.07
473.218	14.05
473.421	13.8
473.623	14.11
473.825	13.95
474.027	14.02
474.229	14.39
474.431	14.16
474.633	14.39
474.835	14.2
475.037	13.91
475.239	14.03
475.441	14.21
475.643	14.59
475.845	14.67
476.047	14.84
476.249	14.59
476.451	14.21
476.653	14.17
476.855	14.19
477.057	14.35
477.258	14.19
477.46	14.1
477.662	14.11
477.864	14.17
478.066	14.1
478.268	14.16
478.469	14.3
478.671	14.25
478.873	14.17
479.075	14.08
479.276	14.1
479.478	14.3
479.68	14.34
479.882	14.11
480.083	13.88
480.285	13.7
480.487	13.83
480.688	13.77
480.89	13.86
481.091	13.73
481.293	13.39
481.495	13.23
481.696	12.97
481.898	12.81
482.099	12.68
482.301	12.38
482.502	12.33
482.704	12.08
482.905	11.95
483.107	11.82
483.308	11.75
483.51	11.77
483.711	11.67
483.913	11.71
484.114	11.56
484.315	11.5
484.517	11.59
484.718	11.57
484.92	11.68
485.121	11.6
485.322	11.59
485.524	11.69
485.725	11.83
485.926	11.88
486.127	11.88
486.329	12
486.53	11.91
486.731	11.99
486.932	11.87
487.134	11.82
487.335	11.9
487.536	11.82
487.737	11.83
487.938	11.7
488.139	11.75
488.341	11.65
488.542	11.76
488.743	12.01
488.944	11.98
489.145	12.16
489.346	12.18
489.547	12.28
489.748	12.47
489.949	12.47
490.15	12.56
490.351	12.38
490.552	12.43
490.753	12.24
490.954	12.17
491.155	12.23
491.356	12.19
491.557	12.14
491.758	12.26
491.959	12.19
492.159	12.29
492.36	12.39
492.561	12.71
492.762	12.73
492.963	13.04
493.164	13.38
493.364	13.62
493.565	13.73
493.766	13.77
493.967	13.84
494.167	13.94
494.368	13.92
494.569	13.63
494.769	13.41
494.97	13.68
495.171	13.58
495.371	13.34
495.572	13.07
495.773	13.11
495.973	13.16
496.174	12.77
496.375	13.19
496.575	13.31
496.776	13.39
496.976	13.51
497.177	13.32
497.377	13.19
497.578	13
497.778	13.04
497.979	13.16
498.179	13.39
498.38	13.86
498.58	13.48
498.78	13.38
498.981	13.7
499.181	13.8
499.382	13.95
499.582	14.24
499.782	14.67
499.983	15
500.183	15.2
500.383	15.05
500.584	14.78
500.784	15.03
500.984	15.09
501.184	14.56
501.385	14.52
501.585	14.63
501.785	14.49
501.985	14.51
502.185	14.42
502.386	14.36
502.586	14.85
502.786	15.09
502.986	14.82
503.186	14.9
503.386	15.48
503.586	15.47
503.786	15.65
503.987	15.92
504.187	15.7
504.387	16.07
504.587	15.94
504.787	15.49
504.987	15.33
505.187	15.47
505.387	15.51
505.587	15.29
505.786	15.52
505.986	15.63
506.186	15.43
506.386	15.65
506.586	15.52
506.786	15.53
506.986	15.49
507.186	15.51
507.386	15.66
507.585	15.92
507.785	15.91
507.985	15.97
508.185	16.03
508.384	16.18
508.584	16.25
508.784	16.34
508.984	16.66
509.183	16.99
509.383	17.27
509.583	17.5
509.782	17.19
509.982	17.6
510.182	17.68
510.381	17.45
510.581	17.49
510.781	17.56
510.98	17.42
511.18	17.16
511.379	16.92
511.579	16.71
511.778	16.57
511.978	16.95
512.177	16.72
512.377	16.58
512.576	16.6
512.776	16.6
512.975	16.58
513.175	16.62
513.374	16.81
513.573	17.21
513.773	17.32
513.972	17.59
514.172	17.6
514.371	17.57
514.57	17.83
514.77	18.08
514.969	17.81
515.168	17.95
515.367	17.98
515.567	17.91
515.766	18.02
515.965	17.96
516.164	17.61
516.364	17.29
516.563	17.42
516.762	17.5
516.961	17.33
517.16	17.51
517.359	17.56
517.559	17.5
517.758	17.57
517.957	17.52
518.156	17.68
518.355	17.91
518.554	18.02
518.753	17.94
518.952	17.91
519.151	18.1
519.35	18.32
519.549	18.57
519.748	18.73
519.947	18.85
520.146	19.06
520.345	19.02
520.544	18.78
520.743	18.88
520.942	18.86
521.141	18.91
521.339	19.18
521.538	19.32
521.737	19.18
521.936	19.26
522.135	19.5
522.333	19.69
522.532	19.8
522.731	19.92
522.93	20.19
523.129	20.48
523.327	20.38
523.526	19.91
523.725	19.73
523.923	19.64
524.122	19.54
524.321	19.38
524.519	19.16
524.718	19.2
524.917	19.33
525.115	19.17
525.314	19.21
525.512	19.41
525.711	19.6
525.909	19.54
526.108	19.62
526.306	19.57
526.505	19.55
526.703	19.49
526.902	19.3
527.1	19.32
527.299	19.33
527.497	19.23
527.696	19.1
527.894	19.01
528.092	19.07
528.291	19.02
528.489	19.06
528.688	19.1
528.886	19.08
529.084	19.29
529.283	19.35
529.481	19.43
529.679	19.48
529.877	19.69
530.076	20.1
530.274	20.31
530.472	20.32
530.67	20.47
530.869	20.54
531.067	20.68
531.265	20.81
531.463	20.97
531.661	21.07
531.859	21.29
532.057	21.19
532.255	21.15
532.454	21.06
532.652	21.06
532.85	21.08
533.048	21.1
533.246	21.16
533.444	20.98
533.642	21.04
533.84	21.12
534.038	21.04
534.236	21.12
534.434	21.11
534.632	21.24
534.83	21.44
535.027	21.42
535.225	21.74
535.423	21.82
535.621	22.02
535.819	21.99
536.017	21.97
536.215	22.15
536.412	22.39
536.61	22.37
536.808	22.41
537.006	22.66
537.203	22.79
537.401	22.81
537.599	22.86
537.797	22.79
537.994	22.72
538.192	22.81
538.39	22.71
538.587	22.71
538.785	22.76
538.983	22.92
539.18	22.98
539.378	23.06
539.575	22.96
539.773	22.85
539.97	23
540.168	23.08
540.366	23.04
540.563	22.95
540.761	22.84
540.958	22.87
541.155	22.72
541.353	22.65
541.55	22.77
541.748	22.84
541.945	22.92
542.143	22.86
542.34	22.88
542.537	23.06
542.735	23.31
542.932	23.47
543.129	23.59
543.327	23.83
543.524	23.77
543.721	23.64
543.919	23.62
544.116	23.81
544.313	24.25
544.51	24.15
544.708	24.17
544.905	24.42
545.102	24.23
545.299	24.27
545.496	24.4
545.693	24.7
545.891	24.59
546.088	24.64
546.285	24.72
546.482	24.65
546.679	24.87
546.876	24.82
547.073	24.8
547.27	25.21
547.467	25.32
547.664	25.32
547.861	25.45
548.058	26.1
548.255	26.51
548.452	26.81
548.649	27.05
548.846	27.6
549.043	27.75
549.24	27.81
549.437	27.61
549.633	28.04
549.83	28.08
550.027	27.99
550.224	27.89
550.421	27.73
550.618	27.64
550.814	27.32
551.011	26.79
551.208	26.81
551.405	26.85
551.601	27.14
551.798	26.72
551.995	26.45
552.191	26.51
552.388	26.33
552.585	26.82
552.781	26.98
552.978	27.26
553.175	27.43
553.371	27.38
553.568	27.35
553.764	27.61
553.961	27.68
554.157	28.13
554.354	27.81
554.55	27.79
554.747	27.16
554.943	27.46
555.14	27.23
555.336	27.37
555.533	27.51
555.729	27.83
555.926	27.38
556.122	27.83
556.318	27.78
556.515	28.24
556.711	28.75
556.907	29.25
557.104	28.93
557.3	29.1
557.496	29.23
557.693	29.38
557.889	29.08
558.085	29.73
558.281	29.68
558.478	30
558.674	30.14
558.87	30.4
559.066	30.04
559.262	30.01
559.459	30.2
559.655	30.19
559.851	30.05
560.047	30.25
560.243	30.03
560.439	30.13
560.635	30.35
560.831	30.73
561.027	30.49
561.223	31.08
561.419	31.14
561.615	31.24
561.811	31.45
562.007	31.72
562.203	31.94
562.399	32.09
562.595	31.92
562.791	31.73
562.987	31.53
563.183	31.4
563.379	30.96
563.575	31.08
563.771	31.06
563.966	30.95
564.162	31.01
564.358	31.02
564.554	30.74
564.75	30.86
564.945	30.77
565.141	31.06
565.337	31.18
565.533	31.54
565.728	31.34
565.924	31.43
566.12	31.82
566.315	31.92
566.511	31.72
566.707	32.03
566.902	32.44
567.098	32.56
567.293	32.34
567.489	32.52
567.684	32.25
567.88	32.81
568.076	32.8
568.271	32.64
568.467	32.57
568.662	32.59
568.858	32.82
569.053	32.52
569.248	32.85
569.444	32.79
569.639	32.77
569.835	32.73
570.03	32.71
570.225	32.49
570.421	32.16
570.616	32.45
570.812	32.81
571.007	32.73
571.202	32.89
571.397	32.68
571.593	32.89
571.788	32.74
571.983	33.05
572.178	32.97
572.374	33.3
572.569	33.44
572.764	33.17
572.959	33
573.154	32.98
573.35	33.1
573.545	33.45
573.74	33.44
573.935	33.85
574.13	33.92
574.325	33.86
574.52	33.91
574.715	34.47
574.91	34.73
575.105	34.9
575.3	35.42
575.495	35.41
575.69	35.56
575.885	35.45
576.08	35.07
576.275	35.07
576.47	35.68
576.665	35.93
576.86	35.58
577.055	35.8
577.25	35.71
577.444	35.77
577.639	35.88
577.834	35.87
578.029	36.35
578.224	36.87
578.418	37.27
578.613	36.96
578.808	37.22
579.003	37.36
579.197	36.99
579.392	37.7
579.587	37.33
579.781	37.28
579.976	37.46
580.171	37.48
580.365	37.26
580.56	37.04
580.755	36.84
580.949	36
581.144	35.76
581.338	36.51
581.533	36.1
581.727	36.38
581.922	36.37
582.116	36.04
582.311	36.04
582.505	36.49
582.7	36.01
582.894	36.89
583.089	37.53
583.283	38.09
583.478	38.38
583.672	38.85
583.866	39
584.061	39.59
584.255	40.23
584.449	40.81
584.644	41.22
584.838	42.06
585.032	42.05
585.226	41.91
585.421	42.28
585.615	41.65
585.809	41.25
586.003	41.12
586.198	41.07
586.392	40.51
586.586	40.28
586.78	40.03
586.974	39.73
587.168	39.46
587.363	39.79
587.557	39.24
587.751	39.5
587.945	40.08
588.139	39.74
588.333	39.54
588.527	39.72
588.721	39.8
588.915	39.49
589.109	39.36
589.303	39.13
589.497	39.26
589.691	39.41
589.885	39.32
590.079	39.24
590.273	39.83
590.466	39.82
590.66	40.31
590.854	39.84
591.048	40.14
591.242	40.54
591.436	41
591.629	40.71
591.823	40.69
592.017	40.57
592.211	40.39
592.404	40.26
592.598	40.22
592.792	40.14
592.986	40.4
593.179	40.25
593.373	40.39
593.567	40.16
593.76	40.22
593.954	40.79
594.147	40.83
594.341	40.33
594.535	40.22
594.728	40.28
594.922	40.07
595.115	39.59
595.309	39.83
595.502	39.9
595.696	40.45
595.889	40.54
596.083	40.41
596.276	40.81
596.47	41.19
596.663	41.32
596.856	41.54
597.05	41.42
597.243	42.52
597.437	42.69
597.63	42.76
597.823	42.85
598.017	42.72
598.21	42.11
598.403	42.04
598.596	42.2
598.79	42.68
598.983	42.94
599.176	42.96
599.369	42.47
599.563	42.49
599.756	42.15
599.949	41.75
600.142	42.16
600.335	42.74
600.528	42.48
600.722	42.39
600.915	42.29
601.108	42.6
601.301	42.97
601.494	42.53
601.687	42.17
601.88	42.16
602.073	41.51
602.266	41.6
602.459	41.35
602.652	41.17
602.845	41.37
603.038	41.32
603.231	40.96
603.424	40.96
603.617	41.03
603.809	41.07
604.002	41.41
604.195	41.77
604.388	41.57
604.581	41.83
604.774	42.51
604.966	42.45
605.159	42.2
605.352	41.93
605.545	41.99
605.737	42.23
605.93	42.94
606.123	42.87
606.316	43.52
606.508	43.5
606.701	43.61
606.894	43.43
607.086	43.54
607.279	43.89
607.471	44.06
607.664	43.9
607.857	44.03
608.049	43.23
608.242	42.84
608.434	42.4
608.627	43.27
608.819	43.08
609.012	42.87
609.204	42.87
609.397	42.79
609.589	43
609.782	43.6
609.974	43.67
610.166	44.58
610.359	45.21
610.551	45.73
610.743	44.85
610.936	45.29
611.128	46
611.32	46.49
611.513	46.8
611.705	47.61
611.897	47.5
612.09	47.81
612.282	47.55
612.474	48.18
612.666	48.5
612.858	49.32
613.051	49.38
613.243	49.11
613.435	49.27
613.627	49.39
613.819	48.98
614.011	48.47
614.203	48.58
614.395	48.44
614.588	48.22
614.78	48.15
614.972	49.05
615.164	49.13
615.356	49.68
615.548	49.24
615.74	49.5
615.932	48.96
616.124	49.45
616.315	49.25
616.507	49.02
616.699	48.56
616.891	48.52
617.083	47.93
617.275	48.09
617.467	47.64
617.659	47.14
617.85	47.45
618.042	48.1
618.234	47.42
618.426	48.08
618.618	48.11
618.809	48.62
619.001	49.11
619.193	48.72
619.384	48.37
619.576	48.5
619.768	48.83
619.959	48.13
620.151	47.96
620.343	48.13
620.534	47.87
620.726	49
620.917	49
621.109	48.43
621.301	48.38
621.492	48.56
621.684	48.28
621.875	48.14
622.067	48.2
622.258	48.2
622.45	49.11
622.641	48.94
622.832	49.53
623.024	48.74
623.215	49.05
623.407	49.02
623.598	48.83
623.789	49.03
623.981	49.41
624.172	49.93
624.363	50.24
624.555	49.41
624.746	49.19
624.937	48.09
625.129	48.35
625.32	47.95
625.511	47.98
625.702	48.09
625.893	48.33
626.085	48.25
626.276	47.72
626.467	47.54
626.658	47.6
626.849	47.73
627.04	47.87
627.231	48.1
627.422	47.98
627.614	48.07
627.805	48.42
627.996	47.75
628.187	47.96
628.378	48.19
628.569	48.16
628.76	48.45
628.951	48.59
629.142	48.68
629.332	48.75
629.523	49.17
629.714	48.92
629.905	49.07
630.096	49.52
630.287	49.37
630.478	49.06
630.669	49.04
630.859	48.98
631.05	48.41
631.241	47.96
631.432	48.03
631.623	47.85
631.813	48.97
632.004	48.62
632.195	48.29
632.385	48.34
632.576	48.41
632.767	48.38
632.957	48.69
633.148	48.84
633.339	49.47
633.529	49.5
633.72	49.08
633.91	48.2
634.101	48.34
634.292	49.09
634.482	48.91
634.673	49.65
634.863	49.48
635.054	49.55
635.244	50.65
635.435	50.89
635.625	50.89
635.815	51.19
636.006	51.13
636.196	51.57
636.387	51.7
636.577	52.41
636.767	52.29
636.958	52.34
637.148	52.94
637.338	52.54
637.529	52.22
637.719	52.56
637.909	53.27
638.099	54.98
638.29	54.26
638.48	54.36
638.67	54.11
638.86	53.67
639.05	54.21
639.241	54.03
639.431	54.45
639.621	54.89
639.811	54.38
640.001	54.4
640.191	53.47
640.381	53.69
640.571	53.44
640.761	54.47
640.951	55.8
641.141	55.87
641.331	56.54
641.521	56.08
641.711	56.07
641.901	56.29
642.091	56.81
642.281	56.7
642.471	56.97
642.661	57.42
642.851	56.17
643.041	54.75
643.231	54.57
643.42	53.53
643.61	53.23
643.8	53.52
643.99	53.4
644.18	52.83
644.369	53.3
644.559	53.35
644.749	52.87
644.939	52.75
645.128	52.98
645.318	53.49
645.508	53.11
645.697	53.68
645.887	53.57
646.076	54.27
646.266	54.9
646.456	54.67
646.645	54.54
646.835	55.28
647.024	55.78
647.214	56.1
647.403	55.93
647.593	55.86
647.782	54.92
647.972	55.02
648.161	55.11
648.351	54.63
648.54	54.47
648.73	55.1
648.919	54.71
649.108	54.62
649.298	54.44
649.487	54.52
649.677	55.43
649.866	56.35
650.055	55.73
650.244	55.47
650.434	55.87
650.623	55.67
650.812	54.93
651.002	55.07
651.191	55.44
651.38	55.45
651.569	55.52
651.758	55.21
651.947	55.19
652.137	55.07
652.326	55.26
652.515	55.13
652.704	55.05
652.893	55.48
653.082	55.95
653.271	56.21
653.46	56.39
653.649	56.26
653.838	55.72
654.027	56.16
654.216	56.55
654.405	57.12
654.594	57.43
654.783	57.49
654.972	58.35
655.161	57.56
655.35	57.75
655.539	57.72
655.728	57.09
655.916	57.09
656.105	56.97
656.294	56.14
656.483	55.41
656.672	54.74
656.86	54.51
657.049	53.66
657.238	53.61
657.427	52.86
657.615	53.52
657.804	53.56
657.993	53.44
658.181	53.44
658.37	53.79
658.559	53.53
658.747	53.64
658.936	53.69
659.125	52.33
659.313	51.94
659.502	51.72
659.69	51.53
659.879	52.19
660.067	52.39
660.256	52.09
660.444	52.29
660.633	52.52
660.821	52.53
661.01	53.08
661.198	55.27
661.387	55.96
661.575	56.42
661.763	56.93
661.952	56.65
662.14	57.16
662.328	57.66
662.517	58.57
662.705	58.36
662.893	58.68
663.082	58.4
663.27	57.47
663.458	58.04
663.646	58.37
663.834	57.42
664.023	58.56
664.211	57.74
664.399	58.02
664.587	57.25
664.775	57.58
664.963	57.07
665.152	58.04
665.34	59.44
665.528	59.38
665.716	59.98
665.904	60.36
666.092	59.03
666.28	60.41
666.468	59.74
666.656	60.4
666.844	60.55
667.032	60.35
667.22	59.75
667.408	59.14
667.596	58.8
667.784	59.04
667.971	59.13
668.159	59.46
668.347	58.81
668.535	59.21
668.723	58.17
668.911	57.37
669.098	57.83
669.286	58.28
669.474	58.95
669.662	59.68
669.849	58.43
670.037	59.11
670.225	59.85
670.413	60.18
670.6	59.54
670.788	60.63
670.976	61.36
671.163	61.01
671.351	60.69
671.538	59.98
671.726	59.84
671.913	60.69
672.101	60.01
672.289	59.76
672.476	59.9
672.664	60.74
672.851	59.78
673.039	59.85
673.226	61.28
673.413	60.78
673.601	61.06
673.788	61.42
673.976	60.92
674.163	60.46
674.35	60.01
674.538	59.61
674.725	59.49
674.912	59.19
675.1	59.74
675.287	58.79
675.474	60.02
675.662	59.61
675.849	58.52
676.036	58.92
676.223	59.34
676.411	59.88
676.598	60.02
676.785	59.73
676.972	60.49
677.159	60.82
677.346	60.39
677.533	60.12
677.721	60.05
677.908	59.02
678.095	59.05
678.282	58.56
678.469	57.49
678.656	57.33
678.843	57.62
679.03	57.86
679.217	57.13
679.404	56.99
679.591	56.37
679.778	56.69
679.964	57.74
680.151	57.46
680.338	58.14
680.525	58.74
680.712	59.02
680.899	58.38
681.086	58.44
681.272	58.69
681.459	59.84
681.646	59.63
681.833	59.47
682.02	59.99
682.206	60.84
682.393	61.49
682.58	62.15
682.766	65.51
682.953	66.26
683.14	66.43
683.326	67.33
683.513	67.71
683.7	69.23
683.886	69.7
684.073	71.01
684.259	69.75
684.446	68.86
684.632	69.21
684.819	64.63
685.005	64.74
685.192	64.15
685.378	63.71
685.565	63.17
685.751	62.01
685.938	62.21
686.124	59.65
686.31	59.88
686.497	59.8
686.683	59.93
686.87	61.34
687.056	60.58
687.242	60.99
687.429	61.49
687.615	61.04
687.801	62.67
687.987	62.2
688.174	63.39
688.36	63.78
688.546	63.68
688.732	62.7
688.918	61.83
689.105	62.79
689.291	64.07
689.477	62.99
689.663	63.19
689.849	62.72
690.035	62.64
690.221	62.43
690.407	63.9
690.593	64.73
690.779	64.73
690.965	67.16
691.151	67.1
691.337	66.39
691.523	66.3
691.709	66.15
691.895	65.78
692.081	66.87
692.267	67.13
692.453	65.53
692.639	64.93
692.825	65.32
693.011	63.43
693.196	64.87
693.382	64.13
693.568	64.43
693.754	66.3
693.94	66.53
694.125	65.99
694.311	65.12
694.497	65.03
694.682	66.19
694.868	65.76
695.054	66.27
695.239	65.58
695.425	65.18
695.611	64.55
695.796	62.92
695.982	62.42
696.168	62.23
696.353	62.78
696.539	63.31
696.724	62.44
696.91	62.22
697.095	61.63
697.281	60.82
697.466	60.62
697.652	61.54
697.837	60.75
698.023	60.56
698.208	60.42
698.393	60.75
698.579	60.39
698.764	59.78
698.949	60.15
699.135	60.4
699.32	60.48
699.505	61.19
699.691	60.64
699.876	61.19
700.061	62.09
700.246	62.61
700.432	63.09
700.617	63.14
700.802	64.16
700.987	64.19
701.172	63.18
701.358	62.74
701.543	63.49
701.728	65.72
701.913	66.99
702.098	66.88
702.283	67.79
702.468	67.62
702.653	68.55
702.838	69.4
703.023	69.59
703.208	71.47
703.393	73.21
703.578	71.34
703.763	70.54
703.948	71.87
704.133	71.93
704.318	72.6
704.503	72.96
704.688	72.55
704.873	71.71
705.057	72.97
705.242	73.04
705.427	73.26
705.612	74.33
705.797	74.56
705.981	73.14
706.166	73.66
706.351	73.26
706.536	73.81
706.72	74.38
706.905	74.28
707.09	74.96
707.274	75.22
707.459	73.88
707.644	74.6
707.828	73.17
708.013	73.17
708.197	72.07
708.382	70.03
708.567	68.28
708.751	68.65
708.936	69.38
709.12	68.62
709.305	67.84
709.489	67.51
709.673	66.31
709.858	67.24
710.042	67.42
710.227	68.14
710.411	69.72
710.596	69.58
710.78	68.66
710.964	67.48
711.149	66.03
711.333	66.54
711.517	66.26
711.702	67.11
711.886	66.42
712.07	65.92
712.254	64.95
712.438	64.99
712.623	64.12
712.807	63.91
712.991	65.22
713.175	65.72
713.359	66.02
713.544	67.91
713.728	68.61
713.912	69.14
714.096	69.07
714.28	69.47
714.464	68.5
714.648	70.09
714.832	71.93
715.016	72.16
715.2	71.69
715.384	71.07
715.568	69.81
715.752	69
715.936	69.01
716.12	69.34
716.304	68.63
716.488	69.73
716.671	70.52
716.855	69.47
717.039	68.33
717.223	69.9
717.407	71.53
717.59	71.54
717.774	72.97
717.958	73.06
718.142	74.51
718.325	75.81
718.509	76.91
718.693	76.09
718.877	76.51
719.06	79.08
719.244	79.7
719.428	79.88
719.611	81.49
719.795	80.09
719.978	82.07
720.162	80.77
720.345	80.96
720.529	80.64
720.713	79.67
720.896	80.74
721.08	80.46
721.263	79.34
721.446	77.8
721.63	78
721.813	79.08
721.997	78.2
722.18	81.54
722.364	81.65
722.547	81.82
722.73	84.23
722.914	81.91
723.097	80.4
723.28	81.58
723.464	80.99
723.647	81.08
723.83	81.15
724.013	81.77
724.197	78.28
724.38	78.62
724.563	77.18
724.746	78.3
724.929	78.75
725.112	79.83
725.296	77.4
725.479	76.42
725.662	77.59
725.845	75.65
726.028	72.86
726.211	72.86
726.394	72.42
726.577	71.68
726.76	69.78
726.943	70.22
727.126	70.95
727.309	71.91
727.492	73
727.675	71.44
727.858	72.62
728.041	74.01
728.224	73.27
728.407	73.67
728.589	74.94
728.772	74.48
728.955	73.98
729.138	72.92
729.321	73.47
729.503	74.01
729.686	74.71
729.869	74.46
730.052	73.79
730.234	75.42
730.417	75.34
730.6	74.45
730.782	76.36
730.965	77.13
731.148	77.9
731.33	78.25
731.513	77.65
731.695	77.31
731.878	77.21
732.061	77.62
732.243	77.26
732.426	77.43
732.608	78.59
732.791	77.91
732.973	76.66
733.156	75.66
733.338	75.78
733.52	76.67
733.703	77.75
733.885	80.6
734.068	79.88
734.25	81.28
734.432	81.82
734.615	80.79
734.797	79.54
734.979	83.07
735.162	83.13
735.344	80.9
735.526	81.12
735.708	81.1
735.891	79.21
736.073	80.59
736.255	79.01
736.437	78.75
736.619	77.67
736.802	78.44
736.984	77.16
737.166	77.36
737.348	80.9
737.53	80.53
737.712	79.07
737.894	78.83
738.076	78.71
738.258	79.14
738.44	78.55
738.622	80.77
738.804	82.34
738.986	81.24
739.168	82.62
739.35	80.29
739.532	80.48
739.714	82.58
739.896	85.3
740.078	85.24
740.259	84.75
740.441	85.54
740.623	86.29
740.805	86.07
740.987	85.9
741.168	85.38
741.35	89.34
741.532	91.42
741.714	89.49
741.895	84.92
742.077	86.48
742.259	88.6
742.44	90.03
742.622	90.88
742.804	90.43
742.985	91.21
743.167	92.21
743.348	88.86
743.53	88.3
743.711	90.81
743.893	93.17
744.075	93.55
744.256	92.54
744.438	91.84
744.619	91.04
744.8	91.35
744.982	91.08
745.163	90.66
745.345	91.6
745.526	90.29
745.707	87.38
745.889	87.98
746.07	86.39
746.252	87.29
746.433	86.31
746.614	84.72
746.795	85.79
746.977	89.9
747.158	90.88
747.339	90.67
747.52	91
747.702	91.09
747.883	90.89
748.064	93.14
748.245	90.95
748.426	92.34
748.607	91.72
748.788	89.93
748.97	89.85
749.151	86.67
749.332	86.84
749.513	85.61
749.694	89.29
749.875	89.18
750.056	86.72
750.237	87.81
750.418	85.54
750.599	87.05
750.78	86.02
750.96	80.77
751.141	83.24
751.322	83.23
751.503	84.96
751.684	82.37
751.865	79.49
752.046	80.44
752.226	78.61
752.407	79.19
752.588	80.41
752.769	80.93
752.949	81.28
753.13	79.45
753.311	79.04
753.492	78.48
753.672	78.41
753.853	85.48
754.034	84.66
754.214	86.66
754.395	88.48
754.575	87.07
754.756	85.89
754.937	87.26
755.117	88.44
755.298	89.3
755.478	89.76
755.659	88.64
755.839	85.81
756.02	88.01
756.2	87.99
756.381	86.97
756.561	85.64
756.741	87.78
756.922	86.42
757.102	83.48
757.283	83.62
757.463	81.49
757.643	82.73
757.823	82.99
758.004	81.39
758.184	81.02
758.364	80.46
758.545	81.59
758.725	82.52
758.905	82.92
759.085	86.77
759.265	88.4
759.446	89.66
759.626	89.52
759.806	88.15
759.986	88.19
760.166	87.84
760.346	88.22
760.526	86.77
760.706	85.48
760.886	86.23
761.066	85.66
761.246	81.5
761.426	80.72
761.606	78.85
761.786	78.28
761.966	75.1
762.146	74.22
762.326	73.91
762.506	73.68
762.686	72.77
762.866	72.16
763.046	68.65
763.225	69.7
763.405	69.13
763.585	69.57
763.765	70.09
763.945	72.8
764.124	73.61
764.304	74.36
764.484	76.2
764.664	76.07
764.843	78.01
765.023	82.84
765.203	82.98
765.382	85.19
765.562	87.46
765.741	89.03
765.921	88.14
766.101	89.02
766.28	91.42
766.46	91.59
766.639	93.8
766.819	94.47
766.998	95.44
767.178	96.52
767.357	97.7
767.537	97.4
767.716	95.87
767.896	95.47
768.075	95.63
768.254	90.68
768.434	89.61
768.613	90.25
768.792	89.89
768.972	87.71
769.151	88.19
769.33	87.94
769.51	87.58
769.689	88.92
769.868	91.2
770.047	92.81
770.226	94.93
770.406	98.61
770.585	100.11
770.764	97.77
770.943	97.74
771.122	97.74
771.301	97.21
771.48	98.69
771.66	100.26
771.839	101.43
772.018	101.66
772.197	106.07
772.376	102.51
772.555	100.24
772.734	104.62
772.913	107.92
773.092	111.07
773.271	109.2
773.449	112.55
773.628	112.21
773.807	113.22
773.986	113.69
774.165	109.37
774.344	109.05
774.523	108.05
774.701	107.03
774.88	106.38
775.059	107.81
775.238	110.47
775.417	109.75
775.595	109.73
775.774	109.33
775.953	107.6
776.131	110.9
776.31	109.97
776.489	110.73
776.667	110.78
776.846	112.24
777.025	108.74
777.203	108.77
777.382	105.73
777.56	105.54
777.739	100.44
777.917	102.79
778.096	102.17
778.274	105.68
778.453	105.44
778.631	105.44
778.81	105.08
778.988	104.71
779.166	107.66
779.345	108.56
779.523	108.5
779.702	112.49
779.88	110.5
780.058	108.69
780.237	107.01
780.415	107.65
780.593	104.5
780.771	100.65
780.95	100.09
781.128	98.75
781.306	102.45
781.484	105.09
781.662	107.8
781.841	105.71
782.019	110.23
782.197	109.3
782.375	108.56
782.553	111.98
782.731	115.91
782.909	113.98
783.087	112.69
783.265	109.64
783.443	106.7
783.621	106.83
783.799	112.48
783.977	109.31
784.155	107.25
784.333	111.05
784.511	106.56
784.689	107.2
784.867	109.05
785.045	107.88
785.223	106.54
785.4	104.21
785.578	108.41
785.756	106.6
785.934	103.24
786.112	107.88
786.289	112.18
786.467	114.82
786.645	113.57
786.823	112.15
787	109.19
787.178	104.66
787.356	106.68
787.533	98.55
787.711	97.55
787.889	97.68
788.066	94.8
788.244	87.97
788.421	90.1
788.599	90.93
788.776	90.71
788.954	94.56
789.131	98.15
789.309	99.41
789.486	99.67
789.664	96.23
789.841	98.79
790.019	99.07
790.196	103.62
790.373	102.39
790.551	98.87
790.728	101.07
790.906	100.97
791.083	100.48
791.26	99.11
791.437	102.63
791.615	110.56
791.792	105.4
791.969	104.17
792.146	102.67
792.324	102.63
792.501	105.24
792.678	105.8
792.855	103.26
793.032	106.32
793.209	103.44
793.387	107.69
793.564	101.9
793.741	107.42
793.918	110.48
794.095	112.33
794.272	109.29
794.449	103.79
794.626	104
794.803	105.05
794.98	97.46
795.157	104.1
795.334	95.9
795.511	99.67
795.688	93.72
795.864	93.3
796.041	92.71
796.218	93.97
796.395	102.45
796.572	100.73
796.749	105.42
796.925	111.68
797.102	106.43
797.279	105.68
797.456	106.9
797.632	113.73
797.809	114.28
797.986	110.56
798.162	112.31
798.339	109.26
798.516	111.86
798.692	105.7
798.869	107.84
799.046	108.26
799.222	116.08
799.399	109.52
799.575	107.32
799.752	105.6
799.928	105.99
800.105	107.19
800.281	104.33
800.458	103.24
800.634	103.3
800.811	96.62
800.987	99.34
801.163	96.35
801.34	102.1
801.516	101.63
801.692	104.89
801.869	108.66
802.045	107.76
802.221	110.37
802.398	113.59
802.574	115
802.75	119.35
802.926	118.83
803.103	121.48
803.279	120.88
803.455	120.76
803.631	118.74
803.807	118
803.983	116.66
804.16	113.09
804.336	110.71
804.512	113.54
804.688	114.58
804.864	110.49
805.04	106.42
805.216	108.72
805.392	115.15
805.568	112.63
805.744	113.75
805.92	111.73
806.096	117.95
806.272	120.71
806.448	119.89
806.623	120.74
806.799	127
806.975	126.97
807.151	118.9
807.327	111.58
807.503	113.12
807.678	105.24
807.854	110.06
808.03	107.45
808.206	105.26
808.381	106.31
808.557	102.82
808.733	97.98
808.908	100.63
809.084	101.58
809.26	106.18
809.435	107.21
809.611	112.68
809.787	111.8
809.962	111.07
810.138	111.79
810.313	105.97
810.489	112.85
810.664	117.76
810.84	120.65
811.015	125.17
811.191	122.33
811.366	126.27
811.542	136.24
811.717	133.82
811.892	138.03
812.068	139.7
812.243	145.5
812.419	136
812.594	138.49
812.769	137.51
812.944	140.94
813.12	145.34
813.295	138.9
813.47	130.25
813.645	135.64
813.821	128.82
813.996	122.16
814.171	121.53
814.346	122.96
814.521	119.07
814.697	120.34
814.872	117.17
815.047	113.27
815.222	110.38
815.397	107.71
815.572	103.64
815.747	107.01
815.922	111.7
816.097	111.3
816.272	111.76
816.447	114.21
816.622	113.88
816.797	115.9
816.972	114.55
817.147	114.74
817.322	116.48
817.496	112.77
817.671	114.6
817.846	112.55
818.021	109.15
818.196	110.38
818.371	106.16
818.545	99.73
818.72	96.06
818.895	93.69
819.069	94.27
819.244	89.82
819.419	86.01
819.594	79.54
819.768	72.88
819.943	68.15
820.117	62.64
820.292	60.16
820.467	58.32
820.641	56.14
820.816	55.87
820.99	53.98
821.165	51.51
821.339	50.4
821.514	48.77
821.688	48.52
821.863	48.64
822.037	48.82
822.212	48.62
822.386	47.88
822.56	46.57
822.735	46.57
822.909	46.08
823.084	47.01
823.258	47.15
823.432	49.04
823.606	49.52
823.781	49.53
823.955	49.48
824.129	49.56
824.303	50.4
824.478	52.72
824.652	53.28
824.826	53.59
825	54.36
825.174	55.3
825.348	55.47
825.523	55.87
825.697	56.99
825.871	57.89
826.045	57.95
826.219	58.97
826.393	57.72
826.567	56.33
826.741	57.44
826.915	56.68
827.089	57.61
827.263	56.31
827.437	56.54
827.611	55.09
827.784	55.11
827.958	57.76
828.132	56.42
828.306	58.42
828.48	60.5
828.654	61.56
828.827	64.02
829.001	67.9
829.175	71.12
829.349	73.82
829.522	78.36
829.696	80.63
829.87	79.12
830.044	85.38
830.217	86.01
830.391	87.92
830.565	90.98
830.738	91.36
830.912	85.82
831.085	88.3
831.259	88.79
831.432	87.89
831.606	82.74
831.779	80.84
831.953	77.2
832.126	81.16
832.3	81.84
832.473	80.27
832.647	79.48
832.82	78.79
832.994	75.88
833.167	74.39
833.34	72.31
833.514	74.21
833.687	75.86
833.86	76.56
834.034	72.04
834.207	70.33
834.38	70.68
834.553	68.79
834.727	70.93
834.9	68.73
835.073	69.84
835.246	69.88
835.419	70.16
835.593	70
835.766	71.53
835.939	73.3
836.112	74.47
836.285	72.25
836.458	75.94
836.631	74.94
836.804	88.64
836.977	91.62
837.15	96.57
837.323	100.35
837.496	101.07
837.669	102.71
837.842	103.04
838.015	108.73
838.188	113.57
838.361	107.09
838.533	108.27
838.706	99.78
838.879	97.25
839.052	101.19
839.225	101.81
839.398	104.25
839.57	102.05
839.743	107.36
839.916	108.64
840.088	107.6
840.261	118.74
840.434	121.92
840.607	130.32
840.779	142.19
840.952	140.45
841.124	143.33
841.297	142.99
841.47	156.55
841.642	158.23
841.815	149.01
841.987	160.21
842.16	158.32
842.332	156.42
842.505	148.01
842.677	142.48
842.85	154.47
843.022	156.49
843.194	145.26
843.367	141.11
843.539	142.27
843.712	150.52
843.884	148.74
844.056	141.27
844.229	148.65
844.401	162.13
844.573	176.23
844.745	163.06
844.918	179.08
845.09	194.28
845.262	210.33
845.434	243.81
845.606	243.54
845.779	245.03
845.951	227.5
846.123	234.87
846.295	239.44
846.467	267.29
846.639	251.68
846.811	287.7
846.983	274.94
847.155	274.38
847.327	226.97
847.499	222.64
847.671	220.53
847.843	208.33
848.015	191.23
848.187	174.98
848.359	165.46
848.531	189.98
848.703	166.15
848.875	205.09
849.047	193.05
849.218	190.78
849.39	187.66
849.562	210.75
849.734	260.74
849.905	258.11
850.077	289.37
850.249	276.08
850.421	231.69
850.592	213.98
850.764	186.79
850.936	178.71
851.107	170
851.279	172.98
851.451	152.67
851.622	152.51
851.794	163.75
851.965	163.81
852.137	158.03
852.308	168.41
852.48	179.81
852.651	173.19
852.823	173.08
852.994	177.91
853.166	180.68
853.337	194.34
853.509	199.6
853.68	185.51
853.851	174.92
854.023	166.83
854.194	146.05
854.365	148.86
854.537	142.01
854.708	159.47
854.879	142.98
855.05	154.82
855.222	137
855.393	138.9
855.564	147.78
855.735	165.98
855.906	175.91
856.078	179.25
856.249	159.75
856.42	167.08
856.591	157.72
856.762	178.19
856.933	178.1
857.104	177.38
857.275	170.8
857.446	169.47
857.617	151.14
857.788	142.62
857.959	152.82
858.13	180.4
858.301	179.62
858.472	179.17
858.643	190.97
858.814	198.28
858.985	235.02
859.155	296.04
859.326	277.62
859.497	326.3
859.668	571.39
859.839	508.84
860.009	328
860.18	378.42
860.351	319.52
860.522	255.69
860.692	228.14
860.863	209.78
861.034	182.67
861.204	177.12
861.375	155.44
861.546	134.98
861.716	128.45
861.887	145.89
862.057	155.9
862.228	173.62
862.398	167.96
862.569	178.32
862.739	195.89
862.91	175.47
863.08	177.07
863.251	192.13
863.421	206.71
863.592	245.4
863.762	208.23
863.932	171.84
864.103	168.94
864.273	189.26
864.443	156.31
864.614	139.28
864.784	161.58
864.954	180.68
865.125	185.37
865.295	171.44
865.465	189.95
865.635	216.95
865.805	225.58
865.976	224.63
866.146	179.83
866.316	200.85
866.486	246.58
866.656	214.94
866.826	251.35
866.996	227.59
867.166	276.63
867.336	230.58
867.506	167.15
867.676	160.19
867.846	160.41
868.016	174.16
868.186	171.36
868.356	158.66
868.526	157.95
868.696	136.52
868.866	138.86
869.036	139.64
869.206	139.53
869.376	140.59
869.545	142.61
869.715	162.74
869.885	163.38
870.055	168.77
870.224	148.98
870.394	166.93
870.564	191.28
870.734	183.32
870.903	197.54
871.073	193.88
871.243	221.01
871.412	241.68
871.582	206.08
871.751	204.56
871.921	209.06
872.091	284.16
872.26	209.69
872.43	187.92
872.599	194.26
872.769	186.51
872.938	205.98
873.108	192.99
873.277	160.37
873.446	170.13
873.616	183.79
873.785	181.1
873.955	165.95
874.124	170.88
874.293	173.18
874.463	162.24
874.632	161.54
874.801	149.18
874.971	147.65
875.14	196.3
875.309	188.38
875.478	145.51
875.647	130.46
875.817	130.05
875.986	143.8
876.155	146.92
876.324	158.72
876.493	146.46
876.662	151.07
876.831	151.88
877	128.01
877.17	125.96
877.339	129.59
877.508	147.26
877.677	160.41
877.846	149.25
878.015	146
878.184	124.01
878.352	121.37
878.521	106.36
878.69	105.47
878.859	106.2
879.028	102.17
879.197	106.11
879.366	95.84
879.534	84.2
879.703	73.55
879.872	70.28
880.041	68
880.21	67.12
880.378	62.58
880.547	60.08
880.716	58.94
880.884	56.32
881.053	54.23
881.222	52.47
881.39	52.89
881.559	50.6
881.727	49.83
881.896	50.72
882.065	51.43
882.233	52.6
882.402	51.28
882.57	52.44
882.739	52.73
882.907	53.01
883.076	52.38
883.244	50.21
883.412	52.95
883.581	53.24
883.749	54.1
883.918	54.31
884.086	56.62
884.254	59.6
884.423	62.53
884.591	64.79
884.759	68.68
884.927	76.71
885.096	85.67
885.264	89.63
885.432	94.53
885.6	99.28
885.769	106.68
885.937	113.02
886.105	125.4
886.273	129.15
886.441	134.96
886.609	140.34
886.777	129.04
886.945	133.9
887.113	144.09
887.281	132.63
887.449	136.62
887.617	138.69
887.785	132.75
887.953	127.8
888.121	133.79
888.289	133.97
888.457	129.34
888.625	139.47
888.793	134.45
888.961	145.42
889.129	168.86
889.296	174.91
889.464	175.48
889.632	204.22
889.8	226.11
889.967	201.57
890.135	210.47
