Data from JASIL_3050_Reflection_01.txt Node
Date: Mon Nov 09 11:18:22 EST 2015
User: Geneva
Spectrometer: USB4E03002
Autoset integration time: false
Trigger mode: 4
Integration Time (sec): 1.000000E-1
Scans to average: 10
Electric dark correction enabled: false
Nonlinearity correction enabled: false
Boxcar width: 5
Stray light correction enabled: false
XAxis mode: Wavelengths
Stop averaging: false
Number of Pixels in Spectrum: 3648
>>>>>Begin Spectral Data<<<<<
177.575	175.76
177.794	2200
178.014	-16600
178.233	-171.7
178.452	-94.81
178.672	582.35
178.891	-263.89
179.11	-64.38
179.33	-193.75
179.549	1461.54
179.768	59.38
179.987	105.49
180.207	3114.29
180.426	-464.71
180.645	-16.09
180.864	71.03
181.084	266.91
181.303	-32800
181.522	-185.58
181.741	-248.68
181.96	-174.69
182.179	1.33
182.398	-0.41
182.618	-9.16
182.837	-39.95
183.056	-45.34
183.275	-20.54
183.494	-2.45
183.713	4.31
183.932	1.37
184.151	29.75
184.37	69.19
184.589	338.98
184.808	171.82
185.027	161.8
185.246	108.99
185.465	-90.65
185.684	345.59
185.903	551.52
186.122	189.29
186.341	272.08
186.56	169.42
186.779	153.01
186.998	153.69
187.216	129.74
187.435	148.86
187.654	137.48
187.873	100
188.092	132.9
188.311	91.48
188.53	84.84
188.748	46.01
188.967	45.84
189.186	6.63
189.405	-6.11
189.623	-179.01
189.842	-68.31
190.061	-40.49
190.28	-64.89
190.498	-109.84
190.717	-123.14
190.936	-63.67
191.154	-55.68
191.373	-1966.67
191.592	-7400
191.81	205
192.029	419.23
192.248	-265.93
192.466	-448.78
192.685	447.73
192.904	-447.37
193.122	-356.36
193.341	-215.25
193.559	868.42
193.778	151.32
193.996	420
194.215	127.59
194.433	366.67
194.652	-123.81
194.87	43.37
195.089	37.93
195.307	154.84
195.526	2228.57
195.744	231.82
195.963	-6625
196.181	-430.38
196.399	-228.21
196.618	-175.76
196.836	-141.24
197.055	-105.19
197.273	-152.97
197.491	-57.34
197.71	20
197.928	12.5
198.146	9.5
198.365	69.16
198.583	132.12
198.801	315.52
199.019	166.18
199.238	139.24
199.456	203.78
199.674	128.16
199.892	106.01
200.111	250
200.329	87.23
200.547	429.79
200.765	226.67
200.983	1.3
201.202	-6.25
201.42	369.81
201.638	82.81
201.856	100
202.074	96.32
202.292	68.65
202.51	38.97
202.728	33.77
202.946	46.97
203.165	36.86
203.383	-50
203.601	-92.86
203.819	-81.43
204.037	13.24
204.255	43.93
204.473	-120.48
204.691	-53.66
204.909	-309.38
205.127	117.24
205.345	4.41
205.562	52.24
205.78	507.41
205.998	-368.42
206.216	7.32
206.434	82.54
206.652	72.27
206.87	5.63
207.088	-22.22
207.306	-262.5
207.523	6.34
207.741	22.42
207.959	-3.02
208.177	4.12
208.395	-738.46
208.612	40.8
208.83	174.65
209.048	53.45
209.266	16.67
209.483	-211.48
209.701	392.65
209.919	-171.81
210.136	-81.31
210.354	-408.86
210.572	-314.29
210.79	-293.86
211.007	267.48
211.225	-257.14
211.442	-108.7
211.66	-53.42
211.878	-51.41
212.095	353.6
212.313	1102.74
212.53	510.9
212.748	663.24
212.966	799.06
213.183	-552.76
213.401	2381.08
213.618	-591.18
213.836	-205.49
214.053	-149.56
214.271	-196.44
214.488	92.92
214.705	155.24
214.923	100
215.14	92.59
215.358	83.23
215.575	82.33
215.793	87.45
216.01	110.67
216.227	161.27
216.445	150.72
216.662	89.66
216.879	8.06
217.097	22.35
217.314	7.47
217.531	184
217.749	258.02
217.966	135.71
218.183	210.53
218.4	454.93
218.618	-14233.33
218.835	-486.08
219.052	-772.92
219.269	-352.46
219.487	-117.95
219.704	-170.87
219.921	-213.39
220.138	292.77
220.355	-3375
220.572	-2533.33
220.79	-207.23
221.007	413.43
221.224	179.56
221.441	194.67
221.658	250.72
221.875	50
222.092	159.49
222.309	125
222.526	2033.33
222.743	121.21
222.96	46.74
223.177	-150
223.394	-946.15
223.611	453.49
223.828	477.53
224.045	392.63
224.262	360
224.479	-764.15
224.696	2905.26
224.913	-108.98
225.13	-106.82
225.347	-27.37
225.564	-35
225.781	-54.38
225.997	-5.35
226.214	-0.97
226.431	-0.69
226.648	-7.37
226.865	-4.74
227.082	-8.96
227.298	-10.35
227.515	-19.24
227.732	-23.3
227.949	-13.9
228.165	-5.77
228.382	-11.47
228.599	-16.77
228.816	-17.39
229.032	-16.48
229.249	-16.53
229.466	-9.71
229.682	-16.07
229.899	-4.43
230.116	-8.92
230.332	-11.79
230.549	-57.04
230.765	-50.27
230.982	-18.32
231.199	-23.42
231.415	-18.85
231.632	-28.78
231.848	-24.09
232.065	-26.46
232.281	-42.67
232.498	-51.58
232.714	-44.77
232.931	-13.02
233.147	-15.07
233.364	-15.79
233.58	-19.44
233.797	-21.3
234.013	-27.81
234.23	-30.61
234.446	-18.69
234.662	-7.73
234.879	-4.27
235.095	-8.04
235.312	-5.31
235.528	-5.6
235.744	-14.41
235.961	-20.56
236.177	-31.15
236.393	-26.65
236.61	-18.57
236.826	-15.84
237.042	-16.69
237.258	2.04
237.475	-1.21
237.691	-1.47
237.907	-2.97
238.123	-1.33
238.339	-5.24
238.556	7.97
238.772	10.26
238.988	8
239.204	-2.29
239.42	1.46
239.636	-10.25
239.853	-0.63
240.069	-1.55
240.285	0.26
240.501	-1.04
240.717	1.21
240.933	-7.18
241.149	-5.68
241.365	-0.84
241.581	0.12
241.797	-1.37
242.013	-0.68
242.229	-1.68
242.445	2.03
242.661	-1.21
242.877	4.67
243.093	3.07
243.309	4.83
243.525	11.54
243.741	8.92
243.957	14.04
244.173	14.65
244.388	10.94
244.604	6.73
244.82	3.39
245.036	2.09
245.252	-1.37
245.468	-1.19
245.683	0.44
245.899	-2.07
246.115	-3.15
246.331	-3.49
246.547	-2.62
246.762	-1.78
246.978	-1.04
247.194	-1.27
247.409	0.45
247.625	3.55
247.841	3.03
248.057	-1
248.272	-2.24
248.488	-6.93
248.703	-13.04
248.919	-24.44
249.135	-27.07
249.35	-37.74
249.566	-29.99
249.782	-40.47
249.997	-35.39
250.213	-27.74
250.428	-18.38
250.644	-13.03
250.859	-5.27
251.075	-3.56
251.29	2.08
251.506	2.25
251.721	8.09
251.937	3.75
252.152	8.05
252.368	2.84
252.583	4.81
252.798	1.58
253.014	-1.12
253.229	-4.1
253.445	-1.18
253.66	-6.04
253.875	-5.42
254.091	-18.62
254.306	-26.36
254.521	-28.56
254.737	-21.83
254.952	-27.54
255.167	-21.21
255.383	-33.29
255.598	-31.66
255.813	-31.61
256.028	-21.86
256.244	-21.04
256.459	-9.48
256.674	1.34
256.889	3.63
257.104	3.97
257.32	5.27
257.535	1.5
257.75	5.88
257.965	7.42
258.18	6.43
258.395	5.6
258.61	8.17
258.826	6.77
259.041	5.82
259.256	4.9
259.471	5.44
259.686	6.5
259.901	10.49
260.116	10.32
260.331	10.07
260.546	10
260.761	8.44
260.976	3.18
261.191	0.48
261.406	-3.04
261.621	-0.96
261.836	-0.9
262.05	-4.2
262.265	-13.11
262.48	-15.5
262.695	-15.84
262.91	-18.84
263.125	-16
263.34	-17.09
263.555	-11.86
263.769	-10.12
263.984	-11.1
264.199	-17.9
264.414	-15.31
264.629	-7.81
264.843	-6.64
265.058	-6.67
265.273	-2.41
265.488	-3.23
265.702	-3.37
265.917	0.07
266.132	1.89
266.346	1.19
266.561	5.67
266.776	5.36
266.99	1.08
267.205	0.74
267.42	1.06
267.634	2.22
267.849	-2.06
268.063	-1.39
268.278	-5.87
268.492	-9.84
268.707	-9.74
268.922	-12.53
269.136	-12.25
269.351	-11.14
269.565	-10.28
269.78	-9.51
269.994	-9.77
270.209	-3.92
270.423	-4.5
270.637	-1.48
270.852	-0.77
271.066	-1.01
271.281	2.18
271.495	1.85
271.709	2.62
271.924	4.11
272.138	4.13
272.353	2.46
272.567	0.98
272.781	6.84
272.996	2.76
273.21	1.02
273.424	5.89
273.638	0.66
273.853	-0.77
274.067	-1.87
274.281	-0.58
274.495	-1.93
274.71	-3.8
274.924	1.27
275.138	-4.35
275.352	-3.02
275.566	-0.43
275.781	-9.46
275.995	-5.26
276.209	-4.87
276.423	-5.93
276.637	-8.1
276.851	-8.01
277.065	-0.24
277.279	-6.48
277.493	-5.33
277.707	-4.76
277.921	-4.4
278.135	-2.44
278.349	-1.28
278.563	-2.22
278.777	1.33
278.991	0.94
279.205	-0.33
279.419	-4.82
279.633	-2.87
279.847	-3.34
280.061	-0.23
280.275	0.82
280.489	3.14
280.703	2.9
280.917	4.23
281.131	5.61
281.344	4.44
281.558	4.61
281.772	4.71
281.986	3.61
282.2	5.1
282.414	3.25
282.627	1.29
282.841	0.5
283.055	-1.05
283.269	-1.47
283.482	-3.5
283.696	-4.43
283.91	-1.76
284.123	-1.87
284.337	-2.1
284.551	-1.34
284.764	-2.32
284.978	1.02
285.192	1.72
285.405	0.22
285.619	2.21
285.833	1.02
286.046	4.58
286.26	2.08
286.473	3.36
286.687	2.81
286.9	0.22
287.114	1.13
287.327	-3.39
287.541	-3.44
287.754	-2.37
287.968	-4.09
288.181	-2.03
288.395	-3.9
288.608	-2.22
288.822	-3.43
289.035	-1.3
289.248	-3.6
289.462	-2.09
289.675	-2.74
289.889	-1.38
290.102	-2.63
290.315	-2.16
290.529	-0.57
290.742	-1.89
290.955	-3.24
291.169	-2.81
291.382	-2.54
291.595	2.56
291.808	1.39
292.022	1.29
292.235	-0.31
292.448	1.2
292.661	-0.91
292.875	-5.02
293.088	-2.03
293.301	-1.19
293.514	-0.93
293.727	1.06
293.94	-1.03
294.153	-3.65
294.367	-1.29
294.58	-1.98
294.793	-2.58
295.006	-1.66
295.219	-1.39
295.432	-3.67
295.645	-2.75
295.858	-2.37
296.071	-3.89
296.284	-2.33
296.497	-0.74
296.71	-1.42
296.923	-0.83
297.136	-1.23
297.349	-0.2
297.562	-1.03
297.775	0.44
297.988	0.77
298.201	-2.21
298.414	-4.2
298.626	-7.29
298.839	-8.71
299.052	-10.26
299.265	-8.98
299.478	-8.68
299.691	-9.51
299.903	-7.49
300.116	-5.1
300.329	-6.67
300.542	-6
300.755	-5.82
300.967	-3.26
301.18	0.71
301.393	3.92
301.605	3.46
301.818	6.71
302.031	5.04
302.243	5.98
302.456	3.96
302.669	6.56
302.881	9.27
303.094	12.77
303.307	14.29
303.519	11.43
303.732	10.8
303.944	10.17
304.157	7.34
304.37	8.95
304.582	8.41
304.795	6.81
305.007	6.55
305.22	6.87
305.432	5.75
305.645	4.4
305.857	1.1
306.069	1.69
306.282	1.08
306.494	0.4
306.707	0.96
306.919	0.32
307.132	-1.33
307.344	0.54
307.556	-0.11
307.769	-1.59
307.981	-3.12
308.193	0.67
308.406	-0.22
308.618	0.66
308.83	1.29
309.043	-0.06
309.255	2.8
309.467	7.7
309.679	3.67
309.892	3.24
310.104	2.89
310.316	1.61
310.528	0.65
310.74	3.99
310.953	4.53
311.165	4.74
311.377	7.26
311.589	7.05
311.801	3.03
312.013	2.09
312.225	1.95
312.437	2.34
312.649	5.1
312.862	4.97
313.074	0.06
313.286	-2.41
313.498	0.25
313.71	2.6
313.922	-2.96
314.134	-0.73
314.346	1.17
314.558	1.16
314.77	-0.88
314.982	-2.68
315.193	-2.84
315.405	-0.22
315.617	0.2
315.829	-1.09
316.041	-3.12
316.253	1.21
316.465	-1.04
316.677	1.1
316.888	0.5
317.1	2.67
317.312	3.86
317.524	4.28
317.736	4.46
317.947	5.6
318.159	6.53
318.371	2.84
318.583	3.48
318.794	7.34
319.006	4.89
319.218	7.75
319.43	5.89
319.641	4.51
319.853	4.03
320.064	4.23
320.276	3.26
320.488	-1.78
320.699	-1.31
320.911	-7.39
321.123	-6.42
321.334	-6.9
321.546	-8.59
321.757	-7.82
321.969	-7.53
322.18	-8.27
322.392	-6.95
322.603	-6.54
322.815	-1.78
323.026	-0.02
323.238	2.51
323.449	-0.04
323.661	1.58
323.872	0.07
324.083	1.87
324.295	3.78
324.506	6.97
324.718	5.59
324.929	4.32
325.14	3.58
325.352	3.82
325.563	3.25
325.774	2.88
325.986	3.62
326.197	5.13
326.408	3.69
326.62	0.91
326.831	0.56
327.042	-0.55
327.253	-1.36
327.464	-2.09
327.676	-2.07
327.887	1.97
328.098	2.19
328.309	-1.77
328.52	-1.64
328.732	-2.75
328.943	-0.36
329.154	-1.94
329.365	-4.48
329.576	-4.24
329.787	-4.28
329.998	-2.22
330.209	-4.89
330.42	-8.15
330.631	-6.47
330.842	-4.75
331.053	-3.16
331.264	-2.05
331.475	-1.6
331.686	0.96
331.897	4.06
332.108	4.74
332.319	1.93
332.53	2.03
332.741	4.36
332.952	6.51
333.163	5.86
333.374	6.98
333.585	4.95
333.795	3.43
334.006	3.05
334.217	1.15
334.428	3.86
334.639	1.96
334.849	3.87
335.06	4.78
335.271	-0.87
335.482	-3.06
335.692	-4.33
335.903	-3.15
336.114	-4
336.325	-1.07
336.535	-0.71
336.746	-2.13
336.957	1.32
337.167	-1.72
337.378	1.16
337.589	5.13
337.799	6.03
338.01	5.87
338.22	4.08
338.431	3.43
338.642	0.23
338.852	0.81
339.063	1.18
339.273	1.63
339.484	2.46
339.694	1.96
339.905	1.24
340.115	2.65
340.326	2
340.536	5.83
340.746	6.9
340.957	9.17
341.167	10.82
341.378	10.15
341.588	8.62
341.799	9.09
342.009	6.3
342.219	7.39
342.43	6.26
342.64	6.65
342.85	3.1
343.061	1.58
343.271	2.79
343.481	2.27
343.691	1.23
343.902	2.89
344.112	2.92
344.322	4.21
344.532	1.92
344.743	1.9
344.953	3.4
345.163	4.21
345.373	6.94
345.583	4.78
345.793	3.79
346.004	3.93
346.214	2.49
346.424	0.64
346.634	0.2
346.844	5.38
347.054	4.09
347.264	3.64
347.474	5.23
347.684	5.38
347.894	4.44
348.104	4.08
348.314	3.49
348.524	2.02
348.734	4.07
348.944	3.86
349.154	2
349.364	-0.19
349.574	-1.75
349.784	-1.47
349.994	-2.5
350.204	-2.84
350.413	-4.37
350.623	-2.6
350.833	-4.39
351.043	-4.7
351.253	-4.18
351.463	-5.53
351.672	-1.86
351.882	-2.24
352.092	-4.94
352.302	-3.87
352.511	-2.99
352.721	-2.44
352.931	-4.74
353.141	-1.69
353.35	-3.8
353.56	-4.45
353.77	-3.67
353.979	-4.19
354.189	-3.75
354.399	-4.51
354.608	-5.02
354.818	-4.15
355.027	-2.67
355.237	-2.08
355.447	-2.73
355.656	-1.35
355.866	-0.72
356.075	0.66
356.285	2.87
356.494	3.92
356.704	6.29
356.913	6.82
357.123	7.48
357.332	7.31
357.542	9.22
357.751	11.16
357.96	13.22
358.17	12.73
358.379	10.52
358.589	7.55
358.798	5.3
359.007	4.93
359.217	4.83
359.426	2.13
359.635	3.84
359.845	3.1
360.054	2.46
360.263	0.81
360.472	1.65
360.682	2.6
360.891	2.64
361.1	4.87
361.309	5.4
361.519	3.9
361.728	4.96
361.937	3.62
362.146	4.08
362.355	2.9
362.564	2.75
362.774	2.01
362.983	2.4
363.192	3.49
363.401	2.59
363.61	0.72
363.819	1.52
364.028	2.57
364.237	2.31
364.446	1.44
364.655	2.3
364.864	4.25
365.073	3.8
365.282	2.66
365.491	1.68
365.7	1.89
365.909	1.99
366.118	2.09
366.327	-1.03
366.536	-2.12
366.745	-1.78
366.954	-2.41
367.162	-2.48
367.371	-2.79
367.58	-1.68
367.789	-1.09
367.998	-0.53
368.207	1.56
368.415	0.78
368.624	2.79
368.833	3.15
369.042	2.5
369.25	5.17
369.459	4.13
369.668	5.13
369.877	4.31
370.085	4.61
370.294	2.83
370.503	2.33
370.711	2.2
370.92	1.7
371.129	3.35
371.337	3.08
371.546	-0.1
371.754	1
371.963	2.29
372.171	2.92
372.38	2.13
372.589	2.73
372.797	2.09
373.006	3.43
373.214	4.91
373.423	4.47
373.631	5.46
373.84	5.7
374.048	4.91
374.256	5.76
374.465	5.37
374.673	5.97
374.882	5.69
375.09	5.17
375.298	4.64
375.507	5.18
375.715	6.63
375.923	5.83
376.132	5.43
376.34	5.28
376.548	3.97
376.757	2.98
376.965	2.72
377.173	2.48
377.381	2.28
377.59	3.39
377.798	1.9
378.006	-1.55
378.214	-0.89
378.423	0.98
378.631	-1.39
378.839	-2.44
379.047	-2.2
379.255	-1.95
379.463	-1.22
379.671	-0.31
379.879	-0.72
380.088	1.22
380.296	2.12
380.504	2.9
380.712	3.17
380.92	5.74
381.128	5.7
381.336	5.99
381.544	5.35
381.752	5.74
381.96	6.38
382.168	5.72
382.376	4.82
382.584	4.72
382.791	4.06
382.999	2.67
383.207	0.82
383.415	1.12
383.623	0.6
383.831	0.76
384.039	1.54
384.247	1.19
384.454	1.32
384.662	0.57
384.87	1.08
385.078	1.03
385.285	1.74
385.493	3.58
385.701	4.35
385.909	4.45
386.116	4.7
386.324	2.32
386.532	0.57
386.739	0.89
386.947	0.93
387.155	-0.32
387.362	-0.75
387.57	-0.27
387.778	-1
387.985	-1.11
388.193	0.54
388.4	0.91
388.608	2.69
388.816	2.93
389.023	1.66
389.231	1.56
389.438	1.02
389.646	1.41
389.853	0.52
390.061	0.31
390.268	0.49
390.475	-0.56
390.683	-0.79
390.89	-0.87
391.098	0.85
391.305	0.56
391.512	-0.49
391.72	0.49
391.927	-0.3
392.135	0.67
392.342	1.24
392.549	0.51
392.756	0.91
392.964	1.18
393.171	-0.61
393.378	-2.63
393.586	-2.41
393.793	-0.02
394	0.02
394.207	0.55
394.414	-1.31
394.622	-1.19
394.829	-0.68
395.036	-0.58
395.243	-0.5
395.45	1.27
395.657	2.4
395.864	2.53
396.072	0.42
396.279	-0.05
396.486	-0.59
396.693	1.1
396.9	1.57
397.107	0.97
397.314	-0.45
397.521	0.97
397.728	1.11
397.935	0.97
398.142	2.22
398.349	4.4
398.556	4.41
398.763	5.23
398.97	4.72
399.177	3.93
399.383	2.89
399.59	3.53
399.797	1.93
400.004	1.32
400.211	1.85
400.418	1.87
400.625	2.59
400.831	3.79
401.038	4.68
401.245	5.25
401.452	4.59
401.658	5.2
401.865	5.43
402.072	5.99
402.279	6.92
402.485	6.68
402.692	7.02
402.899	4.54
403.105	4.04
403.312	2.77
403.519	2.66
403.725	2.3
403.932	2.86
404.138	2.88
404.345	2.55
404.552	0.93
404.758	0.55
404.965	0.82
405.171	1.77
405.378	1.02
405.584	2.03
405.791	1.27
405.997	3.14
406.204	2.36
406.41	3.23
406.617	2.12
406.823	3.1
407.029	3.21
407.236	2.15
407.442	2.52
407.649	3.78
407.855	3.18
408.061	3.19
408.268	2.33
408.474	3.14
408.68	3.87
408.887	3.4
409.093	3.69
409.299	3.67
409.505	4.07
409.712	3.63
409.918	2.22
410.124	1.85
410.33	2.91
410.537	2.28
410.743	2.43
410.949	0.75
411.155	1.94
411.361	1.32
411.567	1.59
411.773	1.1
411.98	0.57
412.186	1.4
412.392	1.66
412.598	1.09
412.804	1.55
413.01	0.69
413.216	1.01
413.422	1.39
413.628	1.88
413.834	2.15
414.04	2.24
414.246	1.48
414.452	1.58
414.658	1.23
414.864	1.55
415.07	2.58
415.275	2.62
415.481	3.2
415.687	3.07
415.893	2.76
416.099	2.29
416.305	2.19
416.511	3.51
416.716	3.39
416.922	3.76
417.128	3.22
417.334	2.94
417.539	3.38
417.745	2.57
417.951	2.17
418.157	2.36
418.362	2.76
418.568	3.73
418.774	3.23
418.979	3.61
419.185	3.12
419.391	3.42
419.596	3.44
419.802	3.59
420.008	4.21
420.213	4.74
420.419	5.17
420.624	5.57
420.83	5.03
421.035	5.59
421.241	5.17
421.446	5.72
421.652	5.68
421.857	5.6
422.063	5.12
422.268	5.14
422.474	4.88
422.679	4.28
422.885	3.69
423.09	3.42
423.295	3.08
423.501	3.22
423.706	3.34
423.911	3.15
424.117	2.57
424.322	3.05
424.527	2.97
424.733	3.01
424.938	3.23
425.143	3.65
425.349	3.85
425.554	3.83
425.759	3.89
425.964	4.06
426.169	4.57
426.375	5.3
426.58	5.38
426.785	5.14
426.99	5.13
427.195	5
427.4	4.25
427.605	4.35
427.811	5.01
428.016	4.67
428.221	4.12
428.426	4.1
428.631	3.69
428.836	4.39
429.041	4.06
429.246	4.18
429.451	3.86
429.656	4.21
429.861	4.36
430.066	4.61
430.271	4.84
430.476	4.92
430.681	4.77
430.886	4.39
431.09	3.32
431.295	3.68
431.5	3.88
431.705	4.44
431.91	3.59
432.115	3.17
432.32	2.58
432.524	2.17
432.729	2.33
432.934	2.33
433.139	2.67
433.343	2.75
433.548	2.23
433.753	2.51
433.958	2.07
434.162	3.27
434.367	3.48
434.572	3.3
434.776	4.08
434.981	3.75
435.186	4.08
435.39	4.43
435.595	4.1
435.799	5.48
436.004	4.64
436.209	5.07
436.413	4.62
436.618	4.83
436.822	5.28
437.027	5.36
437.231	5.24
437.436	4.32
437.64	4.52
437.845	4.24
438.049	2.89
438.253	3.19
438.458	3.3
438.662	3.25
438.867	2.88
439.071	3.01
439.275	2.33
439.48	2.68
439.684	2.79
439.888	2.61
440.093	3.55
440.297	4.12
440.501	4.29
440.706	3.69
440.91	3.72
441.114	3.85
441.318	3.58
441.523	4.05
441.727	3.55
441.931	3.55
442.135	3.28
442.339	2.61
442.543	2.66
442.748	2.3
442.952	2.68
443.156	3.14
443.36	3.13
443.564	2.99
443.768	2.8
443.972	3.14
444.176	3.8
444.38	3.48
444.584	3.37
444.788	2.92
444.992	3.34
445.196	3.5
445.4	3.2
445.604	3.19
445.808	3.29
446.012	3.42
446.216	3.12
446.42	3.07
446.624	3.49
446.828	3.85
447.032	4.56
447.235	4.43
447.439	3.97
447.643	4.59
447.847	5.05
448.051	4.49
448.254	4.72
448.458	5.28
448.662	4.64
448.866	4.65
449.069	4.75
449.273	4.6
449.477	4.33
449.681	4.44
449.884	3.36
450.088	2.29
450.292	2.44
450.495	2.02
450.699	1.07
450.902	1.38
451.106	1.83
451.31	1.63
451.513	1.71
451.717	1.31
451.92	0.87
452.124	0.54
452.327	0.96
452.531	1.31
452.734	1.3
452.938	2.44
453.141	2.45
453.345	1.71
453.548	1.32
453.752	0.88
453.955	1.11
454.158	2.08
454.362	2.78
454.565	3.36
454.769	3.45
454.972	4.04
455.175	3.07
455.379	2.99
455.582	3.53
455.785	3.6
455.988	4.04
456.192	4.18
456.395	3.45
456.598	3.42
456.801	3.15
457.005	3.17
457.208	2.85
457.411	3.12
457.614	2.85
457.817	2.2
458.021	2.48
458.224	2.46
458.427	2.35
458.63	2.59
458.833	2.64
459.036	2.85
459.239	2.99
459.442	2.91
459.645	2.91
459.848	3.41
460.051	3.63
460.254	3.08
460.457	2.81
460.66	3.33
460.863	3.13
461.066	3.68
461.269	3.7
461.472	3.46
461.675	3.09
461.878	3.37
462.081	2.97
462.284	3.51
462.486	3.6
462.689	3.85
462.892	3.25
463.095	2.86
463.298	1.96
463.5	2.05
463.703	2.44
463.906	3.14
464.109	2.93
464.311	2.34
464.514	2.79
464.717	2.71
464.92	2.58
465.122	2.75
465.325	3.08
465.528	3.35
465.73	3.08
465.933	2.36
466.135	2.11
466.338	2.22
466.541	2.53
466.743	1.97
466.946	2.55
467.148	2.79
467.351	3.36
467.553	3.54
467.756	2.94
467.958	2.46
468.161	3.05
468.363	2.73
468.566	2.67
468.768	2.87
468.971	2.94
469.173	2.84
469.375	2.32
469.578	1.59
469.78	1.91
469.983	2.49
470.185	1.93
470.387	1.92
470.59	2.79
470.792	2.36
470.994	2.01
471.196	2.33
471.399	2.56
471.601	2.48
471.803	2.72
472.005	2.58
472.208	2.58
472.41	3.14
472.612	2.86
472.814	1.77
473.016	2.3
473.218	2.98
473.421	1.27
473.623	0.68
473.825	1.12
474.027	0.99
474.229	0.84
474.431	0.48
474.633	1.29
474.835	1.24
475.037	2.61
475.239	2.99
475.441	2.7
475.643	3.69
475.845	3.92
476.047	3.61
476.249	3.54
476.451	4.07
476.653	4.58
476.855	3.59
477.057	3.59
477.258	2.65
477.46	3.03
477.662	3.64
477.864	3.7
478.066	4
478.268	4.17
478.469	4.65
478.671	4.48
478.873	4.01
479.075	4.38
479.276	4.76
479.478	5.18
479.68	4.72
479.882	4.23
480.083	4.09
480.285	3.99
480.487	3.86
480.688	3.49
480.89	3.51
481.091	3.93
481.293	4.32
481.495	4.19
481.696	4.22
481.898	4.24
482.099	4.02
482.301	4.09
482.502	4.19
482.704	4.23
482.905	4.33
483.107	4.21
483.308	4.26
483.51	4.04
483.711	4.06
483.913	3.92
484.114	3.88
484.315	4.09
484.517	4.14
484.718	4.1
484.92	4.13
485.121	4
485.322	3.98
485.524	3.78
485.725	4.01
485.926	4.26
486.127	4.28
486.329	4.38
486.53	4.41
486.731	4.43
486.932	4.45
487.134	4.42
487.335	4.37
487.536	4.62
487.737	4.67
487.938	4.57
488.139	4.24
488.341	4.34
488.542	4.13
488.743	3.94
488.944	3.73
489.145	3.77
489.346	3.65
489.547	3.83
489.748	3.8
489.949	3.91
490.15	3.87
490.351	4.08
490.552	3.92
490.753	4.23
490.954	4.2
491.155	4.34
491.356	4.22
491.557	4.57
491.758	4.65
491.959	4.49
492.159	4.15
492.36	4.04
492.561	4.19
492.762	4.34
492.963	3.63
493.164	4.07
493.364	4.16
493.565	4.1
493.766	3.83
493.967	3.9
494.167	4.16
494.368	4.21
494.569	4.51
494.769	3.73
494.97	3.77
495.171	4.2
495.371	4.27
495.572	3.67
495.773	3.82
495.973	3.74
496.174	3.78
496.375	3.77
496.575	3.93
496.776	3.89
496.976	4.3
497.177	4.05
497.377	4.36
497.578	4.57
497.778	5.03
497.979	5.34
498.179	5.63
498.38	5.39
498.58	5.33
498.78	5.57
498.981	5.57
499.181	4.98
499.382	5.37
499.582	5.11
499.782	4.44
499.983	4.91
500.183	4.03
500.383	3.45
500.584	3.24
500.784	2.51
500.984	2.14
501.184	1.96
501.385	2.08
501.585	2.66
501.785	2.41
501.985	2.59
502.185	2.25
502.386	3.07
502.586	3.34
502.786	3.73
502.986	4.36
503.186	4.5
503.386	4.38
503.586	4.45
503.786	3.57
503.987	3.67
504.187	3.64
504.387	3.29
504.587	3.12
504.787	2.94
504.987	3.33
505.187	3.65
505.387	3.93
505.587	4.25
505.786	4.81
505.986	4.84
506.186	5.15
506.386	5.01
506.586	5.64
506.786	5.63
506.986	5.65
507.186	5.02
507.386	4.97
507.585	4.66
507.785	4.86
507.985	4.63
508.185	4.91
508.384	4.69
508.584	4.81
508.784	4.32
508.984	3.76
509.183	3.76
509.383	3.84
509.583	3.26
509.782	3.26
509.982	2.77
510.182	2.87
510.381	2.75
510.581	2.97
510.781	3.27
510.98	3.71
511.18	4.18
511.379	4.66
511.579	4.66
511.778	4.81
511.978	5.44
512.177	5.9
512.377	6.1
512.576	6.38
512.776	5.7
512.975	5.53
513.175	5.33
513.374	5.61
513.573	5.56
513.773	5.6
513.972	6.3
514.172	6.15
514.371	5.71
514.57	5.34
514.77	5.25
514.969	6.53
515.168	6.47
515.367	6.28
515.567	6.17
515.766	5.85
515.965	5.69
516.164	5.2
516.364	4.96
516.563	5.46
516.762	5.79
516.961	5.6
517.16	4.9
517.359	5.19
517.559	5.79
517.758	5.91
517.957	6.08
518.156	6.4
518.355	6.69
518.554	6.74
518.753	6.43
518.952	6.74
519.151	6.83
519.35	6.7
519.549	6.64
519.748	6.51
519.947	6
520.146	6.13
520.345	5.93
520.544	6.22
520.743	6.55
520.942	6.87
521.141	6.72
521.339	7.25
521.538	7.84
521.737	7.31
521.936	7.13
522.135	7.31
522.333	7.2
522.532	7.43
522.731	7.49
522.93	7.3
523.129	7.11
523.327	7.05
523.526	6.83
523.725	6.69
523.923	7.39
524.122	7.36
524.321	7.67
524.519	8.12
524.718	7.84
524.917	7.57
525.115	7.87
525.314	8.06
525.512	8.33
525.711	8.6
525.909	8.91
526.108	8.84
526.306	9.05
526.505	9.04
526.703	9.02
526.902	9.19
527.1	9.4
527.299	9.21
527.497	9.24
527.696	9.14
527.894	9.09
528.092	8.91
528.291	8.84
528.489	8.95
528.688	8.92
528.886	9.21
529.084	9.33
529.283	8.99
529.481	8.95
529.679	9.06
529.877	8.76
530.076	8.73
530.274	8.79
530.472	9.06
530.67	8.76
530.869	8.97
531.067	8.18
531.265	8.02
531.463	8.28
531.661	8.69
531.859	8.67
532.057	9.08
532.255	9.04
532.454	9.02
532.652	8.83
532.85	8.79
533.048	8.67
533.246	9.14
533.444	9.49
533.642	9.55
533.84	9.85
534.038	9.81
534.236	9.67
534.434	9.75
534.632	9.86
534.83	10.08
535.027	10.38
535.225	10.55
535.423	10.36
535.621	10.51
535.819	10.43
536.017	9.85
536.215	9.46
536.412	9.94
536.61	9.86
536.808	9.93
537.006	9.5
537.203	9.39
537.401	9.33
537.599	9.49
537.797	9.16
537.994	9.25
538.192	9.2
538.39	10.18
538.587	9.91
538.785	10.33
538.983	10.28
539.18	10.5
539.378	10.78
539.575	10.99
539.773	11.22
539.97	11.33
540.168	11.39
540.366	11.69
540.563	11.28
540.761	11.19
540.958	11.18
541.155	11.21
541.353	11.52
541.55	11.64
541.748	11.35
541.945	11.07
542.143	11.18
542.34	11.3
542.537	11.31
542.735	11.77
542.932	11.89
543.129	11.85
543.327	12.33
543.524	12.66
543.721	12.43
543.919	12.47
544.116	12.25
544.313	12.11
544.51	12.06
544.708	12.12
544.905	12.36
545.102	12.5
545.299	12.64
545.496	12.71
545.693	12.57
545.891	12.78
546.088	13.18
546.285	13.52
546.482	13.48
546.679	13.97
546.876	14.16
547.073	13.92
547.27	13.49
547.467	13.5
547.664	13.12
547.861	12.77
548.058	12.4
548.255	12.13
548.452	12.23
548.649	12.52
548.846	12.06
549.043	11.56
549.24	12.32
549.437	13.13
549.633	13.26
549.83	13.24
550.027	13.32
550.224	13.77
550.421	14.34
550.618	14.33
550.814	14.09
551.011	13.66
551.208	14.02
551.405	13.24
551.601	13.08
551.798	13.15
551.995	13.32
552.191	13.73
552.388	13.39
552.585	13.64
552.781	13.65
552.978	13.65
553.175	14.01
553.371	13.96
553.568	13.92
553.764	13.89
553.961	13.45
554.157	13.73
554.354	13.72
554.55	13.88
554.747	13.6
554.943	13.65
555.14	13.83
555.336	14.29
555.533	14.17
555.729	14.29
555.926	14.39
556.122	14.46
556.318	14.38
556.515	14.1
556.711	14.26
556.907	14.24
557.104	14.09
557.3	14.77
557.496	14.99
557.693	14.14
557.889	13.97
558.085	13.79
558.281	13.95
558.478	13.25
558.674	13.31
558.87	13.8
559.066	13.85
559.262	13.98
559.459	13.28
559.655	12.8
559.851	14.13
560.047	14.84
560.243	15.03
560.439	15.76
560.635	16.59
560.831	15.77
561.027	15.69
561.223	15.75
561.419	15.3
561.615	15.47
561.811	15.82
562.007	15.2
562.203	14.2
562.399	14.89
562.595	14.08
562.791	14.35
562.987	15.25
563.183	14.85
563.379	14.82
563.575	15.5
563.771	15.77
563.966	15.87
564.162	15.9
564.358	16.29
564.554	16.19
564.75	16.31
564.945	16.06
565.141	15.87
565.337	15.94
565.533	15.96
565.728	15.83
565.924	16.13
566.12	16.04
566.315	16.64
566.511	16.38
566.707	15.83
566.902	15.85
567.098	15.71
567.293	15.65
567.489	15.35
567.684	15.21
567.88	15.31
568.076	14.83
568.271	15.11
568.467	14.82
568.662	15.68
568.858	15.75
569.053	15.31
569.248	15.72
569.444	15.84
569.639	16.2
569.835	15.8
570.03	16.06
570.225	16.24
570.421	15.87
570.616	15.55
570.812	15.56
571.007	15.85
571.202	15.97
571.397	15.05
571.593	15.15
571.788	15.19
571.983	15.35
572.178	15.18
572.374	15.33
572.569	15.44
572.764	15.9
572.959	15.55
573.154	16.19
573.35	16.8
573.545	17.09
573.74	17.13
573.935	17.06
574.13	16.84
574.325	16.65
574.52	16.32
574.715	16.56
574.91	16.31
575.105	16.24
575.3	15.66
575.495	15.15
575.69	15.03
575.885	14.53
576.08	14.94
576.275	15.65
576.47	15.58
576.665	15.68
576.86	15.5
577.055	15.93
577.25	16.43
577.444	16.75
577.639	17.36
577.834	17.23
578.029	17.39
578.224	16.47
578.418	16.3
578.613	16.7
578.808	16.91
579.003	16.37
579.197	15.24
579.392	15.21
579.587	14.65
579.781	14.87
579.976	15.81
580.171	16.43
580.365	17.34
580.56	17.3
580.755	17.49
580.949	17.03
581.144	17.62
581.338	18.53
581.533	18.72
581.727	19.23
581.922	18.65
582.116	18.42
582.311	18.3
582.505	17.69
582.7	18.09
582.894	17.95
583.089	17.89
583.283	18.3
583.478	18.56
583.672	17.85
583.866	16.67
584.061	17.56
584.255	17.04
584.449	16.71
584.644	17.22
584.838	15.98
585.032	16.02
585.226	16.15
585.421	16.88
585.615	15.5
585.809	15.76
586.003	16.33
586.198	15.33
586.392	16.08
586.586	16.32
586.78	15.81
586.974	17.44
587.168	17.64
587.363	17.77
587.557	15.95
587.751	16.35
587.945	14.65
588.139	15.3
588.333	16
588.527	15.53
588.721	15.84
588.915	16.13
589.109	14.91
589.303	14.85
589.497	15.02
589.691	15.24
589.885	15.81
590.079	17.7
590.273	17.65
590.466	17.22
590.66	17.76
590.854	17.34
591.048	17.11
591.242	18.26
591.436	18.25
591.629	17.92
591.823	17.42
592.017	18.17
592.211	17.56
592.404	16.96
592.598	17.48
592.792	17.43
592.986	17.32
593.179	17.83
593.373	17.34
593.567	16.76
593.76	17.37
593.954	18.05
594.147	17.66
594.341	17.81
594.535	18.05
594.728	17.86
594.922	17.54
595.115	18.11
595.309	17.53
595.502	17.89
595.696	17.84
595.889	17.52
596.083	17.76
596.276	17.74
596.47	18.66
596.663	18
596.856	17.98
597.05	18.4
597.243	17.97
597.437	18.09
597.63	17.99
597.823	18.61
598.017	17.93
598.21	17.43
598.403	16.07
598.596	15.34
598.79	15.88
598.983	15.62
599.176	15.14
599.369	15.19
599.563	15.15
599.756	14.32
599.949	14.25
600.142	15.34
600.335	15.47
600.528	15.52
600.722	15.49
600.915	16.51
601.108	16.13
601.301	15.93
601.494	15.95
601.687	15.97
601.88	16.55
602.073	16.12
602.266	16.37
602.459	17.02
602.652	18.04
602.845	18.12
603.038	17.44
603.231	18.33
603.424	19.07
603.617	19.04
603.809	19.58
604.002	18.77
604.195	19.25
604.388	18.86
604.581	18.46
604.774	18.36
604.966	18.54
605.159	18.25
605.352	17.8
605.545	17.58
605.737	18.17
605.93	17.82
606.123	18.38
606.316	17.73
606.508	17.6
606.701	17.76
606.894	18.32
607.086	18.09
607.279	18.07
607.471	17.98
607.664	17.35
607.857	16.59
608.049	16.12
608.242	16.52
608.434	16.82
608.627	16.91
608.819	17.04
609.012	16.1
609.204	15.3
609.397	16.04
609.589	15.68
609.782	16.05
609.974	15.51
610.166	16.72
610.359	17.73
610.551	18.41
610.743	19.07
610.936	18.86
611.128	19
611.32	19.78
611.513	18.85
611.705	19.8
611.897	19.09
612.09	20.87
612.282	20.17
612.474	18.7
612.666	17.72
612.858	17.21
613.051	16.65
613.243	17.31
613.435	16.85
613.627	17.15
613.819	16.95
614.011	17.94
614.203	16.82
614.395	16.31
614.588	16.26
614.78	17.42
614.972	17.26
615.164	17.67
615.356	18.1
615.548	18.06
615.74	18.54
615.932	18.88
616.124	18.88
616.315	19.21
616.507	18.82
616.699	17.95
616.891	16.76
617.083	16.45
617.275	16.11
617.467	16.04
617.659	16.68
617.85	17.64
618.042	17.76
618.234	17.71
618.426	17.47
618.618	17.85
618.809	18.76
619.001	19.31
619.193	19.05
619.384	19.48
619.576	20.22
619.768	19.76
619.959	18.49
620.151	17.6
620.343	16.83
620.534	16.64
620.726	17.12
620.917	17.73
621.109	17.74
621.301	17.48
621.492	17.41
621.684	16.54
621.875	17.05
622.067	16.8
622.258	17.71
622.45	17.75
622.641	17.5
622.832	17.21
623.024	16.74
623.215	17.7
623.407	18.84
623.598	18.46
623.789	19.01
623.981	17.97
624.172	18.62
624.363	17.81
624.555	18.13
624.746	18.97
624.937	19.24
625.129	19.28
625.32	18.32
625.511	17.82
625.702	18.54
625.893	17.25
626.085	17.65
626.276	16.79
626.467	16.34
626.658	16.46
626.849	15.59
627.04	15.66
627.231	15.04
627.422	15.7
627.614	16.08
627.805	15.18
627.996	15.84
628.187	15.45
628.378	16.56
628.569	17.61
628.76	18.13
628.951	18.24
629.142	17.76
629.332	18.58
629.523	18.06
629.714	17.47
629.905	18.64
630.096	18.35
630.287	18.94
630.478	17.85
630.669	17.35
630.859	17.23
631.05	17.78
631.241	18.08
631.432	17.68
631.623	17.44
631.813	17.85
632.004	18.4
632.195	17.39
632.385	18.08
632.576	18.87
632.767	19.62
632.957	19.01
633.148	19.46
633.339	19.23
633.529	20.39
633.72	20.94
633.91	21.53
634.101	20.33
634.292	22.23
634.482	21.52
634.673	22.22
634.863	20.88
635.054	21.91
635.244	21.22
635.435	21.78
635.625	20.59
635.815	19.9
636.006	19.46
636.196	20.66
636.387	18.9
636.577	18.26
636.767	18.1
636.958	17.97
637.148	19.08
637.338	19.03
637.529	19.14
637.719	18.86
637.909	18.3
638.099	17.96
638.29	15.51
638.48	16.06
638.67	17.21
638.86	16.71
639.05	18.01
639.241	15.73
639.431	15.94
639.621	15.82
639.811	16.86
640.001	17.99
640.191	18.78
640.381	20.12
640.571	20.26
640.761	20.81
640.951	20.46
641.141	19.11
641.331	18.72
641.521	18.9
641.711	19.12
641.901	19.7
642.091	19.28
642.281	17.89
642.471	17.75
642.661	18.5
642.851	17.89
643.041	17.5
643.231	18.53
643.42	19.01
643.61	18.33
643.8	17.92
643.99	18
644.18	17.68
644.369	17.15
644.559	17.85
644.749	15.5
644.939	15.37
645.128	15.38
645.318	14.99
645.508	14.58
645.697	14.15
645.887	14.03
646.076	11.16
646.266	11.45
646.456	12.23
646.645	11.14
646.835	12.78
647.024	11.79
647.214	10.6
647.403	9.85
647.593	10.46
647.782	11.31
647.972	10.68
648.161	13.54
648.351	14.22
648.54	15.41
648.73	16.24
648.919	15.74
649.108	16.54
649.298	17.27
649.487	18.64
649.677	18.4
649.866	18.5
650.055	19.47
650.244	17.95
650.434	16.57
650.623	17.07
650.812	18.06
651.002	18.33
651.191	17.99
651.38	17.79
651.569	17.11
651.758	17.73
651.947	17.35
652.137	17
652.326	17.58
652.515	17.73
652.704	15.94
652.893	15.77
653.082	17
653.271	17.66
653.46	18.96
653.649	18.13
653.838	16.45
654.027	16.33
654.216	16.65
654.405	17.65
654.594	16.82
654.783	17.54
654.972	19
655.161	17.01
655.35	16.15
655.539	16.36
655.728	17.87
655.916	20
656.105	20.08
656.294	19.4
656.483	18.44
656.672	18.87
656.86	18.71
657.049	15.5
657.238	17.01
657.427	17.33
657.615	17.13
657.804	17.29
657.993	16.78
658.181	17.36
658.37	18.13
658.559	17.08
658.747	18.65
658.936	19.91
659.125	21.13
659.313	20.75
659.502	20.07
659.69	19.16
659.879	17.75
660.067	17.66
660.256	16.74
660.444	15.85
660.633	17.17
660.821	16.45
661.01	15.37
661.198	15.33
661.387	15.26
661.575	15.06
661.763	17.37
661.952	18.77
662.14	17.55
662.328	19.04
662.517	19.22
662.705	18.51
662.893	19.37
663.082	19.54
663.27	19.56
663.458	19.17
663.646	20.26
663.834	18.07
664.023	18.21
664.211	18.57
664.399	17.51
664.587	17.41
664.775	19.84
664.963	17.87
665.152	18.02
665.34	17.04
665.528	18.45
665.716	19.24
665.904	19.38
666.092	18.17
666.28	18.05
666.468	18
666.656	18.58
666.844	18.18
667.032	19.15
667.22	18.32
667.408	19.67
667.596	19.42
667.784	18.38
667.971	18.94
668.159	19.66
668.347	20.22
668.535	20.27
668.723	19.17
668.911	17.41
669.098	17.02
669.286	16.63
669.474	15.59
669.662	13.9
669.849	15.1
670.037	13.61
670.225	13.26
670.413	15.18
670.6	15.87
670.788	15.66
670.976	16.73
671.163	17
671.351	16.21
671.538	16.25
671.726	16.61
671.913	15.65
672.101	15.42
672.289	15.55
672.476	12.19
672.664	11.07
672.851	11.02
673.039	12.14
673.226	10.72
673.413	11.1
673.601	11.96
673.788	12.55
673.976	11.86
674.163	14.39
674.35	13.87
674.538	14.95
674.725	14.97
674.912	16.26
675.1	14.67
675.287	15.46
675.474	16.12
675.662	14.46
675.849	15.08
676.036	16.07
676.223	16.72
676.411	16.86
676.598	18.55
676.785	19.66
676.972	19.65
677.159	19.18
677.346	18.94
677.533	19.49
677.721	19.89
677.908	19.44
678.095	19.59
678.282	18.54
678.469	19.95
678.656	18.38
678.843	17.73
679.03	18.45
679.217	18.42
679.404	19.05
679.591	17.54
679.778	18.12
679.964	17.22
680.151	16.73
680.338	16.02
680.525	14.32
680.712	15.73
680.899	16.02
681.086	15.52
681.272	17.69
681.459	17.67
681.646	20.14
681.833	19.99
682.02	20.01
682.206	21.93
682.393	22.85
682.58	23.96
682.766	22.59
682.953	23.21
683.14	23.71
683.326	22.4
683.513	22.59
683.7	22.17
683.886	21.99
684.073	21.7
684.259	20.49
684.446	20.05
684.632	20.46
684.819	21.82
685.005	20.95
685.192	19.97
685.378	20.26
685.565	21.19
685.751	20.75
685.938	20.45
686.124	21.7
686.31	21.78
686.497	21.03
686.683	21.22
686.87	21.56
687.056	21.56
687.242	20.38
687.429	19.57
687.615	18.28
687.801	18.25
687.987	18.01
688.174	17.7
688.36	18.24
688.546	17.44
688.732	16.72
688.918	16.29
689.105	15.77
689.291	15.31
689.477	14.67
689.663	14.2
689.849	14.12
690.035	14.19
690.221	15.33
690.407	13.1
690.593	13.69
690.779	12.07
690.965	11.52
691.151	13.31
691.337	14.69
691.523	14.23
691.709	14.41
691.895	14.63
692.081	16.1
692.267	15.19
692.453	15.68
692.639	15.5
692.825	16.17
693.011	14.71
693.196	12.14
693.382	11.24
693.568	13.66
693.754	13.01
693.94	12.07
694.125	10.66
694.311	7.64
694.497	8.8
694.682	9.59
694.868	10.12
695.054	11.32
695.239	12.81
695.425	14.14
695.611	11.67
695.796	12.47
695.982	12.87
696.168	13.44
696.353	15.58
696.539	15.45
696.724	15.16
696.91	16.87
697.095	15.54
697.281	17.47
697.466	17.12
697.652	19.25
697.837	19.63
698.023	19.78
698.208	20.02
698.393	19.39
698.579	19.46
698.764	20.03
698.949	20.61
699.135	21.46
699.32	19.29
699.505	18.77
699.691	16.55
699.876	15.57
700.061	15.75
700.246	15.26
700.432	15.13
700.617	14.84
700.802	13.46
700.987	11.54
701.172	13.1
701.358	13.68
701.543	13.59
701.728	15.86
701.913	15.2
702.098	13.21
702.283	12.43
702.468	11.91
702.653	12.81
702.838	14.97
703.023	13.63
703.208	11.19
703.393	10.76
703.578	11.84
703.763	13.29
703.948	15.91
704.133	17.63
704.318	18.11
704.503	20.3
704.688	18.03
704.873	16.29
705.057	14.55
705.242	16.31
705.427	16.15
705.612	18.43
705.797	16.91
705.981	17.42
706.166	17.41
706.351	15.67
706.536	16.27
706.72	18.52
706.905	21.18
707.09	23.11
707.274	23.78
707.459	24.06
707.644	21.46
707.828	20.46
708.013	17.72
708.197	17.32
708.382	17.75
708.567	16.81
708.751	16.72
708.936	15.38
709.12	15.53
709.305	13.86
709.489	12.39
709.673	14.97
709.858	14.79
710.042	17.24
710.227	18.39
710.411	18.89
710.596	19.17
710.78	19.32
710.964	18.42
711.149	18.52
711.333	19.35
711.517	21.2
711.702	17.48
711.886	18.88
712.07	16.92
712.254	15.24
712.438	14.12
712.623	12.17
712.807	10.97
712.991	9.48
713.175	9.65
713.359	8.38
713.544	9.91
713.728	9.94
713.912	8.22
714.096	10.75
714.28	11.08
714.464	14.99
714.648	18.2
714.832	19.43
715.016	19.98
715.2	18.92
715.384	20.74
715.568	20.58
715.752	21.04
715.936	21.46
716.12	19.54
716.304	19.13
716.488	16.82
716.671	16.29
716.855	15.43
717.039	17.34
717.223	20.44
717.407	19.26
717.59	18.65
717.774	18.64
717.958	19.59
718.142	19.69
718.325	19.36
718.509	19.57
718.693	16.84
718.877	15.44
719.06	14.16
719.244	8.33
719.428	8.72
719.611	7.79
719.795	6.7
719.978	4.06
720.162	2.82
720.345	2.86
720.529	-0.84
720.713	1.92
720.896	1.95
721.08	2.9
721.263	5.03
721.446	3.79
721.63	5.79
721.813	7.03
721.997	7.95
722.18	10.38
722.364	13.95
722.547	17.54
722.73	16.61
722.914	13.65
723.097	12.52
723.28	15.67
723.464	19.13
723.647	17.94
723.83	17.34
724.013	19.86
724.197	20.73
724.38	16.18
724.563	13.72
724.746	14.58
724.929	21.65
725.112	21.71
725.296	19.97
725.479	17.19
725.662	14.71
725.845	16.02
726.028	14.83
726.211	15.21
726.394	17.73
726.577	20.67
726.76	20.75
726.943	15.86
727.126	15.7
727.309	15.14
727.492	15.8
727.675	16.17
727.858	15.82
728.041	16.34
728.224	14.72
728.407	15.26
728.589	16.87
728.772	15.14
728.955	18.51
729.138	18.39
729.321	18.96
729.503	19.43
729.686	20.03
729.869	22.02
730.052	20.88
730.234	21.13
730.417	19.65
730.6	17.22
730.782	20.21
730.965	19.55
731.148	19.07
731.33	18.75
731.513	19.09
731.695	20.72
731.878	21.7
732.061	25.28
732.243	27.03
732.426	27.7
732.608	26.4
732.791	25.86
732.973	26.87
733.156	28.26
733.338	28.16
733.52	27.09
733.703	25.25
733.885	23.64
734.068	18.25
734.25	14.15
734.432	12.15
734.615	14.7
734.797	15.97
734.979	17.09
735.162	17.32
735.344	16.94
735.526	17.55
735.708	23.37
735.891	25.06
736.073	23.63
736.255	22.46
736.437	27.54
736.619	28.55
736.802	21.56
736.984	19.06
737.166	19.42
737.348	19.59
737.53	20.19
737.712	16.91
737.894	11.02
738.076	11.46
738.258	14.91
738.44	14
738.622	14.33
738.804	18.3
738.986	17.13
739.168	16.93
739.35	16.18
739.532	11.99
739.714	10.04
739.896	13.92
740.078	14.97
740.259	14.85
740.441	12.78
740.623	10.69
740.805	9.9
740.987	12.03
741.168	11.64
741.35	15.25
741.532	18.21
741.714	19.04
741.895	18.49
742.077	19.46
742.259	16.36
742.44	14.91
742.622	12.1
742.804	8.38
742.985	7.97
743.167	4.65
743.348	-0.68
743.53	3.58
743.711	-0.24
743.893	-0.69
744.075	1.99
744.256	4.27
744.438	6.46
744.619	8.91
744.8	12.31
744.982	10.09
745.163	11.61
745.345	13.88
745.526	9.7
745.707	15.35
745.889	15.28
746.07	15.86
746.252	12.48
746.433	11.33
746.614	14.96
746.795	14.91
746.977	16.62
747.158	18.31
747.339	17.11
747.52	21.66
747.702	18.85
747.883	17.97
748.064	15.89
748.245	19.76
748.426	18.77
748.607	13.27
748.788	13.46
748.97	11.22
749.151	7.99
749.332	1.36
749.513	0.71
749.694	-0.79
749.875	-1.92
750.056	-1.01
750.237	-0.74
750.418	3.68
750.599	-0.19
750.78	-2.68
750.96	2.53
751.141	-3.47
751.322	-0.87
751.503	-2.01
751.684	1.73
751.865	8.99
752.046	2.97
752.226	-1.84
752.407	-0.04
752.588	7.99
752.769	9.07
752.949	7.87
753.13	15.33
753.311	19.57
753.492	18.46
753.672	14.79
753.853	11.2
754.034	15.73
754.214	20.31
754.395	19.91
754.575	18.99
754.756	19.3
754.937	15.15
755.117	11.49
755.298	13.38
755.478	18.43
755.659	18.01
755.839	17.94
756.02	13.82
756.2	10.52
756.381	8.66
756.561	8.05
756.741	15.39
756.922	17.03
757.102	18.33
757.283	16.51
757.463	12.41
757.643	22.44
757.823	21.99
758.004	21.68
758.184	26.63
758.364	27.91
758.545	27.86
758.725	24.97
758.905	25.7
759.085	21.17
759.265	19.65
759.446	21.21
759.626	16.47
759.806	18.22
759.986	21.42
760.166	21.45
760.346	19.12
760.526	20.44
760.706	16.27
760.886	16.72
761.066	19.51
761.246	18.03
761.426	18.2
761.606	14.04
761.786	11.41
761.966	9.65
762.146	10.04
762.326	8.73
762.506	9.15
762.686	10.51
762.866	10.44
763.046	10.76
763.225	13.53
763.405	13.33
763.585	16.83
763.765	19.95
763.945	23.15
764.124	20.5
764.304	23.23
764.484	21.5
764.664	22.48
764.843	23.19
765.023	21.62
765.203	15.45
765.382	15.52
765.562	13.11
765.741	14.16
765.921	16.24
766.101	19.45
766.28	16.02
766.46	15.21
766.639	14.1
766.819	17.86
766.998	23.13
767.178	28.67
767.357	23.11
767.537	21.38
767.716	22.42
767.896	12.89
768.075	12.7
768.254	13.64
768.434	25.55
768.613	23.05
768.792	25.46
768.972	21.82
769.151	20.26
769.33	22.2
769.51	26.9
769.689	21.56
769.868	24.37
770.047	27.13
770.226	30.54
770.406	27.39
770.585	27.15
770.764	26.23
770.943	24.15
771.122	26.71
771.301	31.47
771.48	29.07
771.66	33.89
771.839	34.05
772.018	25.04
772.197	23.88
772.376	18.63
772.555	28.78
772.734	26.35
772.913	22.26
773.092	25.4
773.271	22.7
773.449	26.65
773.628	24.6
773.807	25.67
773.986	32.57
774.165	34.15
774.344	34.5
774.523	22.24
774.701	19.26
774.88	19.78
775.059	14.17
775.238	16.93
775.417	15.78
775.595	10.26
775.774	8.87
775.953	2.42
776.131	-4.47
776.31	-5.6
776.489	2.6
776.667	2.07
776.846	9.38
777.025	12.45
777.203	9.8
777.382	11.41
777.56	11.46
777.739	13.96
777.917	15.95
778.096	16.49
778.274	20.85
778.453	17.77
778.631	19.71
778.81	23.75
778.988	22.55
779.166	28.5
779.345	26.92
779.523	28.32
779.702	27.99
779.88	31.18
780.058	31.84
780.237	24.5
780.415	23.8
780.593	22.16
780.771	15.19
780.95	13.96
781.128	7.77
781.306	9.33
781.484	9.52
781.662	0.61
781.841	4.41
782.019	1.5
782.197	6.08
782.375	9.22
782.553	7.05
782.731	5.43
782.909	12.75
783.087	16.09
783.265	14.29
783.443	7.98
783.621	12.35
783.799	6.55
783.977	18.15
784.155	23.15
784.333	24.38
784.511	25.52
784.689	28.74
784.867	31.24
785.045	21.54
785.223	11.73
785.4	18.03
785.578	25.52
785.756	22.7
785.934	7.76
786.112	2.46
786.289	6.74
786.467	6.81
786.645	0.79
786.823	-6.71
787	0.31
787.178	2.28
787.356	5.67
787.533	0.35
787.711	-0.72
787.889	2.59
788.066	4.22
788.244	-10.4
788.421	-6.75
788.599	-2.91
788.776	-6.46
788.954	-8.25
789.131	-8.86
789.309	-9.36
789.486	-9.41
789.664	-5.88
789.841	-7.01
790.019	-1.01
790.196	8.78
790.373	5.12
790.551	12.09
790.728	11.63
790.906	4.28
791.083	6.2
791.26	-0.71
791.437	11.65
791.615	14.16
791.792	15.08
791.969	1.84
792.146	-0.36
792.324	4
792.501	-8.54
792.678	-17.84
792.855	-14.58
793.032	-4.47
793.209	10.51
793.387	-7.9
793.564	4.15
793.741	25.12
793.918	29.42
794.095	31.83
794.272	29.67
794.449	24.68
794.626	36.27
794.803	38.22
794.98	32.13
795.157	28.94
795.334	37.26
795.511	29.72
795.688	19.56
795.864	25.47
796.041	22.96
796.218	27.4
796.395	31.24
796.572	28.23
796.749	22.82
796.925	26.24
797.102	17.98
797.279	11.64
797.456	2.29
797.632	6.13
797.809	-2.18
797.986	3.29
798.162	0.52
798.339	8.59
798.516	14.87
798.692	18.43
798.869	20.96
799.046	29.18
799.222	29.29
799.399	44.56
799.575	38.01
799.752	29.7
799.928	36.74
800.105	32.03
800.281	28.56
800.458	20.5
800.634	16.87
800.811	15.49
800.987	8.21
801.163	6.03
801.34	-16.77
801.516	-30.86
801.692	-8.77
801.869	-59.62
802.045	-40.64
802.221	-39.65
802.398	-25.58
802.574	-21
802.75	-52.73
802.926	-22.6
803.103	-16.61
803.279	2.14
803.455	21.54
803.631	5.09
803.807	27.77
803.983	46.18
804.16	49.42
804.336	64.45
804.512	64.57
804.688	66.16
804.864	67.33
805.04	52.89
805.216	25.89
805.392	10.69
805.568	10.32
805.744	-27.4
805.92	-72.65
806.096	-103.96
806.272	-108.09
806.448	-157.62
806.623	-128.92
806.799	-101.28
806.975	-50.21
807.151	-28.44
807.327	-19.23
807.503	-14.79
807.678	-3.68
807.854	16.6
808.03	22.72
808.206	20.02
808.381	9.52
808.557	6.86
808.733	0.17
808.908	-9.99
809.084	-21.17
809.26	-18.03
809.435	-32.11
809.611	-55.14
809.787	-76.37
809.962	-76.49
810.138	-65.06
810.313	-47.5
810.489	-64.94
810.664	-48.57
810.84	-26.22
811.015	-31.08
811.191	-48.07
811.366	-34.6
811.542	-14.35
811.717	3.35
811.892	-0.75
812.068	2.01
812.243	-11.01
812.419	-3.67
812.594	-6.53
812.769	-58.6
812.944	-49.41
813.12	-42.34
813.295	-38.25
813.47	-60.65
813.645	-101.34
813.821	-106.65
813.996	-218.11
814.171	-66.59
814.346	-85.46
814.521	-56.7
814.697	-6.24
814.872	18.92
815.047	35.75
815.222	24.5
815.397	24.15
815.572	10.61
815.747	11.68
815.922	13.32
816.097	-8.4
816.272	16.6
816.447	10.11
816.622	16.32
816.797	8.57
816.972	12.66
817.147	24.66
817.322	35.87
817.496	48.46
817.671	52.08
817.846	47.2
818.021	41.97
818.196	35.23
818.371	34.27
818.545	21.58
818.72	25.07
818.895	12.41
819.069	-0.9
819.244	-5.25
819.419	-9.36
819.594	-8.29
819.768	-1.03
819.943	4.03
820.117	8.45
820.292	12.78
820.467	14.54
820.641	14.15
820.816	14.9
820.99	18.08
821.165	20.04
821.339	21.04
821.514	21.38
821.688	22.15
821.863	21.66
822.037	22.59
822.212	21.97
822.386	23.92
822.56	24.49
822.735	26.31
822.909	24.4
823.084	22.26
823.258	21.49
823.432	21.7
823.606	22.09
823.781	26.15
823.955	25.18
824.129	26.73
824.303	22.8
824.478	22.07
824.652	24.41
824.826	26.57
825	29.63
825.174	30
825.348	27.8
825.523	25.63
825.697	19.47
825.871	20.91
826.045	17.49
826.219	16.72
826.393	20.89
826.567	17.91
826.741	20.03
826.915	23.48
827.089	22.49
827.263	28.06
827.437	29.93
827.611	33.71
827.784	37.41
827.958	32.61
828.132	36.09
828.306	33
828.48	36.44
828.654	29.42
828.827	19.56
829.001	17.43
829.175	-3.09
829.349	-13.87
829.522	-20.33
829.696	-31.81
829.87	-18.45
830.044	-15.35
830.217	-3.93
830.391	-7.6
830.565	14.02
830.738	25.56
830.912	23.42
831.085	40.05
831.259	36.87
831.432	44.41
831.606	42.2
831.779	45.32
831.953	39.25
832.126	35.73
832.3	35.92
832.473	29.48
832.647	23.18
832.82	29.94
832.994	28.08
833.167	31.57
833.34	34.56
833.514	35.5
833.687	38.24
833.86	37.08
834.034	35.41
834.207	31.11
834.38	36.03
834.553	34.83
834.727	36.28
834.9	26.47
835.073	27.09
835.246	14.84
835.419	12.68
835.593	12.11
835.766	19.7
835.939	29.33
836.112	31.88
836.285	18.07
836.458	27.2
836.631	10.72
836.804	15.84
836.977	-4.61
837.15	7.85
837.323	10.28
837.496	5.42
837.669	8
837.842	-2.36
838.015	-7.26
838.188	5.64
838.361	-7.44
838.533	-2.25
838.706	-17.89
838.879	-3.94
839.052	-23.1
839.225	-15.93
839.398	-19.49
839.57	-22.71
839.743	-17.01
839.916	8.92
840.088	-2.76
840.261	18.89
840.434	15.4
840.607	6.72
840.779	4.15
840.952	17.83
841.124	5.36
841.297	4.41
841.47	-0.77
841.642	-1.75
841.815	-23.63
841.987	-24.81
842.16	-8.94
842.332	-106.36
842.505	40.38
842.677	69.41
842.85	2233.33
843.022	325
843.194	-1218.18
843.367	1393.55
843.539	647.06
843.712	700
843.884	620.99
844.056	1040
844.229	-129.2
844.401	-195.65
844.573	-306.63
844.745	-58.1
844.918	-79.33
845.09	-83.75
845.262	-29.77
845.434	6.14
845.606	0.73
845.779	32.82
845.951	35.42
846.123	-35.68
846.295	-51.28
846.467	17.11
846.639	33.33
846.811	77.78
846.983	135.71
847.155	-28.03
847.327	49.14
847.499	540
847.671	12
847.843	-518.18
848.015	-210.2
848.187	-171.74
848.359	-174.29
848.531	-54
848.703	12.04
848.875	33.67
849.047	-2.79
849.218	-3.53
849.39	12.65
849.562	-11.21
849.734	46.05
849.905	44.36
850.077	15.08
850.249	-182
850.421	-1.61
850.592	-3.47
850.764	96.54
850.936	74.08
851.107	74.06
851.279	107.28
851.451	53.3
851.622	47.85
851.794	41.75
851.965	30.26
852.137	13.42
852.308	-19.18
852.48	-15.98
852.651	-9.73
852.823	8.19
852.994	6.67
853.166	-33.47
853.337	3.91
853.509	-11.97
853.68	-237.74
853.851	345.95
854.023	45.19
854.194	157.23
854.365	105.71
854.537	85.68
854.708	78.79
854.879	148.63
855.05	175
855.222	1176.92
855.393	119.81
855.564	100
855.735	17.39
855.906	70.9
856.078	49.17
856.249	106.91
856.42	143.41
856.591	263.41
856.762	188.31
856.933	103.28
857.104	73.26
857.275	56.56
857.446	8.31
857.617	24.61
857.788	45.85
857.959	65.57
858.13	145.83
858.301	709.38
858.472	200
858.643	237.04
858.814	130.38
858.985	163.25
859.155	344
859.326	18.69
859.497	49.37
859.668	26.45
859.839	-143.8
860.009	-360.2
860.18	-364.6
860.351	703.33
860.522	2725
860.692	644.29
860.863	-17200
861.034	-601.28
861.204	-890.91
861.375	-237.11
861.546	208.73
861.716	941.67
861.887	356.25
862.057	-5475
862.228	1772.22
862.398	4862.5
862.569	-448.1
862.739	-214.4
862.91	-1127.27
863.08	-101.23
863.251	1151.43
863.421	268
863.592	-133.87
863.762	-548
863.932	23.3
864.103	46.81
864.273	88.89
864.443	-70.89
864.614	1.98
864.784	-5.75
864.954	-1493.75
865.125	-100.65
865.295	-31.91
865.465	-900
865.635	-375.76
865.805	-1825
865.976	-1407.14
866.146	-113.36
866.316	-144.02
866.486	-261.9
866.656	-76.26
866.826	0
866.996	-25.91
867.166	-57.88
867.336	-17.35
867.506	17.48
867.676	-6.73
867.846	16.43
868.016	-475.61
868.186	-0.5
868.356	-102.5
868.526	-241.25
868.696	1677.78
868.866	24.48
869.036	2.92
869.206	-82.19
869.376	-123.26
869.545	-121.62
869.715	-324.32
869.885	-216.67
870.055	2664.29
870.224	-23950
870.394	365.41
870.564	407.41
870.734	185.46
870.903	181.92
871.073	174.57
871.243	192.68
871.412	366.67
871.582	403.55
871.751	955.1
871.921	-97.96
872.091	0.74
872.26	28.86
872.43	67.4
872.599	53.95
872.769	81.68
872.938	77.58
873.108	68.76
873.277	83.37
873.446	81.15
873.616	58.64
873.785	36.18
873.955	20.85
874.124	17.95
874.293	22.09
874.463	36.96
874.632	35.1
874.801	37.56
874.971	38.55
875.14	26.11
875.309	15.79
875.478	-3.97
875.647	-9.13
875.817	-27.05
875.986	-55.11
876.155	-225.62
876.324	-184.25
876.493	-88.7
876.662	-81.82
876.831	-95.22
877	-120
877.17	-47.39
877.339	-25.93
877.508	-14.94
877.677	16.38
877.846	7.2
878.015	24.06
878.184	19.89
878.352	-124.18
878.521	-145.19
878.69	-134.94
878.859	-8.68
879.028	-184.71
879.197	-33.74
879.366	-39.14
879.534	-6.93
879.703	-0.93
879.872	20.4
880.041	33.68
880.21	34.59
880.378	34.72
880.547	23.67
880.716	25.27
880.884	21.28
881.053	17.98
881.222	16.11
881.39	13.8
881.559	18.45
881.727	13.2
881.896	14.69
882.065	17.78
882.233	20.13
882.402	27.62
882.57	23.91
882.739	33.17
882.907	42.54
883.076	52.94
883.244	57.29
883.412	72.8
883.581	67.76
883.749	79.04
883.918	71.49
884.086	72.58
884.254	72.45
884.423	74.48
884.591	76.1
884.759	56.09
884.927	60.77
885.096	57.82
885.264	16.6
885.432	9.55
885.6	-8.05
885.769	1.98
885.937	-39.69
886.105	-59.9
886.273	-68.6
886.441	-60.29
886.609	-59.02
886.777	-31.47
886.945	-28.88
887.113	-71.94
887.281	-30.46
887.449	1678.57
887.617	-1753.85
887.785	-117.95
887.953	457.14
888.121	88.54
888.289	160.81
888.457	109.84
888.625	48.85
888.793	38.02
888.961	12.29
889.129	15.63
889.296	-67.35
889.464	-30.77
889.632	25.69
889.8	-26.06
889.967	-22.77
890.135	-305.88
