Data from JASIL_3200_Reflection_02.txt Node
Date: Fri Nov 13 14:29:23 EST 2015
User: Geneva
Spectrometer: USB4E03002
Autoset integration time: false
Trigger mode: 4
Integration Time (sec): 1.000000E-1
Scans to average: 10
Electric dark correction enabled: false
Nonlinearity correction enabled: false
Boxcar width: 5
Stray light correction enabled: false
XAxis mode: Wavelengths
Stop averaging: false
Number of Pixels in Spectrum: 3648
>>>>>Begin Spectral Data<<<<<
177.575	65.24
177.794	75.34
178.014	81.18
178.233	80.23
178.452	81.99
178.672	82.84
178.891	96.12
179.11	100.64
179.33	104.6
179.549	106.02
179.768	108.24
179.987	103.52
180.207	99.47
180.426	95.08
180.645	96.82
180.864	99.07
181.084	98.99
181.303	92.27
181.522	93.55
181.741	92.74
181.96	90.72
182.179	87.17
182.398	90.22
182.618	92.6
182.837	91.73
183.056	94.72
183.275	92.79
183.494	92.92
183.713	92.67
183.932	93.1
184.151	95.13
184.37	97.32
184.589	101.38
184.808	106.36
185.027	104
185.246	109.05
185.465	107.8
185.684	113.17
185.903	106.65
186.122	109.25
186.341	105.17
186.56	100.84
186.779	104.56
186.998	104.31
187.216	105.13
187.435	105.4
187.654	104.42
187.873	103.16
188.092	98.11
188.311	101.73
188.53	97.79
188.748	93.29
188.967	95.48
189.186	88.72
189.405	89.37
189.623	89.82
189.842	88.93
190.061	87.05
190.28	88.04
190.498	89.32
190.717	88.6
190.936	86.31
191.154	92.48
191.373	93.07
191.592	96.21
191.81	94.39
192.029	86.77
192.248	88.62
192.466	91.25
192.685	94.2
192.904	94.84
193.122	98.68
193.341	105.56
193.559	101.23
193.778	101.11
193.996	103.4
194.215	108.42
194.433	114.37
194.652	113.21
194.87	112.74
195.089	105.8
195.307	105.37
195.526	105.41
195.744	103.64
195.963	102.21
196.181	102.03
196.399	96.94
196.618	94.07
196.836	92.28
197.055	87.71
197.273	85.68
197.491	87.56
197.71	89.65
197.928	91.84
198.146	88.96
198.365	94.03
198.583	95.36
198.801	98.17
199.019	92.99
199.238	94.93
199.456	101.78
199.674	103.13
199.892	102.42
200.111	102.94
200.329	97.49
200.547	104.19
200.765	98.79
200.983	93.37
201.202	93.47
201.42	101.5
201.638	104.93
201.856	98.93
202.074	96.23
202.292	95.9
202.51	92.29
202.728	93.21
202.946	87.03
203.165	87.21
203.383	87.44
203.601	81.3
203.819	76.02
204.037	69.38
204.255	72.11
204.473	80.64
204.691	83.63
204.909	87.09
205.127	89.17
205.345	92.2
205.562	101.64
205.78	105.91
205.998	119.48
206.216	137.73
206.434	134.14
206.652	128.58
206.87	115.54
207.088	113.85
207.306	110.27
207.523	104.7
207.741	103.29
207.959	93.89
208.177	89.21
208.395	86.37
208.612	81.33
208.83	81.47
209.048	83.45
209.266	87.79
209.483	84.5
209.701	85.08
209.919	86.06
210.136	88.11
210.354	93.31
210.572	100.38
210.79	102.11
211.007	100.03
211.225	98.66
211.442	99.88
211.66	98.61
211.878	97.87
212.095	64.48
212.313	64.71
212.53	64.41
212.748	67.3
212.966	66.48
213.183	66.07
213.401	65.08
213.618	72.81
213.836	75.84
214.053	79.09
214.271	80.99
214.488	119.65
214.705	121.64
214.923	120.09
215.14	118.7
215.358	120.49
215.575	112.86
215.793	117.26
216.01	123.34
216.227	108.93
216.445	105.48
216.662	105.45
216.879	101.59
217.097	101.47
217.314	106.41
217.531	103.89
217.749	102.1
217.966	108.01
218.183	109.22
218.4	98.73
218.618	102.05
218.835	102.18
219.052	105.84
219.269	114.18
219.487	116.84
219.704	116.22
219.921	120.27
220.138	120.23
220.355	109.22
220.572	109.26
220.79	108.47
221.007	106.32
221.224	106.28
221.441	99.25
221.658	93.12
221.875	94.11
222.092	95.29
222.309	92.87
222.526	93.58
222.743	103.03
222.96	96.39
223.177	97.63
223.394	98.78
223.611	96.83
223.828	97.76
224.045	94.8
224.262	90.15
224.479	85.64
224.696	86.41
224.913	84.65
225.13	79.69
225.347	80.48
225.564	76.06
225.781	75.61
225.997	74.36
226.214	73.83
226.431	74.28
226.648	68.17
226.865	68.3
227.082	66.67
227.298	63.83
227.515	61.77
227.732	61.26
227.949	65.14
228.165	62.06
228.382	64.75
228.599	62.21
228.816	64.34
229.032	65.93
229.249	65.63
229.466	67.34
229.682	68.94
229.899	69.14
230.116	71.17
230.332	69.52
230.549	75.11
230.765	71.35
230.982	72.49
231.199	69.88
231.415	72.09
231.632	72.4
231.848	70.39
232.065	74.14
232.281	75.33
232.498	73.22
232.714	72.86
232.931	70.49
233.147	70.15
233.364	73.1
233.58	72.69
233.797	71.09
234.013	70.54
234.23	72.78
234.446	67.83
234.662	72.02
234.879	75.11
235.095	72.47
235.312	75.26
235.528	80.41
235.744	82.21
235.961	80.91
236.177	84.32
236.393	86.6
236.61	85.55
236.826	88.74
237.042	88.27
237.258	86.42
237.475	89.43
237.691	86.86
237.907	82.72
238.123	81.6
238.339	84.53
238.556	82.66
238.772	80.55
238.988	79.93
239.204	78.78
239.42	77.25
239.636	75.3
239.853	71.57
240.069	67.59
240.285	67.18
240.501	61.46
240.717	60.3
240.933	59.58
241.149	58.94
241.365	55.11
241.581	55.56
241.797	52.83
242.013	54.32
242.229	56.17
242.445	59.9
242.661	61.4
242.877	63.86
243.093	65.6
243.309	66.25
243.525	66.27
243.741	65.55
243.957	62.69
244.173	63.69
244.388	61.41
244.604	54.63
244.82	51.94
245.036	47.36
245.252	44.41
245.468	40.23
245.683	38.74
245.899	35.43
246.115	34.43
246.331	32.2
246.547	29.75
246.762	30.46
246.978	32.88
247.194	32.22
247.409	34.87
247.625	36.35
247.841	36.98
248.057	37.3
248.272	38.34
248.488	42.54
248.703	46.03
248.919	50.39
249.135	50.15
249.35	51.69
249.566	52.89
249.782	51.29
249.997	53.18
250.213	53.16
250.428	53.96
250.644	55.54
250.859	53.57
251.075	53.12
251.29	50.13
251.506	50.31
251.721	49.68
251.937	47.99
252.152	49.7
252.368	51.43
252.583	54.55
252.798	56.65
253.014	56.74
253.229	57.09
253.445	59.92
253.66	62.86
253.875	65.97
254.091	69.96
254.306	74.84
254.521	74.98
254.737	70.91
254.952	68.18
255.167	68.28
255.383	69.07
255.598	70.89
255.813	68.33
256.028	66.68
256.244	64.73
256.459	62.18
256.674	60.85
256.889	56.84
257.104	53.79
257.32	51.09
257.535	45.68
257.75	40.8
257.965	38.75
258.18	36.65
258.395	36.55
258.61	34.5
258.826	32.39
259.041	31.14
259.256	30.52
259.471	31.79
259.686	33.44
259.901	34.6
260.116	36.3
260.331	37.34
260.546	37.84
260.761	37.66
260.976	38.65
261.191	40.8
261.406	42.4
261.621	43.97
261.836	45.13
262.05	45.65
262.265	48.97
262.48	49.92
262.695	49.43
262.91	52.73
263.125	55.82
263.34	58.54
263.555	56.84
263.769	55.48
263.984	56.71
264.199	55.39
264.414	54.19
264.629	49.92
264.843	49.6
265.058	49.61
265.273	47.96
265.488	45.72
265.702	44.16
265.917	46.58
266.132	48.91
266.346	49.68
266.561	48.71
266.776	47.21
266.99	48.57
267.205	48
267.42	44.87
267.634	44.43
267.849	44.99
268.063	44.41
268.278	44.41
268.492	41.34
268.707	39.83
268.922	39.64
269.136	40.46
269.351	39.72
269.565	39.64
269.78	39.54
269.994	38.97
270.209	39.3
270.423	39.29
270.637	37.58
270.852	36.17
271.066	36.83
271.281	37.69
271.495	37.06
271.709	37.03
271.924	35.97
272.138	37.84
272.353	39.9
272.567	38.77
272.781	38.69
272.996	40.07
273.21	41.15
273.424	40.86
273.638	40.44
273.853	40.87
274.067	40.34
274.281	40.41
274.495	43.08
274.71	42.37
274.924	43.73
275.138	44.13
275.352	44.05
275.566	45.02
275.781	43.79
275.995	43.66
276.209	45.64
276.423	46.86
276.637	48.81
276.851	47.2
277.065	46.02
277.279	43.58
277.493	42.24
277.707	41.5
277.921	38.92
278.135	39.52
278.349	39.45
278.563	36.84
278.777	36.41
278.991	35.06
279.205	35.6
279.419	36.2
279.633	36.3
279.847	36.88
280.061	35.91
280.275	38.29
280.489	39.52
280.703	38.12
280.917	39.53
281.131	39.9
281.344	40.74
281.558	39.71
281.772	39.42
281.986	40.42
282.2	39.87
282.414	39.78
282.627	37.52
282.841	35.92
283.055	36.18
283.269	34.64
283.482	33.29
283.696	32.04
283.91	33.53
284.123	31.74
284.337	30.33
284.551	29.87
284.764	30.69
284.978	31.62
285.192	32.66
285.405	33.46
285.619	33.92
285.833	35.88
286.046	35.8
286.26	33.73
286.473	34.69
286.687	36.99
286.9	36.2
287.114	35.37
287.327	35.71
287.541	35.28
287.754	33.6
287.968	35.41
288.181	34.47
288.395	34
288.608	34.56
288.822	34.58
289.035	32.92
289.248	33.5
289.462	35.04
289.675	35.26
289.889	35.35
290.102	36.56
290.315	34.13
290.529	34.83
290.742	34.71
290.955	34.95
291.169	36.04
291.382	36.37
291.595	38.1
291.808	36.75
292.022	36.04
292.235	34.95
292.448	34.97
292.661	35.51
292.875	34.36
293.088	36.17
293.301	37.61
293.514	35.92
293.727	36.64
293.94	34.97
294.153	35.65
294.367	35.63
294.58	34.96
294.793	34.19
295.006	34.12
295.219	32.68
295.432	31.17
295.645	29.16
295.858	28.19
296.071	26.95
296.284	26.64
296.497	26.45
296.71	25.5
296.923	26.51
297.136	25.97
297.349	26.31
297.562	27.06
297.775	26.91
297.988	26.84
298.201	27.67
298.414	27.77
298.626	28.9
298.839	28.19
299.052	29.35
299.265	31
299.478	31.99
299.691	31.92
299.903	32.48
300.116	33.55
300.329	34.77
300.542	36.19
300.755	36.02
300.967	36.14
301.18	37.59
301.393	37.42
301.605	35.32
301.818	36.17
302.031	35.25
302.243	34.97
302.456	36.1
302.669	35.44
302.881	35.81
303.094	36.14
303.307	37.17
303.519	37.17
303.732	38.53
303.944	39.02
304.157	39.07
304.37	38.35
304.582	39.83
304.795	38.81
305.007	39.59
305.22	38.59
305.432	39.22
305.645	37.42
305.857	36.25
306.069	33.96
306.282	32.45
306.494	31.88
306.707	33.96
306.919	32.33
307.132	32.36
307.344	31.94
307.556	31.42
307.769	30.78
307.981	30.93
308.193	31.64
308.406	32.87
308.618	33.33
308.83	33.57
309.043	33.36
309.255	33.47
309.467	32.92
309.679	31.51
309.892	31.11
310.104	31.8
310.316	32.05
310.528	31.44
310.74	31.11
310.953	33.25
311.165	32.81
311.377	32.6
311.589	32.5
311.801	32.9
312.013	36.74
312.225	36.66
312.437	36.95
312.649	36.67
312.862	34.89
313.074	34.92
313.286	31.89
313.498	32.1
313.71	32.52
313.922	33.23
314.134	34.73
314.346	31.73
314.558	34.11
314.77	35.08
314.982	34.46
315.193	35.82
315.405	35.6
315.617	38.02
315.829	38.89
316.041	38.52
316.253	37.02
316.465	34.38
316.677	35.17
316.888	35.6
317.1	35.56
317.312	37
317.524	38.02
317.736	38.77
317.947	38.84
318.159	39.12
318.371	40.22
318.583	40.63
318.794	41.87
319.006	41.32
319.218	41.11
319.43	40.48
319.641	41.14
319.853	42.08
320.064	41.49
320.276	41.04
320.488	40.94
320.699	39.48
320.911	40.79
321.123	41.23
321.334	39.96
321.546	37.63
321.757	38.27
321.969	37.25
322.18	35.99
322.392	36.7
322.603	36.45
322.815	36.03
323.026	37.97
323.238	38.12
323.449	38.22
323.661	39.52
323.872	40.06
324.083	39.79
324.295	39.02
324.506	38.02
324.718	39.65
324.929	39.3
325.14	39.68
325.352	38.67
325.563	38.83
325.774	38.56
325.986	39.25
326.197	39.32
326.408	40.05
326.62	41.36
326.831	41.44
327.042	39.61
327.253	39.89
327.464	39.75
327.676	39.65
327.887	38.05
328.098	38.07
328.309	37.04
328.52	38.53
328.732	37.18
328.943	37.01
329.154	38.19
329.365	38.77
329.576	39.13
329.787	39.97
329.998	40.79
330.209	43.57
330.42	43.45
330.631	43.9
330.842	43.61
331.053	43.72
331.264	43.4
331.475	43.04
331.686	44.03
331.897	44.34
332.108	42.41
332.319	40.83
332.53	38.52
332.741	38.31
332.952	38.28
333.163	37.12
333.374	36.24
333.585	37.16
333.795	37.39
334.006	36.67
334.217	35.25
334.428	36
334.639	37.3
334.849	38.11
335.06	38.35
335.271	38.19
335.482	39.78
335.692	40.98
335.903	39.79
336.114	38.95
336.325	39.99
336.535	40.25
336.746	38.53
336.957	37.84
337.167	38.5
337.378	39.54
337.589	39.99
337.799	38.8
338.01	39.01
338.22	39.78
338.431	40.58
338.642	39.35
338.852	40.48
339.063	42.44
339.273	43.51
339.484	42.22
339.694	40.85
339.905	39.52
340.115	38.97
340.326	38.36
340.536	37.55
340.746	36.86
340.957	36.72
341.167	35.02
341.378	33.5
341.588	32.91
341.799	33.49
342.009	33.74
342.219	34.56
342.43	36.1
342.64	36.14
342.85	36.93
343.061	36.87
343.271	36.67
343.481	37.28
343.691	37.58
343.902	36.64
344.112	36.96
344.322	37.11
344.532	36.17
344.743	36.29
344.953	35.49
345.163	35.63
345.373	36.84
345.583	37.14
345.793	35.55
346.004	36.8
346.214	36.89
346.424	36.62
346.634	36.33
346.844	37.27
347.054	36.17
347.264	38.79
347.474	37.44
347.684	36.04
347.894	35.11
348.104	36.9
348.314	35.14
348.524	35.56
348.734	35.43
348.944	34.09
349.154	34.07
349.364	32.48
349.574	29.44
349.784	31.99
349.994	32.8
350.204	33.59
350.413	33.12
350.623	35.2
350.833	34.88
351.043	34.91
351.253	36.01
351.463	36.84
351.672	38.27
351.882	39.82
352.092	36.44
352.302	36.67
352.511	36.29
352.721	37.23
352.931	36.48
353.141	35.71
353.35	35.42
353.56	34.83
353.77	34.3
353.979	34.06
354.189	32.97
354.399	35.8
354.608	35.48
354.818	36.48
355.027	36.66
355.237	36.69
355.447	37.27
355.656	35.65
355.866	35.95
356.075	35.97
356.285	35.95
356.494	36.67
356.704	35.92
356.913	35.15
357.123	34.1
357.332	31.92
357.542	31.96
357.751	31.5
357.96	32.9
358.17	32.04
358.379	31.25
358.589	31.98
358.798	31
359.007	30.11
359.217	30.15
359.426	30.12
359.635	30.8
359.845	30.1
360.054	29.72
360.263	29.09
360.472	29.39
360.682	28.92
360.891	27.77
361.1	28.25
361.309	28.25
361.519	28.38
361.728	27.89
361.937	28.53
362.146	29.05
362.355	29.9
362.564	29.88
362.774	30.15
362.983	30.11
363.192	30.3
363.401	31.72
363.61	31.15
363.819	31.41
364.028	31.56
364.237	30.55
364.446	29.61
364.655	29.13
364.864	30.39
365.073	31.23
365.282	31.29
365.491	31.21
365.7	28.37
365.909	28.86
366.118	28.28
366.327	28.74
366.536	29.5
366.745	30.58
366.954	30.4
367.162	29.54
367.371	28.67
367.58	29.93
367.789	30.45
367.998	31.78
368.207	31.67
368.415	31.65
368.624	31.95
368.833	31.44
369.042	31.92
369.25	31.92
369.459	32.27
369.668	31.7
369.877	31.63
370.085	32.22
370.294	31.72
370.503	32.03
370.711	33.3
370.92	32.38
371.129	31.61
371.337	29.74
371.546	30.14
371.754	29.89
371.963	30.16
372.171	29.42
372.38	26.96
372.589	26.54
372.797	26.17
373.006	25.9
373.214	26.18
373.423	27.58
373.631	28.56
373.84	27.69
374.048	27.64
374.256	27.07
374.465	27.8
374.673	29.06
374.882	29.93
375.09	29.47
375.298	28.98
375.507	29.2
375.715	28.81
375.923	27.76
376.132	28.4
376.34	28.5
376.548	28.99
376.757	27.52
376.965	27.64
377.173	27.45
377.381	27.97
377.59	28.22
377.798	27.77
378.006	27.45
378.214	28.02
378.423	28.42
378.631	28.16
378.839	28.65
379.047	30.4
379.255	29.71
379.463	29.51
379.671	29.45
379.879	29.94
380.088	30.01
380.296	30.23
380.504	30.87
380.712	30.65
380.92	29.98
381.128	29.59
381.336	28.74
381.544	28.85
381.752	28.4
381.96	28.62
382.168	29.23
382.376	28.33
382.584	28.62
382.791	28.03
382.999	28.06
383.207	27.91
383.415	27.85
383.623	27.84
383.831	28.65
384.039	30.12
384.247	29.74
384.454	28.84
384.662	30.02
384.87	29.38
385.078	29.06
385.285	27.85
385.493	28.18
385.701	28.78
385.909	29.74
386.116	29.36
386.324	28.24
386.532	28.87
386.739	29.37
386.947	28.86
387.155	29.49
387.362	30.9
387.57	32.13
387.778	32.22
387.985	31.66
388.193	31.31
388.4	31.33
388.608	32.03
388.816	30.88
389.023	30.02
389.231	29.9
389.438	28.78
389.646	28.05
389.853	27.51
390.061	27.16
390.268	26.81
390.475	25.76
390.683	26.13
390.89	25.95
391.098	27.01
391.305	27.58
391.512	27.93
391.72	28.57
391.927	28.57
392.135	28.2
392.342	28.29
392.549	29.02
392.756	29.42
392.964	29.17
393.171	29
393.378	28.96
393.586	27.79
393.793	27.6
394	27.59
394.207	27.55
394.414	28.57
394.622	28.99
394.829	28.93
395.036	28.23
395.243	28.67
395.45	28.84
395.657	28.48
395.864	29.98
396.072	30.62
396.279	30.72
396.486	30.09
396.693	30.33
396.9	30.24
397.107	28.17
397.314	28.82
397.521	28.5
397.728	27.24
397.935	27.56
398.142	26.7
398.349	26.75
398.556	26.38
398.763	26.88
398.97	26.47
399.177	26.8
399.383	28.03
399.59	27.95
399.797	28.29
400.004	29.42
400.211	29.41
400.418	29.64
400.625	29.37
400.831	29.25
401.038	28.9
401.245	28.88
401.452	28.16
401.658	28.74
401.865	28.38
402.072	28.8
402.279	28.66
402.485	27.17
402.692	26.89
402.899	26.77
403.105	26.42
403.312	27.46
403.519	26.82
403.725	26.93
403.932	26.34
404.138	26.64
404.345	25.84
404.552	25.75
404.758	27.19
404.965	26.64
405.171	26.42
405.378	27.06
405.584	26.56
405.791	26.76
405.997	28.08
406.204	29.63
406.41	29.41
406.617	29.29
406.823	29.06
407.029	29.08
407.236	29.51
407.442	30.23
407.649	30.82
407.855	30.59
408.061	30.06
408.268	29.12
408.474	29.25
408.68	29.82
408.887	30.4
409.093	30.24
409.299	29.72
409.505	30.35
409.712	30.17
409.918	29.44
410.124	29.77
410.33	30.52
410.537	30.57
410.743	30.53
410.949	30.7
411.155	30.61
411.361	31.4
411.567	31.63
411.773	31.06
411.98	30.22
412.186	30.47
412.392	30.34
412.598	30.14
412.804	30.1
413.01	29.41
413.216	30.23
413.422	29.98
413.628	28.8
413.834	28.05
414.04	28.77
414.246	29.32
414.452	29.36
414.658	30.23
414.864	30
415.07	30.38
415.275	30.7
415.481	29.98
415.687	30.33
415.893	30.49
416.099	30.83
416.305	29.89
416.511	29.56
416.716	29.35
416.922	28.63
417.128	28.11
417.334	27.06
417.539	26.16
417.745	25.92
417.951	24.91
418.157	25.08
418.362	24.77
418.568	24.3
418.774	23.83
418.979	23.66
419.185	23.35
419.391	23.42
419.596	23.73
419.802	23.84
420.008	23.22
420.213	20.42
420.419	20.32
420.624	20.56
420.83	20.51
421.035	20.8
421.241	20.72
421.446	20.38
421.652	20.84
421.857	20.55
422.063	20.33
422.268	20.5
422.474	23.38
422.679	23.53
422.885	23.39
423.09	23.8
423.295	23.52
423.501	23.7
423.706	23.95
423.911	22.96
424.117	23.03
424.322	23.32
424.527	23.93
424.733	24.39
424.938	24.4
425.143	24.72
425.349	24.82
425.554	25.31
425.759	25.74
425.964	26.05
426.169	27.16
426.375	27.8
426.58	28.13
426.785	27.86
426.99	27.69
427.195	27.73
427.4	28.02
427.605	28.28
427.811	28.9
428.016	27.85
428.221	27.81
428.426	27.12
428.631	26.72
428.836	26.49
429.041	26.24
429.246	26.45
429.451	26.86
429.656	26.69
429.861	26.6
430.066	26.34
430.271	26.99
430.476	27.24
430.681	27.99
430.886	27.54
431.09	27.18
431.295	27.51
431.5	27.27
431.705	26.94
431.91	26.7
432.115	27.03
432.32	26.51
432.524	26.59
432.729	26.32
432.934	26.36
433.139	26.85
433.343	27.24
433.548	26.98
433.753	27.12
433.958	27.46
434.162	27.36
434.367	27.03
434.572	27.13
434.776	27.18
434.981	26.76
435.186	26.54
435.39	26.52
435.595	26.96
435.799	27.34
436.004	27.57
436.209	26.97
436.413	26.92
436.618	26.65
436.822	26.99
437.027	26.51
437.231	27
437.436	26.23
437.64	26.08
437.845	25.35
438.049	25.06
438.253	24.8
438.458	25.14
438.662	25
438.867	24.66
439.071	24.26
439.275	24
439.48	23.78
439.684	24.18
439.888	24.28
440.093	24.02
440.297	24.16
440.501	24.13
440.706	23.99
440.91	24.05
441.114	24.67
441.318	24.83
441.523	25.27
441.727	25.31
441.931	25.86
442.135	25.59
442.339	25.94
442.543	26.03
442.748	25.96
442.952	25.94
443.156	26.06
443.36	26.21
443.564	25.99
443.768	25.5
443.972	25.94
444.176	25.1
444.38	25.17
444.584	25.1
444.788	24.49
444.992	24.54
445.196	24.44
445.4	24.22
445.604	23.68
445.808	23.9
446.012	24.38
446.216	23.61
446.42	23.8
446.624	23.73
446.828	23.59
447.032	23.75
447.235	23.82
447.439	23.56
447.643	23.86
447.847	23.74
448.051	24.38
448.254	24.49
448.458	25.55
448.662	25.75
448.866	25.72
449.069	26.25
449.273	26.67
449.477	26.49
449.681	26.81
449.884	26.78
450.088	27.38
450.292	26.98
450.495	26.93
450.699	26.65
450.902	26.77
451.106	26.76
451.31	26.73
451.513	26.77
451.717	26.57
451.92	27.11
452.124	26.89
452.327	27.05
452.531	26.49
452.734	27.12
452.938	26.92
453.141	27.12
453.345	27.92
453.548	27.92
453.752	27.93
453.955	28.76
454.158	28.66
454.362	28.96
454.565	28.81
454.769	29.27
454.972	28.43
455.175	28.63
455.379	28.35
455.582	28.06
455.785	27.61
455.988	27.82
456.192	27.69
456.395	27.17
456.598	27.31
456.801	26.79
457.005	26.68
457.208	26.62
457.411	25.81
457.614	25.31
457.817	24.81
458.021	24.71
458.224	24.62
458.427	24.18
458.63	24.13
458.833	23.6
459.036	23.17
459.239	23.03
459.442	23.04
459.645	23.51
459.848	23.83
460.051	24.19
460.254	24.29
460.457	24.27
460.66	24.52
460.863	24.54
461.066	24.9
461.269	25.65
461.472	26.18
461.675	26.2
461.878	26.07
462.081	26.29
462.284	26.46
462.486	26.74
462.689	26.52
462.892	26.54
463.095	27.28
463.298	27.64
463.5	28.27
463.703	27.87
463.906	28.32
464.109	28.61
464.311	28.61
464.514	28.94
464.717	29.48
464.92	29.06
465.122	28.7
465.325	28.31
465.528	28.21
465.73	27.7
465.933	27.49
466.135	26.84
466.338	26.99
466.541	26.98
466.743	26.34
466.946	25.93
467.148	25.99
467.351	25.99
467.553	25.82
467.756	25.89
467.958	25.68
468.161	26.03
468.363	26.62
468.566	26.26
468.768	26.14
468.971	26.68
469.173	26.81
469.375	27.1
469.578	27.89
469.78	28.13
469.983	28.12
470.185	28.55
470.387	28.62
470.59	28.65
470.792	28.75
470.994	29.22
471.196	29.21
471.399	29.19
471.601	29.12
471.803	28.17
472.005	28.33
472.208	27.89
472.41	27.6
472.612	27.23
472.814	26.75
473.016	26.67
473.218	26.25
473.421	25.13
473.623	25.13
473.825	25.49
474.027	25.9
474.229	25.71
474.431	26.15
474.633	26.46
474.835	26.62
475.037	26.63
475.239	27.02
475.441	27.32
475.643	28.1
475.845	27.81
476.047	27.51
476.249	27.5
476.451	27.32
476.653	27.14
476.855	27.12
477.057	26.91
477.258	27.32
477.46	27.1
477.662	27.1
477.864	27.12
478.066	27.11
478.268	27.17
478.469	27.09
478.671	26.8
478.873	26.66
479.075	26.51
479.276	26.65
479.478	26.27
479.68	25.82
479.882	25.17
480.083	24.81
480.285	24.57
480.487	24.41
480.688	24.14
480.89	24.26
481.091	23.7
481.293	23
481.495	22.16
481.696	21.63
481.898	21.27
482.099	20.97
482.301	20.69
482.502	20.25
482.704	19.83
482.905	19.58
483.107	19.14
483.308	19.1
483.51	19.03
483.711	18.95
483.913	18.96
484.114	18.89
484.315	19
484.517	18.9
484.718	19.15
484.92	19.28
485.121	19.38
485.322	19.61
485.524	19.85
485.725	20.07
485.926	20.17
486.127	20.21
486.329	20.32
486.53	20.17
486.731	20.44
486.932	20.01
487.134	20.04
487.335	20.14
487.536	20.17
487.737	20
487.938	20.12
488.139	20.3
488.341	20.46
488.542	20.6
488.743	20.84
488.944	20.66
489.145	21.42
489.346	21.57
489.547	21.51
489.748	21.61
489.949	21.87
490.15	21.75
490.351	21.69
490.552	21.42
490.753	21.29
490.954	21.24
491.155	21.38
491.356	21.22
491.557	21.18
491.758	21.23
491.959	21.35
492.159	21.39
492.36	21.55
492.561	21.94
492.762	22.5
492.963	23.03
493.164	23.5
493.364	23.91
493.565	23.8
493.766	24.19
493.967	24.67
494.167	24.9
494.368	25.12
494.569	25.07
494.769	25.34
494.97	25.2
495.171	25.35
495.371	25.3
495.572	25.14
495.773	25.63
495.973	25.41
496.174	25.39
496.375	25.21
496.575	24.97
496.776	25.22
496.976	25.03
497.177	25.25
497.377	24.93
497.578	24.47
497.778	24.51
497.979	24.44
498.179	24.52
498.38	24.41
498.58	24.48
498.78	24.67
498.981	24.68
499.181	25.32
499.382	25.4
499.582	25.93
499.782	26.67
499.983	27.01
500.183	27.13
500.383	27.65
500.584	27.55
500.784	28.02
500.984	28.27
501.184	28.42
501.385	28.25
501.585	28.3
501.785	27.89
501.985	27.76
502.185	27.32
502.386	27.66
502.586	26.95
502.786	27.61
502.986	27.33
503.186	27.17
503.386	27.27
503.586	26.5
503.786	26.16
503.987	26.37
504.187	26.25
504.387	26.61
504.587	26.48
504.787	26.7
504.987	26.43
505.187	26.63
505.387	26.69
505.587	26.57
505.786	26.76
505.986	26.71
506.186	26.41
506.386	26.5
506.586	26.53
506.786	26.33
506.986	26.4
507.186	26.21
507.386	26.22
507.585	25.77
507.785	25.78
507.985	25.78
508.185	25.82
508.384	26.34
508.584	26.19
508.784	25.85
508.984	25.99
509.183	25.79
509.383	26.2
509.583	26.38
509.782	26.55
509.982	26.32
510.182	26.21
510.381	26.3
510.581	25.88
510.781	25.97
510.98	26.54
511.18	26.76
511.379	26.69
511.579	25.88
511.778	25.75
511.978	25.8
512.177	25.56
512.377	25.8
512.576	25.93
512.776	26.33
512.975	26.31
513.175	26.16
513.374	25.85
513.573	26.78
513.773	27.52
513.972	27.48
514.172	27.77
514.371	28.4
514.57	28.44
514.77	28.75
514.969	28.39
515.168	28.76
515.367	28.68
515.567	28.14
515.766	27.63
515.965	27.58
516.164	27.74
516.364	27.35
516.563	27.02
516.762	26.84
516.961	26.58
517.16	26.08
517.359	25.56
517.559	25.38
517.758	25.74
517.957	25.88
518.156	25.75
518.355	25.47
518.554	25.89
518.753	25.98
518.952	26.28
519.151	26.49
519.35	27.03
519.549	27.74
519.748	28.1
519.947	28.19
520.146	28.07
520.345	28.31
520.544	28.5
520.743	28.09
520.942	28.37
521.141	28.43
521.339	28.24
521.538	28.49
521.737	28.06
521.936	28.13
522.135	28.07
522.333	28.26
522.532	28.16
522.731	27.53
522.93	27.67
523.129	27.5
523.327	27.33
523.526	27.5
523.725	27.62
523.923	27.31
524.122	27.09
524.321	27.06
524.519	27.04
524.718	26.6
524.917	27.07
525.115	26.97
525.314	26.89
525.512	26.7
525.711	26.42
525.909	25.71
526.108	25.58
526.306	25.2
526.505	24.94
526.703	24.59
526.902	24.45
527.1	24.04
527.299	23.67
527.497	23.36
527.696	22.98
527.894	22.72
528.092	22.7
528.291	22.73
528.489	22.89
528.688	23.07
528.886	23.15
529.084	23.42
529.283	23.55
529.481	23.9
529.679	24.26
529.877	24.79
530.076	25.17
530.274	25.56
530.472	25.72
530.67	25.67
530.869	25.52
531.067	25.56
531.265	25.6
531.463	25.75
531.661	25.64
531.859	25.51
532.057	25.72
532.255	25.86
532.454	25.89
532.652	25.88
532.85	26.05
533.048	26.07
533.246	26.19
533.444	26.21
533.642	26.44
533.84	26.86
534.038	26.93
534.236	26.89
534.434	27.27
534.632	27.37
534.83	27.72
535.027	27.54
535.225	28.08
535.423	28.09
535.621	28.55
535.819	28.29
536.017	28.05
536.215	28.59
536.412	28.72
536.61	28.65
536.808	28.92
537.006	29
537.203	29.73
537.401	29.81
537.599	30.31
537.797	30.06
537.994	30.67
538.192	31.09
538.39	30.68
538.587	30.37
538.785	30.23
538.983	30.05
539.18	30.15
539.378	29.8
539.575	29.47
539.773	28.95
539.97	28.65
540.168	28.17
540.366	28
540.563	27.78
540.761	27.82
540.958	27.75
541.155	27.69
541.353	27.56
541.55	27.51
541.748	27.94
541.945	28.16
542.143	28.38
542.34	28.73
542.537	28.85
542.735	29.44
542.932	29.88
543.129	30.23
543.327	30.7
543.524	31.19
543.721	31.49
543.919	31.3
544.116	31.47
544.313	31.75
544.51	32.05
544.708	32.4
544.905	32.43
545.102	32.66
545.299	32.69
545.496	32.52
545.693	32.44
545.891	32.59
546.088	32.86
546.285	32.83
546.482	33.1
546.679	33.31
546.876	33.47
547.073	34.17
547.27	34.08
547.467	34.61
547.664	35.36
547.861	35.78
548.058	36.16
548.255	36.35
548.452	36.95
548.649	37.4
548.846	37.99
549.043	38.45
549.24	37.96
549.437	38.87
549.633	39.09
549.83	39.19
550.027	39.68
550.224	39.78
550.421	40.05
550.618	40.74
550.814	41.07
551.011	40.4
551.208	40.02
551.405	40.84
551.601	40
551.798	39.69
551.995	39.43
552.191	39.28
552.388	39.41
552.585	39.22
552.781	39.09
552.978	39.31
553.175	39.65
553.371	40.25
553.568	40.16
553.764	40.97
553.961	41.38
554.157	42.09
554.354	42.43
554.55	42.71
554.747	43.32
554.943	43.38
555.14	43.27
555.336	43.81
555.533	44.17
555.729	44.34
555.926	44.48
556.122	44.75
556.318	45.03
556.515	45.09
556.711	45.11
556.907	45.13
557.104	45.77
557.3	46.01
557.496	46.08
557.693	46.06
557.889	46.29
558.085	46.25
558.281	46.31
558.478	46.43
558.674	46.25
558.87	46.4
559.066	46.36
559.262	45.86
559.459	46.02
559.655	45.52
559.851	45.53
560.047	45.23
560.243	45.29
560.439	45.59
560.635	44.71
560.831	45.17
561.027	45.13
561.223	45.5
561.419	45.66
561.615	45.54
561.811	46.32
562.007	46.39
562.203	46.11
562.399	46.22
562.595	45.99
562.791	46.75
562.987	46.72
563.183	46.76
563.379	46.53
563.575	46.6
563.771	46.78
563.966	46.21
564.162	46.23
564.358	46.87
564.554	46.75
564.75	46.18
564.945	46.13
565.141	45.87
565.337	46.5
565.533	46.55
565.728	46.2
565.924	45.55
566.12	45.79
566.315	46.05
566.511	45.59
566.707	45.7
566.902	46.1
567.098	46.16
567.293	46.61
567.489	46.43
567.684	46.87
567.88	47.32
568.076	47.98
568.271	47.85
568.467	48.01
568.662	47.98
568.858	48.24
569.053	48.67
569.248	48.65
569.444	48.19
569.639	47.9
569.835	47.68
570.03	47.75
570.225	47.66
570.421	47.9
570.616	48.03
570.812	49.02
571.007	48.55
571.202	48.03
571.397	47.8
571.593	47.92
571.788	48.04
571.983	47.97
572.178	47.98
572.374	48.77
572.569	48.69
572.764	48.35
572.959	48.04
573.154	48.2
573.35	48.71
573.545	49.32
573.74	49.44
573.935	49.48
574.13	49.89
574.325	49.78
574.52	49.05
574.715	49.41
574.91	49.33
575.105	49.11
575.3	49.77
575.495	49.88
575.69	49.67
575.885	50.04
576.08	50.1
576.275	50.2
576.47	50.75
576.665	51.66
576.86	52
577.055	52.11
577.25	52.61
577.444	52.79
577.639	53.4
577.834	53.91
578.029	54.56
578.224	54.95
578.418	55.41
578.613	55.87
578.808	55.71
579.003	56.05
579.197	56.94
579.392	57.06
579.587	57.74
579.781	57.92
579.976	58.22
580.171	58.45
580.365	59.25
580.56	58.79
580.755	58.51
580.949	58.6
581.144	59.08
581.338	58.65
581.533	59.25
581.727	58.51
581.922	58.41
582.116	58.9
582.311	58.43
582.505	58.66
582.7	59.39
582.894	59.56
583.089	59.14
583.283	59.4
583.478	59.74
583.672	59.25
583.866	59.93
584.061	60.53
584.255	60.26
584.449	60.55
584.644	60.68
584.838	61.07
585.032	61.28
585.226	61.45
585.421	60.96
585.615	61.62
585.809	62.28
586.003	62.42
586.198	61.9
586.392	61.87
586.586	61.8
586.78	60.93
586.974	61.23
587.168	60.62
587.363	60.61
587.557	60.52
587.751	59.51
587.945	59.03
588.139	58.2
588.333	58.15
588.527	57.95
588.721	57.7
588.915	57.58
589.109	56.75
589.303	57.31
589.497	57.6
589.691	57.73
589.885	58.38
590.079	58.7
590.273	59.12
590.466	59.61
590.66	60.04
590.854	60.79
591.048	61.09
591.242	61.15
591.436	60.72
591.629	61.39
591.823	61.54
592.017	61.51
592.211	61.29
592.404	61.03
592.598	60.8
592.792	60.65
592.986	59.68
593.179	59.37
593.373	59.22
593.567	59.86
593.76	59.42
593.954	59
594.147	59.33
594.341	59.37
594.535	59.9
594.728	59.29
594.922	58.84
595.115	58.87
595.309	59.04
595.502	59.46
595.696	58.59
595.889	58.15
596.083	58.83
596.276	58.37
596.47	57.77
596.663	57.71
596.856	57.82
597.05	57.95
597.243	58.96
597.437	59.44
597.63	59.67
597.823	60.86
598.017	61.72
598.21	62.05
598.403	62.53
598.596	63.94
598.79	64.67
598.983	65.66
599.176	66.23
599.369	65.76
599.563	66.1
599.756	66.2
599.949	65.89
600.142	65.46
600.335	64.96
600.528	64.47
600.722	64.41
600.915	63.6
601.108	63.47
601.301	63.51
601.494	63.51
601.687	62.72
601.88	62.19
602.073	62.18
602.266	62.01
602.459	61.94
602.652	62.11
602.845	61.38
603.038	61.25
603.231	60.61
603.424	60.43
603.617	60.38
603.809	60.98
604.002	60.66
604.195	61.08
604.388	61.17
604.581	61.33
604.774	61.77
604.966	61.97
605.159	61.83
605.352	62.45
605.545	63.26
605.737	63.98
605.93	64
606.123	65.14
606.316	64.92
606.508	65.25
606.701	65.38
606.894	64.85
607.086	64.79
607.279	65.6
607.471	65.48
607.664	64.5
607.857	63.9
608.049	63.25
608.242	62.75
608.434	62.21
608.627	62.26
608.819	62.33
609.012	62.72
609.204	62.78
609.397	62.67
609.589	62.96
609.782	63.34
609.974	63.65
610.166	64.58
610.359	64.99
610.551	65.78
610.743	66.22
610.936	66.93
611.128	67.24
611.32	68.36
611.513	69.48
611.705	70.07
611.897	71.01
612.09	71.12
612.282	71.53
612.474	71.25
612.666	72.45
612.858	72.69
613.051	72.23
613.243	72.04
613.435	72.43
613.627	72.05
613.819	72.34
614.011	72.13
614.203	72.11
614.395	71.94
614.588	71.96
614.78	70.64
614.972	70.94
615.164	70.96
615.356	71.58
615.548	71
615.74	71.34
615.932	70.4
616.124	70.79
616.315	71.33
616.507	71.26
616.699	72.15
616.891	72.01
617.083	71.86
617.275	71.93
617.467	72.05
617.659	72.29
617.85	71.98
618.042	72.36
618.234	72.59
618.426	73.03
618.618	73.66
618.809	73.15
619.001	73.35
619.193	73.23
619.384	73.32
619.576	73.96
619.768	73.41
619.959	74
620.151	74.68
620.343	75.12
620.534	74.65
620.726	74.3
620.917	75.07
621.109	75.86
621.301	76.25
621.492	76.23
621.684	75.92
621.875	76.83
622.067	76.21
622.258	76.61
622.45	75.64
622.641	75.86
622.832	76.2
623.024	75.97
623.215	76.06
623.407	75.85
623.598	76.52
623.789	76.06
623.981	76.37
624.172	76.57
624.363	75.01
624.555	74.68
624.746	73.34
624.937	72.56
625.129	72.35
625.32	71.87
625.511	71.86
625.702	70.72
625.893	70.82
626.085	70.25
626.276	70.41
626.467	71.41
626.658	71.58
626.849	72.36
627.04	72.9
627.231	73.26
627.422	73.53
627.614	73.9
627.805	75.16
627.996	75.32
628.187	75.42
628.378	75.62
628.569	75.89
628.76	76.23
628.951	76.77
629.142	76.18
629.332	76.54
629.523	76.93
629.714	76.43
629.905	76.57
630.096	76.11
630.287	76.75
630.478	77.18
630.669	77.1
630.859	77.84
631.05	77.66
631.241	77.58
631.432	77.34
631.623	77.08
631.813	77.46
632.004	76.91
632.195	77.18
632.385	76.94
632.576	76.32
632.767	75.55
632.957	74.43
633.148	73.88
633.339	74.96
633.529	75
633.72	75.24
633.91	75.61
634.101	75.95
634.292	76.04
634.482	76.11
634.673	75.79
634.863	76.57
635.054	76.92
635.244	78.31
635.435	77.94
635.625	78.37
635.815	78.12
636.006	77.46
636.196	78.19
636.387	79.3
636.577	79.82
636.767	80.4
636.958	80.99
637.148	82.06
637.338	82.19
637.529	82.92
637.719	83.3
637.909	83.1
638.099	84.16
638.29	83.78
638.48	83.97
638.67	84.54
638.86	85.12
639.05	84.98
639.241	84.43
639.431	84.66
639.621	84.6
639.811	84.34
640.001	86.01
640.191	86.32
640.381	86.9
640.571	87.11
640.761	86.92
640.951	87.45
641.141	87.92
641.331	88.5
641.521	87.94
641.711	88.11
641.901	88.83
642.091	89.05
642.281	90.06
642.471	89.4
642.661	88.76
642.851	88.46
643.041	87.59
643.231	87.51
643.42	87.98
643.61	88.82
643.8	88.51
643.99	87.69
644.18	87.84
644.369	86.04
644.559	85.76
644.749	86.12
644.939	86.05
645.128	86.17
645.318	86.57
645.508	86
645.697	85.76
645.887	86.73
646.076	86.44
646.266	85.94
646.456	86.05
646.645	86.5
646.835	85.4
647.024	86.03
647.214	87.39
647.403	86.12
647.593	86.87
647.782	85.92
647.972	85.42
648.161	85.28
648.351	84.55
648.54	85.69
648.73	85.03
648.919	85.84
649.108	85.02
649.298	83.77
649.487	83.54
649.677	83.04
649.866	83.95
650.055	83.65
650.244	84.33
650.434	85.26
650.623	86.71
650.812	89.38
651.002	89.99
651.191	90.55
651.38	91.63
651.569	93.69
651.758	92.96
651.947	93.59
652.137	94.11
652.326	94.83
652.515	94.84
652.704	92.5
652.893	90.87
653.082	91.39
653.271	91.56
653.46	90.27
653.649	89.42
653.838	89.99
654.027	89.83
654.216	90.36
654.405	91.4
654.594	91.27
654.783	90.64
654.972	90.14
655.161	88.78
655.35	89.01
655.539	89.97
655.728	89.6
655.916	91.01
656.105	89.65
656.294	88.4
656.483	87.24
656.672	87.01
656.86	87.07
657.049	86.79
657.238	87.34
657.427	87.03
657.615	85.91
657.804	84.72
657.993	82.94
658.181	82.53
658.37	82.44
658.559	81.73
658.747	81.7
658.936	81.87
659.125	81.99
659.313	82.26
659.502	82.09
659.69	83
659.879	84.36
660.067	85.48
660.256	87.32
660.444	87.49
660.633	88.29
660.821	89.14
661.01	90.07
661.198	90.95
661.387	90.92
661.575	91.88
661.763	91.97
661.952	91.24
662.14	92.25
662.328	92.29
662.517	93.71
662.705	94.32
662.893	94.16
663.082	94.27
663.27	95.58
663.458	95.64
663.646	95.44
663.834	95.78
664.023	98.37
664.211	97.2
664.399	97.7
664.587	98.48
664.775	98.94
664.963	99.57
665.152	99.24
665.34	97.02
665.528	98.95
665.716	98.65
665.904	98.19
666.092	96.61
666.28	97.22
666.468	97.21
666.656	96.06
666.844	95.06
667.032	94.44
667.22	95.87
667.408	97.88
667.596	95.57
667.784	95.52
667.971	95.95
668.159	96.87
668.347	96.89
668.535	97.73
668.723	97.87
668.911	99.48
669.098	99.62
669.286	98.9
669.474	98.92
669.662	100.34
669.849	101.06
670.037	101.34
670.225	101.05
670.413	100.79
670.6	99.93
670.788	99.73
670.976	98.43
671.163	99.29
671.351	99.46
671.538	98.61
671.726	97.86
671.913	96.88
672.101	96.41
672.289	96.83
672.476	97.17
672.664	96.04
672.851	97.45
673.039	99.44
673.226	100.03
673.413	100.42
673.601	99.47
673.788	99.78
673.976	100.93
674.163	102.34
674.35	101.46
674.538	101.9
674.725	102.54
674.912	101.11
675.1	99.13
675.287	99.28
675.474	98.09
675.662	100.14
675.849	100.73
676.036	100.84
676.223	100.67
676.411	100.18
676.598	99.93
676.785	99.9
676.972	100.77
677.159	101.07
677.346	100.53
677.533	100.07
677.721	98.12
677.908	96.51
678.095	95.28
678.282	93.3
678.469	93.02
678.656	91.87
678.843	91.47
679.03	89.91
679.217	88.8
679.404	88.03
679.591	88.56
679.778	89.22
679.964	89.59
680.151	90.3
680.338	91.47
680.525	91.94
680.712	92.93
680.899	93.35
681.086	93.98
681.272	94.86
681.459	94.6
681.646	94.6
681.833	95.04
682.02	95.72
682.206	95.76
682.393	95.19
682.58	95.54
682.766	96.14
682.953	97.17
683.14	98.21
683.326	98.06
683.513	98.69
683.7	98.66
683.886	97.14
684.073	96.28
684.259	96
684.446	96.76
684.632	96.02
684.819	95.72
685.005	93.41
685.192	92.85
685.378	92.26
685.565	91.9
685.751	92.25
685.938	92.69
686.124	93.57
686.31	93.03
686.497	91.67
686.683	92.58
686.87	90.84
687.056	91.65
687.242	90.9
687.429	91.35
687.615	91.35
687.801	91.01
687.987	90.49
688.174	89.93
688.36	90.63
688.546	91.82
688.732	91.19
688.918	93.71
689.105	93.69
689.291	94.64
689.477	95.29
689.663	95.82
689.849	96.07
690.035	96.9
690.221	97.18
690.407	96.26
690.593	96
690.779	96.03
690.965	95.95
691.151	95.66
691.337	96.52
691.523	96.14
691.709	96.44
691.895	97.01
692.081	96.44
692.267	96.41
692.453	97.27
692.639	97.23
692.825	98.18
693.011	96.97
693.196	97.65
693.382	96.81
693.568	96.88
693.754	97.38
693.94	95.51
694.125	96.31
694.311	97.17
694.497	98.47
694.682	100.82
694.868	101.11
695.054	101.62
695.239	101
695.425	101.39
695.611	101.95
695.796	99.15
695.982	100.19
696.168	99.3
696.353	97.12
696.539	95.33
696.724	92.67
696.91	91.38
697.095	90.09
697.281	88.84
697.466	87.77
697.652	86.68
697.837	86.63
698.023	86.32
698.208	86.99
698.393	87.45
698.579	86.63
698.764	86.97
698.949	86.46
699.135	86.49
699.32	88.1
699.505	89.16
699.691	90.03
699.876	91.92
700.061	92.85
700.246	92.74
700.432	93.01
700.617	95.11
700.802	95.02
700.987	97.63
701.172	102.82
701.358	104.06
701.543	103.2
701.728	106.14
701.913	104.69
702.098	104.55
702.283	105.5
702.468	106.86
702.653	108.31
702.838	108.87
703.023	109.26
703.208	106.03
703.393	105.5
703.578	107.22
703.763	105.37
703.948	107.77
704.133	108.66
704.318	108.44
704.503	108.11
704.688	107.81
704.873	110.79
705.057	110.65
705.242	111.32
705.427	111.81
705.612	110.12
705.797	110.61
705.981	109.98
706.166	110.38
706.351	109.27
706.536	110.81
706.72	109.87
706.905	108.1
707.09	106.91
707.274	106.15
707.459	105.5
707.644	107.22
707.828	107.05
708.013	106.89
708.197	105.23
708.382	106.69
708.567	106.4
708.751	106.05
708.936	106.29
709.12	107.88
709.305	107.4
709.489	106.77
709.673	105.29
709.858	104.49
710.042	104.38
710.227	106.37
710.411	106.33
710.596	105.23
710.78	106.34
710.964	107.64
711.149	107.03
711.333	108.46
711.517	109.46
711.702	110.35
711.886	110.57
712.07	110.49
712.254	110.29
712.438	109.91
712.623	109.11
712.807	109.13
712.991	105.57
713.175	105.06
713.359	103.86
713.544	103.51
713.728	105
713.912	104.72
714.096	105.4
714.28	103.54
714.464	101.95
714.648	101.84
714.832	100.38
715.016	102.17
715.2	102.03
715.384	101.46
715.568	100.29
715.752	96.18
715.936	94.7
716.12	92.9
716.304	92.82
716.488	93.32
716.671	92
716.855	90.84
717.039	90.06
717.223	89.84
717.407	90.07
717.59	90.59
717.774	92.52
717.958	94.87
718.142	94.71
718.325	95.52
718.509	95.96
718.693	99.17
718.877	100.65
719.06	100.66
719.244	101.68
719.428	100.84
719.611	102.74
719.795	105.63
719.978	105.1
720.162	107.24
720.345	107.61
720.529	109
720.713	107.82
720.896	108.07
721.08	107.84
721.263	109.33
721.446	107.18
721.63	105.42
721.813	104
721.997	103.15
722.18	102.04
722.364	102.46
722.547	102.24
722.73	102.93
722.914	104.28
723.097	105.63
723.28	103.9
723.464	105
723.647	105.61
723.83	104.57
724.013	106.05
724.197	105.5
724.38	104.06
724.563	104.61
724.746	102.78
724.929	101.73
725.112	100.88
725.296	99.99
725.479	102.18
725.662	99.99
725.845	100.77
726.028	99.93
726.211	99.42
726.394	100.2
726.577	99.63
726.76	99.42
726.943	99.63
727.126	100.95
727.309	100.56
727.492	99.93
727.675	102.74
727.858	101.45
728.041	102.84
728.224	104.22
728.407	103.8
728.589	103.01
728.772	104.28
728.955	104.11
729.138	102.41
729.321	103.7
729.503	103.55
729.686	101.16
729.869	101.17
730.052	99.54
730.234	98.56
730.417	99.16
730.6	99.71
730.782	100.73
730.965	102.45
731.148	102.92
731.33	104.45
731.513	104.93
731.695	108.14
731.878	109.85
732.061	110.29
732.243	109.76
732.426	110.77
732.608	110.22
732.791	110.19
732.973	109.68
733.156	109.48
733.338	108.44
733.52	108.47
733.703	106.12
733.885	106.5
734.068	107.41
734.25	110.47
734.432	109.7
734.615	113.36
734.797	112.29
734.979	113.21
735.162	113.81
735.344	114.83
735.526	116.64
735.708	116.46
735.891	116.82
736.073	118.66
736.255	117.84
736.437	117.69
736.619	115.22
736.802	117.28
736.984	117.35
737.166	118.02
737.348	117.12
737.53	116.14
737.712	118.12
737.894	117.04
738.076	115.76
738.258	116.57
738.44	117.15
738.622	118.16
738.804	116.14
738.986	115.01
739.168	114.22
739.35	116.08
739.532	116.46
739.714	115.49
739.896	114.95
740.078	115.59
740.259	117.69
740.441	117.23
740.623	117.3
740.805	120.32
740.987	120.47
741.168	124.63
741.35	123.69
741.532	124.07
741.714	126.53
741.895	127.94
742.077	128.86
742.259	125.57
742.44	128.29
742.622	128.35
742.804	128.58
742.985	130.14
743.167	130.67
743.348	131.35
743.53	130.96
743.711	131.72
743.893	133.07
744.075	131.24
744.256	133.2
744.438	135.46
744.619	133.1
744.8	132.61
744.982	131.41
745.163	128.92
745.345	127.6
745.526	127.88
745.707	126.64
745.889	124.92
746.07	125.4
746.252	125.19
746.433	124.23
746.614	125.91
746.795	125.35
746.977	125.25
747.158	126.35
747.339	127.18
747.52	123.95
747.702	124.04
747.883	124.73
748.064	124.35
748.245	126.98
748.426	125.78
748.607	127.55
748.788	123.77
748.97	126.24
749.151	123.52
749.332	122.71
749.513	124.14
749.694	125.19
749.875	127.24
750.056	128.23
750.237	126.36
750.418	123.04
750.599	121.13
750.78	123.06
750.96	121.97
751.141	122.59
751.322	124.09
751.503	126.51
751.684	126.97
751.865	125.88
752.046	125.56
752.226	123.84
752.407	125.01
752.588	126.06
752.769	127.64
752.949	128.39
753.13	129.4
753.311	128.75
753.492	129.72
753.672	127.18
753.853	124.53
754.034	125.09
754.214	121.43
754.395	124.83
754.575	124.63
754.756	125.56
754.937	126.13
755.117	125.97
755.298	123.82
755.478	122.41
755.659	123.31
755.839	124.69
756.02	122.14
756.2	123.8
756.381	122.24
756.561	121.25
756.741	120.43
756.922	118.15
757.102	115.86
757.283	115.86
757.463	111.36
757.643	108.78
757.823	107.35
758.004	104.62
758.184	103.98
758.364	99.63
758.545	96.59
758.725	92.87
758.905	89.62
759.085	88.84
759.265	87
759.446	88.23
759.626	87.04
759.806	86.13
759.986	87.97
760.166	87.95
760.346	87.8
760.526	89.39
760.706	90.3
760.886	90.98
761.066	91.05
761.246	90.45
761.426	88.19
761.606	88.98
761.786	87.9
761.966	86
762.146	84.72
762.326	85.28
762.506	84.62
762.686	83.29
762.866	83.31
763.046	82.65
763.225	82.69
763.405	84.97
763.585	85.11
763.765	86.41
763.945	89.27
764.124	93.08
764.304	94.25
764.484	95.23
764.664	97.42
764.843	99.31
765.023	100.72
765.203	104.09
765.382	105.42
765.562	108.31
765.741	109.33
765.921	109.38
766.101	107.48
766.28	109.67
766.46	112.23
766.639	115.28
766.819	115.34
766.998	119.02
767.178	120.62
767.357	123.01
767.537	120.85
767.716	125.13
767.896	127.47
768.075	132.25
768.254	131.55
768.434	130.4
768.613	128.72
768.792	132.16
768.972	129.49
769.151	130.06
769.33	129.81
769.51	131.05
769.689	129.27
769.868	130.1
770.047	129.63
770.226	127.95
770.406	130.07
770.585	126.92
770.764	124.68
770.943	126.2
771.122	126.94
771.301	128.2
771.48	128.66
771.66	130.31
771.839	127.9
772.018	123.48
772.197	126.7
772.376	127.82
772.555	132.08
772.734	134.69
772.913	135.76
773.092	135.3
773.271	136.52
773.449	136.78
773.628	134.04
773.807	136.08
773.986	140.39
774.165	139.26
774.344	139.68
774.523	142.12
774.701	140.21
774.88	139.07
775.059	141.05
775.238	136.51
775.417	136.15
775.595	136.55
775.774	135.02
775.953	133.61
776.131	132.95
776.31	132.78
776.489	129.78
776.667	132.2
776.846	132.92
777.025	130.75
777.203	131.2
777.382	136.7
777.56	137.52
777.739	134.69
777.917	133.01
778.096	135.94
778.274	135.28
778.453	138.81
778.631	137.01
778.81	138.32
778.988	136.01
779.166	136.95
779.345	131.61
779.523	126.64
779.702	131.29
779.88	135.86
780.058	136.34
780.237	133.53
780.415	132.28
780.593	131.86
780.771	127.08
780.95	127.29
781.128	125.55
781.306	125.89
781.484	133.84
781.662	131.44
781.841	129.86
782.019	129.29
782.197	130.17
782.375	129.49
782.553	127.48
782.731	130.24
782.909	133.52
783.087	134.67
783.265	134.87
783.443	129.27
783.621	128.77
783.799	128.66
783.977	129.05
784.155	128.65
784.333	126.4
784.511	125.17
784.689	128.68
784.867	123.58
785.045	120.72
785.223	121.11
785.4	122.52
785.578	123.51
785.756	124.65
785.934	120.4
786.112	121.11
786.289	123.1
786.467	124.74
786.645	120.75
786.823	124.85
787	128.24
787.178	125.78
787.356	125.37
787.533	123.99
787.711	120.45
787.889	123.73
788.066	121.71
788.244	118.43
788.421	119.94
788.599	120.25
788.776	118.75
788.954	117.05
789.131	118.02
789.309	114.34
789.486	117.88
789.664	117.6
789.841	115.98
790.019	114.82
790.196	118.37
790.373	118.13
790.551	114.72
790.728	113.78
790.906	113.67
791.083	111.69
791.26	113.8
791.437	113.56
791.615	116.39
791.792	117.39
791.969	117.97
792.146	119.55
792.324	118.08
792.501	123.37
792.678	122.32
792.855	123.08
793.032	125.09
793.209	126.55
793.387	124.54
793.564	124.28
793.741	126.87
793.918	128.48
794.095	125.41
794.272	125.62
794.449	127.71
794.626	130.18
794.803	128.96
794.98	126.89
795.157	123.23
795.334	119.73
795.511	118.73
795.688	114.33
795.864	116.53
796.041	115.42
796.218	115.74
796.395	113.23
796.572	114.5
796.749	117.05
796.925	121.16
797.102	121.71
797.279	121.24
797.456	118.79
797.632	122.29
797.809	120.67
797.986	122.48
798.162	119.95
798.339	117.8
798.516	114.94
798.692	112.31
798.869	110.49
799.046	112.63
799.222	113.87
799.399	113.51
799.575	112.38
799.752	111.86
799.928	110.23
800.105	110.73
800.281	111.55
800.458	113.44
800.634	116.26
800.811	114.76
800.987	114.56
801.163	118.8
801.34	121.74
801.516	118.61
801.692	115.96
801.869	116.5
802.045	118.38
802.221	118.57
802.398	115.58
802.574	115.57
802.75	118.32
802.926	119.23
803.103	113.26
803.279	112.37
803.455	114.02
803.631	114.99
803.807	115.29
803.983	111.6
804.16	111.86
804.336	113.73
804.512	111.35
804.688	107.37
804.864	104.9
805.04	106.62
805.216	106.59
805.392	107.45
805.568	107.95
805.744	107.3
805.92	112.69
806.096	115.06
806.272	117.89
806.448	120.25
806.623	124.91
806.799	127.46
806.975	126.87
807.151	124.46
807.327	119.96
807.503	121.63
807.678	122.77
807.854	121.24
808.03	118.74
808.206	114.59
808.381	110.57
808.557	108.3
808.733	108.21
808.908	104.9
809.084	107.31
809.26	106.25
809.435	102.62
809.611	100.43
809.787	100.55
809.962	99.58
810.138	98.47
810.313	99.24
810.489	100.02
810.664	97.53
810.84	101.67
811.015	97.09
811.191	99.29
811.366	100.84
811.542	102.69
811.717	104.33
811.892	106.68
812.068	107.86
812.243	108.77
812.419	109.89
812.594	116.54
812.769	114.73
812.944	119.64
813.12	119.48
813.295	118.06
813.47	117.94
813.645	111.53
813.821	109.52
813.996	104.76
814.171	106.61
814.346	103.95
814.521	101.4
814.697	102.94
814.872	105.77
815.047	104.41
815.222	105.93
815.397	106.55
815.572	109.56
815.747	109.99
815.922	115.35
816.097	114.37
816.272	114.26
816.447	111.53
816.622	109.99
816.797	106.16
816.972	107.77
817.147	106.62
817.322	105.26
817.496	104.06
817.671	102.26
817.846	101.75
818.021	100.31
818.196	100.47
818.371	100.55
818.545	100.55
818.72	95.8
818.895	92.36
819.069	91.8
819.244	91.55
819.419	87.54
819.594	85.2
819.768	82.93
819.943	79.67
820.117	77.13
820.292	74.93
820.467	73.23
820.641	71.99
820.816	70.8
820.99	68.31
821.165	64.89
821.339	64.23
821.514	63.59
821.688	61.94
821.863	61.25
822.037	61.26
822.212	60.26
822.386	59.56
822.56	60.1
822.735	60.19
822.909	60.7
823.084	60.98
823.258	61.13
823.432	60.86
823.606	61.54
823.781	63.4
823.955	64.11
824.129	65.99
824.303	67.86
824.478	67.23
824.652	68.15
824.826	68.48
825	70.76
825.174	73
825.348	74.3
825.523	74
825.697	74.75
825.871	73.12
826.045	74.19
826.219	72.59
826.393	73.86
826.567	72.81
826.741	73.26
826.915	73.61
827.089	73.54
827.263	74.25
827.437	75.59
827.611	75.41
827.784	77.96
827.958	75.95
828.132	76.41
828.306	78.08
828.48	79.92
828.654	82.34
828.827	82.27
829.001	82.12
829.175	84.4
829.349	88.54
829.522	90.04
829.696	91.47
829.87	94.89
830.044	96.93
830.217	98.6
830.391	100.98
830.565	101.19
830.738	101.14
830.912	104.93
831.085	104.05
831.259	100.38
831.432	98.76
831.606	95.34
831.779	94.78
831.953	94.95
832.126	93.28
832.3	91.51
832.473	90.78
832.647	90.19
832.82	86.74
832.994	84.83
833.167	83.39
833.34	82.53
833.514	81.02
833.687	78.17
833.86	77.14
834.034	76.66
834.207	77.8
834.38	77.49
834.553	77.4
834.727	79.72
834.9	82.22
835.073	81.69
835.246	81.78
835.419	84.97
835.593	86.76
835.766	86.91
835.939	89.55
836.112	91.3
836.285	93.34
836.458	94.17
836.631	95.67
836.804	96.33
836.977	99.59
837.15	105.75
837.323	107.17
837.496	110.25
837.669	109.66
837.842	112.89
838.015	108.12
838.188	106.4
838.361	107.44
838.533	106.4
838.706	105.5
838.879	107.32
839.052	102.59
839.225	99.29
839.398	98.61
839.57	103.45
839.743	98.93
839.916	102.8
840.088	102.42
840.261	103.11
840.434	100.77
840.607	100.92
840.779	99.46
840.952	102.17
841.124	103.1
841.297	102.39
841.47	102.73
841.642	102.85
841.815	104.54
841.987	105.27
842.16	104.33
842.332	106.64
842.505	108.36
842.677	114.17
842.85	109.49
843.022	114.36
843.194	116.57
843.367	117.66
843.539	118.02
843.712	112.51
843.884	112.46
844.056	115.02
844.229	116.65
844.401	115.02
844.573	107.54
844.745	108.96
844.918	108.82
845.09	104.21
845.262	100.4
845.434	104.1
845.606	110.67
845.779	108.96
845.951	108.53
846.123	106.42
846.295	109.33
846.467	112.43
846.639	112.64
846.811	106.35
846.983	113.33
847.155	113.79
847.327	111.59
847.499	106.65
847.671	110.48
847.843	112.92
848.015	109.85
848.187	110.06
848.359	116.15
848.531	115.66
848.703	121.4
848.875	118.93
849.047	118.22
849.218	118.46
849.39	117.58
849.562	111.6
849.734	112.16
849.905	114.6
850.077	113.98
850.249	106.64
850.421	103.45
850.592	104.98
850.764	105.14
850.936	107.76
851.107	103.82
851.279	106.15
851.451	112.23
851.622	108.08
851.794	108.63
851.965	113.08
852.137	116.37
852.308	127.64
852.48	126.81
852.651	128.35
852.823	127.44
852.994	128.58
853.166	130.35
853.337	130.52
853.509	129.65
853.68	127.71
853.851	123.66
854.023	125.76
854.194	121.53
854.365	120.66
854.537	114.82
854.708	114.31
854.879	114.9
855.05	114
855.222	110.07
855.393	112.9
855.564	117.78
855.735	112.69
855.906	108.84
856.078	106.01
856.249	105.97
856.42	111.58
856.591	116.56
856.762	120.45
856.933	124.23
857.104	128.1
857.275	125.85
857.446	121.76
857.617	124.99
857.788	128.15
857.959	134.33
858.13	134.71
858.301	131.44
858.472	123.97
858.643	114.61
858.814	112.23
858.985	112.53
859.155	117.31
859.326	120.09
859.497	117.99
859.668	115.73
859.839	111.87
860.009	111.17
860.18	111.25
860.351	111.84
860.522	119.15
860.692	122.4
860.863	119.07
861.034	115.43
861.204	113.07
861.375	113.36
861.546	115.91
861.716	117.05
861.887	120.54
862.057	122.58
862.228	120.94
862.398	118.21
862.569	111.6
862.739	111.08
862.91	107.24
863.08	107.22
863.251	108.33
863.421	105.1
863.592	103.6
863.762	100.96
863.932	95.88
864.103	94.9
864.273	98.12
864.443	99.55
864.614	100.98
864.784	102.83
864.954	104.35
865.125	104.88
865.295	109.46
865.465	112.57
865.635	110.15
865.805	114.86
865.976	113.66
866.146	108.18
866.316	105.3
866.486	108.27
866.656	108.64
866.826	104.38
866.996	100.69
867.166	96.72
867.336	99.27
867.506	99.54
867.676	97.99
867.846	99.65
868.016	104.68
868.186	105.65
868.356	104.16
868.526	103.79
868.696	105.91
868.866	107.45
869.036	109.2
869.206	100.82
869.376	100.58
869.545	98.19
869.715	96.73
869.885	95.47
870.055	96.03
870.224	98.02
870.394	97.27
870.564	97.11
870.734	96.9
870.903	97.83
871.073	101.75
871.243	100.55
871.412	106.21
871.582	108.58
871.751	106.18
871.921	108.35
872.091	104.98
872.26	104.39
872.43	103.44
872.599	108.22
872.769	109.26
872.938	107.18
873.108	107.48
873.277	103.7
873.446	100.46
873.616	102.13
873.785	100.38
873.955	101.22
874.124	104.83
874.293	105.43
874.463	107.95
874.632	107.07
874.801	107.12
874.971	108.81
875.14	115.57
875.309	117.97
875.478	117.8
875.647	114.74
875.817	116.89
875.986	115.61
876.155	121.9
876.324	111.15
876.493	108.24
876.662	109.12
876.831	107.57
877	101.4
877.17	102.78
877.339	99.71
877.508	99.41
877.677	96.06
877.846	96.15
878.015	90.79
878.184	96.26
878.352	99.02
878.521	97.13
878.69	99.85
878.859	98.15
879.028	98.77
879.197	101.25
879.366	100.47
879.534	97.21
879.703	91.72
879.872	88.81
880.041	86.46
880.21	82.41
880.378	80.66
880.547	76.42
880.716	75.04
880.884	73.65
881.053	70.78
881.222	71.52
881.39	73.36
881.559	72.8
881.727	71.73
881.896	69.84
882.065	71.89
882.233	70.3
882.402	71.68
882.57	72.81
882.739	73.33
882.907	74.52
883.076	75.38
883.244	74.92
883.412	76.86
883.581	77.87
883.749	78.43
883.918	76.86
884.086	78.67
884.254	77.67
884.423	79.28
884.591	76.58
884.759	77.82
884.927	76.74
885.096	77.3
885.264	81.94
885.432	84.78
885.6	88.27
885.769	89.07
885.937	88.75
886.105	88.75
886.273	86.69
886.441	87.96
886.609	87.47
886.777	88.45
886.945	88.53
887.113	88.1
887.281	82.53
887.449	83.99
887.617	86.27
887.785	91.31
887.953	94.86
888.121	98.31
888.289	104.12
888.457	106.79
888.625	106.83
888.793	113.85
888.961	108.44
889.129	117.01
889.296	109.25
889.464	110.23
889.632	109.59
889.8	110.65
889.967	109.27
890.135	105.95
