Data from JASIL_3242_Reflection_2.txt Node
Date: Mon Nov 16 20:31:12 EST 2015
User: Geneva
Spectrometer: USB4E03002
Autoset integration time: false
Trigger mode: 4
Integration Time (sec): 1.000000E-1
Scans to average: 10
Electric dark correction enabled: false
Nonlinearity correction enabled: false
Boxcar width: 5
Stray light correction enabled: false
XAxis mode: Wavelengths
Stop averaging: false
Number of Pixels in Spectrum: 3648
>>>>>Begin Spectral Data<<<<<
177.575	-64.1
177.794	-113.57
178.014	-185.54
178.233	-404.67
178.452	-633.73
178.672	-508.33
178.891	-734.91
179.11	2124.32
179.33	724.11
179.549	-3795.45
179.768	710.17
179.987	809.68
180.207	505.81
180.426	297.21
180.645	316.96
180.864	556.49
181.084	235.48
181.303	238.43
181.522	552.27
181.741	1800
181.96	410.54
182.179	528.25
182.398	598.67
182.618	556.36
182.837	511.34
183.056	379.76
183.275	236.43
183.494	220.7
183.713	236.54
183.932	154.41
184.151	142.23
184.37	134.64
184.589	133.9
184.808	125.9
185.027	143.15
185.246	173.52
185.465	302.69
185.684	367.19
185.903	1498.85
186.122	518.39
186.341	784.27
186.56	413.16
186.779	695.34
186.998	860
187.216	942.52
187.435	734.73
187.654	673.51
187.873	296.44
188.092	216.55
188.311	229.79
188.53	328.18
188.748	306.83
188.967	645.6
189.186	396.55
189.405	458.87
189.623	433.8
189.842	373.25
190.061	387.08
190.28	1096.15
190.498	-1006.25
190.717	619.84
190.936	-1466.1
191.154	-572.32
191.373	-15200
191.592	-8563.64
191.81	-524.14
192.029	-803.82
192.248	-213.9
192.466	-211.35
192.685	-258.12
192.904	-371.43
193.122	-273.87
193.341	-564.86
193.559	-537.56
193.778	-635.76
193.996	-783.21
194.215	28675
194.433	-2602.38
194.652	619.21
194.87	534.63
195.089	466.81
195.307	590.53
195.526	1625.42
195.744	881.58
195.963	598.35
196.181	11162.5
196.399	-697.44
196.618	4055
196.836	12050
197.055	-624.59
197.273	-1406.9
197.491	-812.22
197.71	-1239.22
197.928	946.25
198.146	1707.14
198.365	-6560
198.583	389.61
198.801	538.01
199.019	1318.18
199.238	-2321.43
199.456	980.19
199.674	432.63
199.892	366.47
200.111	475
200.329	471.32
200.547	380.85
200.765	365.71
200.983	378.01
201.202	282.62
201.42	362.2
201.638	238.92
201.856	247.16
202.074	651.24
202.292	777.78
202.51	502.72
202.728	752.58
202.946	-1637.5
203.165	2463.64
203.383	-708.25
203.601	-860.47
203.819	1954
204.037	10200
204.255	1060.82
204.473	499.07
204.691	686
204.909	519.18
205.127	559.07
205.345	642.05
205.562	460.4
205.78	321.14
205.998	382.04
206.216	289.29
206.434	245.95
206.652	270.91
206.87	199.57
207.088	159.72
207.306	196.98
207.523	184.06
207.741	141.46
207.959	167.97
208.177	211.09
208.395	177.76
208.612	193.57
208.83	201.85
209.048	209.49
209.266	270.86
209.483	287.06
209.701	228.25
209.919	258.25
210.136	303.21
210.354	683
210.572	615.38
210.79	911.11
211.007	623.58
211.225	896.9
211.442	-4371.43
211.66	-1279.17
211.878	-538.19
212.095	260.87
212.313	272
212.53	358.77
212.748	207.38
212.966	173.1
213.183	167.27
213.401	150.48
213.618	155.71
213.836	201.65
214.053	202.69
214.271	186.05
214.488	690.76
214.705	337.61
214.923	258.71
215.14	272.24
215.358	265.54
215.575	385.85
215.793	470.32
216.01	662.58
216.227	210.43
216.445	160.49
216.662	212.17
216.879	215.96
217.097	206.34
217.314	218.01
217.531	268.78
217.749	292.56
217.966	358
218.183	253.72
218.4	287.95
218.618	362.6
218.835	412.81
219.052	284.57
219.269	242.57
219.487	325.35
219.704	248.03
219.921	192.82
220.138	140.55
220.355	135.04
220.572	135.14
220.79	126.21
221.007	186.4
221.224	222.8
221.441	216.81
221.658	257.72
221.875	210.9
222.092	225.51
222.309	288.41
222.526	296.37
222.743	275.85
222.96	388.21
223.177	193.63
223.394	186.42
223.611	131.91
223.828	140.27
224.045	152.58
224.262	157.32
224.479	103.04
224.696	68.04
224.913	107.72
225.13	78.75
225.347	80.46
225.564	79.32
225.781	58.56
225.997	56.12
226.214	46.37
226.431	44.48
226.648	39.81
226.865	36.45
227.082	37.96
227.298	29.14
227.515	28.76
227.732	24.26
227.949	21.28
228.165	19.91
228.382	16.13
228.599	14
228.816	7.77
229.032	11.18
229.249	10.3
229.466	14.03
229.682	12.58
229.899	10.54
230.116	11.96
230.332	13.14
230.549	17.51
230.765	19.46
230.982	20.89
231.199	25.37
231.415	21.05
231.632	22.79
231.848	26.36
232.065	29.52
232.281	25.52
232.498	31.1
232.714	36.79
232.931	34.09
233.147	41.46
233.364	46.43
233.58	45.04
233.797	55.64
234.013	53.42
234.23	48.28
234.446	48.81
234.662	52.13
234.879	50.84
235.095	50.63
235.312	55.04
235.528	47.55
235.744	45.55
235.961	47.36
236.177	35.01
236.393	41.71
236.61	39.56
236.826	46.17
237.042	39.63
237.258	34.06
237.475	26.79
237.691	22.43
237.907	29.8
238.123	24.53
238.339	25.61
238.556	31.78
238.772	28.85
238.988	33.04
239.204	30.25
239.42	34.02
239.636	34.84
239.853	32.64
240.069	32.03
240.285	29.86
240.501	32.39
240.717	30.01
240.933	25.53
241.149	23.23
241.365	21.03
241.581	19.4
241.797	18.96
242.013	19.51
242.229	22.01
242.445	20.84
242.661	20.2
242.877	17.05
243.093	16.52
243.309	15.12
243.525	14.31
243.741	15.8
243.957	15.99
244.173	15.93
244.388	13.53
244.604	13.36
244.82	13.08
245.036	13.3
245.252	11.84
245.468	11.94
245.683	13.03
245.899	13.28
246.115	12.87
246.331	12.48
246.547	11.54
246.762	10.27
246.978	10.87
247.194	10.79
247.409	10.08
247.625	11.16
247.841	11.66
248.057	10.62
248.272	10.92
248.488	11.96
248.703	12.52
248.919	14.45
249.135	15.84
249.35	15.07
249.566	17.7
249.782	20.43
249.997	21.71
250.213	20.28
250.428	20.59
250.644	21.64
250.859	18.33
251.075	16.52
251.29	16.2
251.506	17.94
251.721	16.04
251.937	17.1
252.152	16.66
252.368	17.52
252.583	19.41
252.798	20.91
253.014	20.26
253.229	21.74
253.445	23.43
253.66	25.89
253.875	24.22
254.091	31.68
254.306	30.89
254.521	31.34
254.737	28.5
254.952	26.45
255.167	26.04
255.383	27.53
255.598	26.31
255.813	24.75
256.028	22.29
256.244	22.87
256.459	16.46
256.674	14.24
256.889	13.05
257.104	12.87
257.32	13.58
257.535	13.36
257.75	11.19
257.965	10.25
258.18	11.1
258.395	10.68
258.61	9.83
258.826	9.98
259.041	9.85
259.256	9.74
259.471	10.2
259.686	9.45
259.901	9.12
260.116	8.79
260.331	10.64
260.546	10.23
260.761	10.53
260.976	11.13
261.191	11.65
261.406	12.45
261.621	14.53
261.836	16.62
262.05	18.03
262.265	20.78
262.48	22.66
262.695	20.05
262.91	19.52
263.125	19.86
263.34	20.5
263.555	21.72
263.769	23.02
263.984	21.79
264.199	22.09
264.414	20.53
264.629	18.31
264.843	18.69
265.058	18.87
265.273	19.82
265.488	18.86
265.702	18.58
265.917	17.93
266.132	15.88
266.346	17.22
266.561	15.08
266.776	15.72
266.99	15.47
267.205	16.4
267.42	15.88
267.634	16.28
267.849	15.59
268.063	15.74
268.278	16.28
268.492	16.47
268.707	15.37
268.922	14.34
269.136	14.74
269.351	14.19
269.565	12.83
269.78	12.02
269.994	11.79
270.209	11.66
270.423	9.58
270.637	8.83
270.852	8.6
271.066	7.16
271.281	8.98
271.495	7.26
271.709	7.46
271.924	8.07
272.138	9.31
272.353	8.24
272.567	7.71
272.781	8.35
272.996	7.87
273.21	7.85
273.424	8.48
273.638	8.65
273.853	10.43
274.067	11.33
274.281	11.02
274.495	11.27
274.71	12.85
274.924	12.52
275.138	14.15
275.352	14.5
275.566	16.74
275.781	17.24
275.995	16.01
276.209	15.97
276.423	17.5
276.637	15.57
276.851	16.33
277.065	15.19
277.279	17.76
277.493	16.83
277.707	16.58
277.921	13.55
278.135	13.19
278.349	13.66
278.563	13.62
278.777	9.14
278.991	11.41
279.205	9.89
279.419	9.71
279.633	7.26
279.847	7.35
280.061	7.04
280.275	7.81
280.489	7.56
280.703	5.39
280.917	6.57
281.131	7.77
281.344	7.05
281.558	8.39
281.772	7.66
281.986	9.06
282.2	9.35
282.414	7.92
282.627	8.36
282.841	7.23
283.055	9.36
283.269	7.96
283.482	9.58
283.696	9.76
283.91	8.89
284.123	8.88
284.337	8.66
284.551	8.21
284.764	9.14
284.978	9.08
285.192	10.09
285.405	8.65
285.619	8.27
285.833	7.37
286.046	6.99
286.26	6.66
286.473	6.13
286.687	6.67
286.9	6.67
287.114	7.6
287.327	7.97
287.541	8.34
287.754	8.97
287.968	9.94
288.181	10.27
288.395	9.74
288.608	11.02
288.822	13.44
289.035	13.32
289.248	13.94
289.462	13.56
289.675	13.08
289.889	11.68
290.102	10.84
290.315	11.33
290.529	10.76
290.742	10.29
290.955	9.8
291.169	8.61
291.382	7.78
291.595	9.76
291.808	9.71
292.022	9.27
292.235	10.07
292.448	11.69
292.661	9.95
292.875	11.7
293.088	13.62
293.301	12.23
293.514	12.51
293.727	12.01
293.94	9.25
294.153	9.59
294.367	10.8
294.58	10.29
294.793	10.19
295.006	11
295.219	9.2
295.432	9
295.645	9.28
295.858	9.48
296.071	9.49
296.284	9.2
296.497	9.03
296.71	9.09
296.923	10.06
297.136	9.35
297.349	8.83
297.562	9.73
297.775	9.58
297.988	9.34
298.201	9.87
298.414	9.19
298.626	9.98
298.839	9.42
299.052	7.68
299.265	7.11
299.478	7.7
299.691	8.33
299.903	8.07
300.116	8.65
300.329	9.45
300.542	8.65
300.755	9.84
300.967	9.3
301.18	8.99
301.393	10.14
301.605	10.24
301.818	9.17
302.031	9.28
302.243	9.82
302.456	9.7
302.669	10.34
302.881	10.15
303.094	10.43
303.307	11.35
303.519	12.19
303.732	12.32
303.944	12.17
304.157	14.36
304.37	15.01
304.582	14.7
304.795	14.32
305.007	14.11
305.22	14.32
305.432	15.39
305.645	15.01
305.857	15.53
306.069	15.49
306.282	15.26
306.494	12.69
306.707	11.9
306.919	11.85
307.132	11.22
307.344	11.26
307.556	12.04
307.769	11.85
307.981	11.27
308.193	9.45
308.406	9.27
308.618	9.21
308.83	10.61
309.043	9.72
309.255	10.45
309.467	10.47
309.679	9.94
309.892	9.42
310.104	8.77
310.316	8.12
310.528	9.08
310.74	8.93
310.953	9.64
311.165	9.43
311.377	9.7
311.589	8.68
311.801	8.85
312.013	9.1
312.225	9.51
312.437	9.32
312.649	10.25
312.862	11.1
313.074	9.89
313.286	10.21
313.498	11.67
313.71	11.67
313.922	13.34
314.134	13.43
314.346	13.51
314.558	13.32
314.77	13.56
314.982	13.3
315.193	12.41
315.405	13.68
315.617	12.34
315.829	11.39
316.041	11.52
316.253	9.3
316.465	10.03
316.677	9.5
316.888	10.17
317.1	10.75
317.312	11.57
317.524	11.6
317.736	12.92
317.947	14.58
318.159	14.74
318.371	14.39
318.583	13.71
318.794	13.73
319.006	13.06
319.218	11.1
319.43	10.81
319.641	10.15
319.853	11.32
320.064	10.93
320.276	11.34
320.488	11.19
320.699	11.66
320.911	14.06
321.123	13.84
321.334	16.07
321.546	16.37
321.757	16.77
321.969	18.76
322.18	17.11
322.392	16.05
322.603	15.27
322.815	13.99
323.026	15.31
323.238	14.7
323.449	14.38
323.661	14.11
323.872	15.4
324.083	14.72
324.295	12.75
324.506	13.2
324.718	12.71
324.929	12.2
325.14	13.18
325.352	13.15
325.563	13.98
325.774	14.26
325.986	14.04
326.197	12.71
326.408	15.32
326.62	16.17
326.831	16.27
327.042	17.62
327.253	18.32
327.464	19.32
327.676	18.69
327.887	18.43
328.098	19.18
328.309	20.4
328.52	22.22
328.732	19.93
328.943	20.7
329.154	21.21
329.365	21.62
329.576	21.58
329.787	20.59
329.998	21.95
330.209	21.11
330.42	20.12
330.631	20.51
330.842	20.13
331.053	20.95
331.264	21.64
331.475	20.3
331.686	21.16
331.897	21.47
332.108	21.56
332.319	21.32
332.53	22.18
332.741	22.62
332.952	21.67
333.163	21.06
333.374	20.64
333.585	20.46
333.795	22.23
334.006	20.89
334.217	20.89
334.428	20.37
334.639	20.1
334.849	20.12
335.06	19.73
335.271	20.25
335.482	21.97
335.692	21.75
335.903	21.56
336.114	21.92
336.325	21.34
336.535	21.8
336.746	23.87
336.957	23.78
337.167	23.55
337.378	24.25
337.589	23.44
337.799	22.05
338.01	23.04
338.22	23.39
338.431	22.76
338.642	23.48
338.852	22.61
339.063	20.63
339.273	20.19
339.484	20.35
339.694	20.58
339.905	20.91
340.115	20.11
340.326	19.76
340.536	19.4
340.746	19.17
340.957	18.79
341.167	17.73
341.378	18.9
341.588	18.79
341.799	18.23
342.009	17.23
342.219	17.26
342.43	18.23
342.64	18.02
342.85	17.28
343.061	16.58
343.271	16.92
343.481	17.8
343.691	16.41
343.902	16.89
344.112	17.19
344.322	17.61
344.532	17.5
344.743	18.04
344.953	18.43
345.163	18.05
345.373	19.01
345.583	19.23
345.793	19.23
346.004	20.23
346.214	20.61
346.424	20.64
346.634	19.8
346.844	19.19
347.054	19.89
347.264	20.12
347.474	21.5
347.684	21.29
347.894	21.2
348.104	21.48
348.314	20.88
348.524	20.59
348.734	20.63
348.944	20.44
349.154	20.59
349.364	19.45
349.574	18.4
349.784	17.68
349.994	17.39
350.204	17.72
350.413	17.51
350.623	17.58
350.833	16.99
351.043	16.26
351.253	17.95
351.463	18.08
351.672	17.94
351.882	18.26
352.092	18.5
352.302	18.82
352.511	18.54
352.721	18.31
352.931	18.5
353.141	18.64
353.35	19.3
353.56	18.67
353.77	18.51
353.979	19.23
354.189	19.24
354.399	19.49
354.608	19.93
354.818	20.24
355.027	20.38
355.237	20.22
355.447	20.6
355.656	21.02
355.866	21.04
356.075	20.75
356.285	20.15
356.494	19.84
356.704	18.47
356.913	17.85
357.123	18.31
357.332	17.6
357.542	17.19
357.751	16.94
357.96	17.09
358.17	16.2
358.379	16.22
358.589	15.77
358.798	16.62
359.007	17.4
359.217	15.98
359.426	15.08
359.635	16.23
359.845	16.22
360.054	15.97
360.263	15.22
360.472	15.16
360.682	15.72
360.891	16.03
361.1	15.16
361.309	14.49
361.519	15.01
361.728	15.58
361.937	15.35
362.146	16.15
362.355	16.26
362.564	16.57
362.774	17.09
362.983	16.73
363.192	16.65
363.401	17.48
363.61	18.1
363.819	19.32
364.028	18.12
364.237	18.02
364.446	16.76
364.655	16.64
364.864	15.9
365.073	15.91
365.282	15.58
365.491	15.58
365.7	14.82
365.909	14.97
366.118	13.98
366.327	14.7
366.536	14.83
366.745	15.35
366.954	15.89
367.162	17.4
367.371	17.5
367.58	18.19
367.789	18.58
367.998	18.14
368.207	18.61
368.415	19.24
368.624	19.08
368.833	18.97
369.042	18.68
369.25	18.2
369.459	17.05
369.668	17.01
369.877	16.05
370.085	15.27
370.294	16.35
370.503	15.83
370.711	15.48
370.92	15.31
371.129	16.25
371.337	17.24
371.546	17.05
371.754	17.35
371.963	17.13
372.171	17.87
372.38	18.22
372.589	18.29
372.797	17.9
373.006	17.76
373.214	17.59
373.423	16.44
373.631	15.66
373.84	14.6
374.048	13.55
374.256	14.34
374.465	14.77
374.673	14.06
374.882	12.66
375.09	12.28
375.298	12.52
375.507	12.26
375.715	12.16
375.923	11.08
376.132	11.87
376.34	12.87
376.548	12.61
376.757	12.1
376.965	12.66
377.173	13.19
377.381	13.73
377.59	14.49
377.798	14.59
378.006	14.3
378.214	15.57
378.423	15.6
378.631	14.74
378.839	14.49
379.047	14.52
379.255	14.97
379.463	15.28
379.671	15.19
379.879	13.8
380.088	14.17
380.296	14.73
380.504	15.08
380.712	15.58
380.92	16.41
381.128	15.57
381.336	15.6
381.544	15.1
381.752	14.32
381.96	14.51
382.168	14.8
382.376	14.38
382.584	13.72
382.791	12.45
382.999	12.7
383.207	11.53
383.415	12.68
383.623	12.52
383.831	12.06
384.039	12.79
384.247	12.54
384.454	12.49
384.662	12.46
384.87	12.02
385.078	12.88
385.285	12.11
385.493	12.65
385.701	12
385.909	12.16
386.116	12.52
386.324	12.04
386.532	12.17
386.739	11.73
386.947	11.81
387.155	13.07
387.362	12.51
387.57	12.7
387.778	13.13
387.985	12.92
388.193	12.9
388.4	12.52
388.608	12.31
388.816	12.1
389.023	12.47
389.231	12.55
389.438	11.82
389.646	12.21
389.853	11.8
390.061	11.76
390.268	12.02
390.475	11.87
390.683	11.82
390.89	11.91
391.098	11.5
391.305	11.89
391.512	11.44
391.72	11.42
391.927	11.55
392.135	12.31
392.342	11.62
392.549	11.47
392.756	11.43
392.964	11.65
393.171	12.18
393.378	12.47
393.586	11.96
393.793	11.82
394	12.07
394.207	11.66
394.414	11.51
394.622	12.13
394.829	11.87
395.036	11.83
395.243	11.91
395.45	11.91
395.657	12.26
395.864	12.83
396.072	13.21
396.279	12.45
396.486	12.68
396.693	12.81
396.9	12.63
397.107	12.99
397.314	12.59
397.521	12.62
397.728	12.33
397.935	12.82
398.142	12.57
398.349	12.27
398.556	12.44
398.763	12.09
398.97	11.4
399.177	11.74
399.383	11.81
399.59	12.2
399.797	12.13
400.004	12.15
400.211	11.53
400.418	11.56
400.625	11.87
400.831	12.48
401.038	12.45
401.245	12.93
401.452	12.15
401.658	11.94
401.865	11.87
402.072	11.73
402.279	11.31
402.485	10.91
402.692	10.36
402.899	10.2
403.105	10.01
403.312	10.79
403.519	10.39
403.725	10.16
403.932	10.61
404.138	10.18
404.345	10.22
404.552	10.31
404.758	10.32
404.965	10.06
405.171	10.63
405.378	10.37
405.584	9.89
405.791	9.87
405.997	10.67
406.204	10.22
406.41	10.82
406.617	10.49
406.823	10.27
407.029	10.59
407.236	11.3
407.442	10.97
407.649	11.16
407.855	11.23
408.061	11.51
408.268	11.41
408.474	12.02
408.68	11.82
408.887	12.02
409.093	12.04
409.299	12.01
409.505	11.86
409.712	11.15
409.918	11.37
410.124	10.97
410.33	10.56
410.537	10.36
410.743	9.47
410.949	9.31
411.155	9.1
411.361	9.75
411.567	9.35
411.773	9.1
411.98	9.07
412.186	8.52
412.392	8.8
412.598	9.23
412.804	8.91
413.01	9.21
413.216	9.84
413.422	10.61
413.628	10.08
413.834	9.88
414.04	10.77
414.246	11.8
414.452	12.39
414.658	12.32
414.864	11.95
415.07	12.21
415.275	12.62
415.481	12.33
415.687	11.86
415.893	11.57
416.099	12.06
416.305	11.49
416.511	10.87
416.716	10.18
416.922	9.86
417.128	9.58
417.334	9.6
417.539	9.03
417.745	8.87
417.951	8.58
418.157	8.45
418.362	8.41
418.568	8.29
418.774	7.98
418.979	8.25
419.185	8.13
419.391	8.64
419.596	8.65
419.802	9.07
420.008	8.72
420.213	8.84
420.419	9.17
420.624	8.79
420.83	8.82
421.035	8.93
421.241	8.71
421.446	8.89
421.652	8.66
421.857	8.36
422.063	8.21
422.268	8.5
422.474	8.59
422.679	8.27
422.885	8.59
423.09	8.51
423.295	8.7
423.501	8.93
423.706	8.97
423.911	8.63
424.117	8.66
424.322	8.36
424.527	8.34
424.733	8.22
424.938	8.57
425.143	8.39
425.349	8.38
425.554	8.6
425.759	8.56
425.964	8.21
426.169	8.37
426.375	8.33
426.58	8.34
426.785	8.1
426.99	8.28
427.195	8.17
427.4	7.8
427.605	7.83
427.811	7.09
428.016	7.35
428.221	7.91
428.426	8.16
428.631	8.49
428.836	8.71
429.041	9.26
429.246	9.21
429.451	9.39
429.656	10.03
429.861	9.96
430.066	10.33
430.271	10.14
430.476	9.95
430.681	9.78
430.886	9.68
431.09	9.58
431.295	9.25
431.5	9.17
431.705	8.92
431.91	8.7
432.115	8.38
432.32	8.54
432.524	8.22
432.729	8.03
432.934	7.9
433.139	7.77
433.343	7.8
433.548	7.62
433.753	7.38
433.958	7.65
434.162	7.73
434.367	8.03
434.572	8.26
434.776	8.15
434.981	8.49
435.186	8.46
435.39	8.48
435.595	8.56
435.799	8.76
436.004	9.01
436.209	8.7
436.413	8.21
436.618	8.3
436.822	8.08
437.027	8.17
437.231	7.81
437.436	8.06
437.64	7.85
437.845	7.83
438.049	7.98
438.253	7.61
438.458	7.44
438.662	7.88
438.867	7.63
439.071	7.64
439.275	7.88
439.48	8.1
439.684	8.12
439.888	8.17
440.093	8.21
440.297	8.06
440.501	8.44
440.706	8.69
440.91	8.76
441.114	8.77
441.318	9.05
441.523	8.97
441.727	8.89
441.931	8.72
442.135	8.51
442.339	8.59
442.543	8.62
442.748	8.68
442.952	8.43
443.156	8.01
443.36	8.06
443.564	7.68
443.768	7.36
443.972	7.78
444.176	7.79
444.38	8.23
444.584	7.94
444.788	7.81
444.992	7.78
445.196	7.97
445.4	7.95
445.604	8.2
445.808	8.11
446.012	8.37
446.216	8.01
446.42	8
446.624	8.26
446.828	8.34
447.032	8.3
447.235	8.23
447.439	7.91
447.643	7.92
447.847	7.85
448.051	8.01
448.254	7.72
448.458	7.63
448.662	7.37
448.866	7.05
449.069	6.69
449.273	6.83
449.477	6.54
449.681	6.99
449.884	6.85
450.088	6.75
450.292	6.62
450.495	6.94
450.699	6.99
450.902	7.61
451.106	7.46
451.31	8
451.513	8.28
451.717	8.72
451.92	8.78
452.124	9.12
452.327	9.32
452.531	9.31
452.734	9.04
452.938	8.9
453.141	8.68
453.345	8.79
453.548	8.42
453.752	8.15
453.955	8.07
454.158	7.66
454.362	7.53
454.565	7.3
454.769	7.25
454.972	7.63
455.175	7.56
455.379	7.63
455.582	7.13
455.785	7.28
455.988	6.94
456.192	6.83
456.395	7.2
456.598	7.32
456.801	7.27
457.005	7.52
457.208	7.38
457.411	7.61
457.614	7.87
457.817	8.51
458.021	8.79
458.224	8.92
458.427	9.07
458.63	9.18
458.833	9.04
459.036	9
459.239	8.72
459.442	8.66
459.645	8.79
459.848	8.44
460.051	8.29
460.254	8.08
460.457	8.05
460.66	7.78
460.863	7.42
461.066	7.45
461.269	7.7
461.472	7.65
461.675	7.97
461.878	7.92
462.081	8.36
462.284	8.12
462.486	8
462.689	8.38
462.892	8.58
463.095	8.72
463.298	9.01
463.5	8.94
463.703	9.08
463.906	8.58
464.109	8.52
464.311	8.24
464.514	8.75
464.717	8.79
464.92	8.39
465.122	8.21
465.325	7.99
465.528	7.72
465.73	7.43
465.933	7.56
466.135	8.04
466.338	7.78
466.541	7.9
466.743	7.68
466.946	7.73
467.148	7.89
467.351	7.83
467.553	7.84
467.756	8.35
467.958	8.47
468.161	8.42
468.363	8.17
468.566	8.32
468.768	8.03
468.971	7.94
469.173	8.12
469.375	7.97
469.578	7.92
469.78	7.8
469.983	7.45
470.185	7.78
470.387	7.66
470.59	7.71
470.792	7.73
470.994	7.94
471.196	8.04
471.399	8.14
471.601	8.41
471.803	8.71
472.005	8.92
472.208	8.9
472.41	8.06
472.612	8.11
472.814	7.98
473.016	7.9
473.218	7.85
473.421	7.91
473.623	7.66
473.825	7.56
474.027	7.52
474.229	7.6
474.431	7.64
474.633	8.23
474.835	8.41
475.037	8.74
475.239	8.93
475.441	9.04
475.643	9.19
475.845	9.14
476.047	9
476.249	8.92
476.451	8.77
476.653	8.6
476.855	8.48
477.057	8.21
477.258	7.71
477.46	7.77
477.662	7.99
477.864	7.72
478.066	7.9
478.268	7.96
478.469	7.6
478.671	7.72
478.873	7.91
479.075	7.93
479.276	8.13
479.478	8.34
479.68	8.21
479.882	7.74
480.083	7.85
480.285	7.8
480.487	7.81
480.688	8.27
480.89	8.23
481.091	8.19
481.293	8.09
481.495	7.87
481.696	7.86
481.898	7.82
482.099	7.79
482.301	7.7
482.502	7.45
482.704	7.39
482.905	7.12
483.107	7.07
483.308	7.01
483.51	6.97
483.711	7
483.913	6.88
484.114	6.92
484.315	6.96
484.517	6.88
484.718	7.03
484.92	7.04
485.121	7.17
485.322	7.25
485.524	7.25
485.725	7.33
485.926	7.31
486.127	7.39
486.329	7.31
486.53	7.24
486.731	7.32
486.932	7.23
487.134	7.15
487.335	7.2
487.536	7.1
487.737	7.07
487.938	7.1
488.139	7.13
488.341	7.15
488.542	7.14
488.743	7.31
488.944	7.36
489.145	7.34
489.346	7.44
489.547	7.25
489.748	7.35
489.949	7.45
490.15	7.46
490.351	7.45
490.552	7.45
490.753	7.49
490.954	7.36
491.155	7.44
491.356	7.6
491.557	7.62
491.758	7.72
491.959	7.55
492.159	7.6
492.36	7.58
492.561	7.61
492.762	7.71
492.963	7.72
493.164	7.72
493.364	7.59
493.565	7.5
493.766	7.45
493.967	7.37
494.167	7.71
494.368	7.77
494.569	7.57
494.769	7.7
494.97	7.83
495.171	7.94
495.371	8.21
495.572	8.24
495.773	8.26
495.973	8.4
496.174	8.65
496.375	8.82
496.575	8.75
496.776	8.8
496.976	8.62
497.177	8.48
497.377	8.71
497.578	8.42
497.778	8.5
497.979	8.49
498.179	8.3
498.38	8.12
498.58	7.98
498.78	7.93
498.981	7.88
499.181	8.17
499.382	8.18
499.582	7.89
499.782	8.18
499.983	7.97
500.183	8.05
500.383	8.13
500.584	8.19
500.784	8.29
500.984	8.19
501.184	8.46
501.385	8.41
501.585	8.57
501.785	8.69
501.985	8.76
502.185	9.05
502.386	8.99
502.586	9.03
502.786	8.94
502.986	8.65
503.186	8.66
503.386	8.73
503.586	8.52
503.786	8.61
503.987	8.46
504.187	8.34
504.387	8.75
504.587	8.67
504.787	8.86
504.987	9.28
505.187	9.79
505.387	9.99
505.587	10.03
505.786	10.2
505.986	10.1
506.186	10.34
506.386	10.73
506.586	10.37
506.786	10.48
506.986	10.44
507.186	10.23
507.386	10.06
507.585	10.2
507.785	10.04
507.985	10.29
508.185	10.03
508.384	10.1
508.584	9.81
508.784	9.85
508.984	9.84
509.183	9.66
509.383	9.76
509.583	9.61
509.782	9.69
509.982	10.05
510.182	9.67
510.381	10.08
510.581	10.02
510.781	9.87
510.98	9.81
511.18	10.09
511.379	10.3
511.579	10.14
511.778	10.44
511.978	10.36
512.177	10.13
512.377	10.23
512.576	10.03
512.776	10.2
512.975	10.34
513.175	10.49
513.374	10.48
513.573	10.44
513.773	10.73
513.972	10.48
514.172	10.36
514.371	10.52
514.57	10.88
514.77	11.08
514.969	11.08
515.168	11.27
515.367	11.32
515.567	11.27
515.766	11.55
515.965	11.78
516.164	12.02
516.364	12.35
516.563	12.46
516.762	12.55
516.961	12.82
517.16	13.05
517.359	13.11
517.559	13.34
517.758	13.66
517.957	13.65
518.156	13.69
518.355	13.88
518.554	14.12
518.753	14.07
518.952	14.01
519.151	13.79
519.35	13.74
519.549	13.9
519.748	13.93
519.947	13.72
520.146	14.11
520.345	14.27
520.544	14.2
520.743	14.06
520.942	14.44
521.141	14.65
521.339	14.85
521.538	14.92
521.737	14.96
521.936	14.68
522.135	14.87
522.333	14.87
522.532	14.77
522.731	14.71
522.93	14.92
523.129	14.75
523.327	15.08
523.526	15.29
523.725	15.45
523.923	15.43
524.122	15.42
524.321	15.51
524.519	15.42
524.718	15.51
524.917	15.64
525.115	15.55
525.314	15.74
525.512	15.43
525.711	15.51
525.909	15.34
526.108	15.36
526.306	15.65
526.505	15.68
526.703	15.63
526.902	15.65
527.1	15.65
527.299	15.74
527.497	15.68
527.696	15.81
527.894	15.84
528.092	15.93
528.291	16.03
528.489	16.06
528.688	16.04
528.886	16.1
529.084	16.15
529.283	16.26
529.481	16.26
529.679	16.43
529.877	16.51
530.076	16.64
530.274	16.93
530.472	17.1
530.67	17.27
530.869	17.56
531.067	17.72
531.265	17.9
531.463	18.08
531.661	18.2
531.859	18.14
532.057	18.27
532.255	18.28
532.454	18.11
532.652	18.07
532.85	18.06
533.048	18.02
533.246	18.15
533.444	18.17
533.642	18.17
533.84	18.17
534.038	18.25
534.236	18.36
534.434	18.37
534.632	18.43
534.83	18.58
535.027	18.69
535.225	18.74
535.423	18.95
535.621	18.98
535.819	19.1
536.017	19.19
536.215	19.19
536.412	19.14
536.61	19.35
536.808	19.42
537.006	19.29
537.203	19.51
537.401	19.68
537.599	19.53
537.797	19.73
537.994	19.56
538.192	19.8
538.39	20.06
538.587	20.16
538.785	20.1
538.983	20.11
539.18	20.38
539.378	20.24
539.575	20.18
539.773	20.02
539.97	19.92
540.168	19.94
540.366	19.83
540.563	19.91
540.761	19.83
540.958	19.87
541.155	19.99
541.353	20.04
541.55	20.03
541.748	20.19
541.945	20.45
542.143	20.53
542.34	20.76
542.537	20.79
542.735	20.77
542.932	20.95
543.129	21.1
543.327	21.14
543.524	21.06
543.721	21.21
543.919	21.21
544.116	21.3
544.313	21.26
544.51	21.1
544.708	21.49
544.905	21.33
545.102	21.44
545.299	21.36
545.496	21.4
545.693	21.62
545.891	21.62
546.088	21.92
546.285	21.75
546.482	21.92
546.679	22.14
546.876	21.96
547.073	22.21
547.27	22.02
547.467	21.87
547.664	22.01
547.861	21.89
548.058	21.78
548.255	21.55
548.452	21.67
548.649	21.83
548.846	21.77
549.043	21.88
549.24	22.07
549.437	22.42
549.633	22.79
549.83	22.5
550.027	22.56
550.224	22.62
550.421	22.59
550.618	22.54
550.814	22.29
551.011	22.53
551.208	22.36
551.405	22.25
551.601	22.25
551.798	22.39
551.995	22.35
552.191	22.67
552.388	22.97
552.585	22.87
552.781	22.94
552.978	23.23
553.175	22.91
553.371	23.28
553.568	23.28
553.764	23.25
553.961	23.19
554.157	23.42
554.354	23.18
554.55	22.97
554.747	23.32
554.943	23.42
555.14	23.5
555.336	23.73
555.533	23.99
555.729	24.01
555.926	24.55
556.122	24.5
556.318	24.79
556.515	24.95
556.711	25.03
556.907	24.97
557.104	24.99
557.3	24.47
557.496	24.51
557.693	24.17
557.889	24.48
558.085	24.46
558.281	24.92
558.478	24.99
558.674	24.94
558.87	24.97
559.066	24.86
559.262	24.97
559.459	25.21
559.655	25.72
559.851	25.94
560.047	25.64
560.243	25.43
560.439	25.4
560.635	24.77
560.831	24.91
561.027	25.01
561.223	25.09
561.419	25.11
561.615	25.61
561.811	25.4
562.007	25.18
562.203	25.34
562.399	25.12
562.595	24.67
562.791	25.17
562.987	25.54
563.183	25.99
563.379	26.13
563.575	26.04
563.771	25.84
563.966	25.72
564.162	25.47
564.358	25.62
564.554	25.45
564.75	25.48
564.945	25.33
565.141	24.99
565.337	24.95
565.533	24.93
565.728	24.91
565.924	24.78
566.12	24.72
566.315	25.04
566.511	24.87
566.707	25.04
566.902	25.25
567.098	25.53
567.293	25.74
567.489	25.28
567.684	25.32
567.88	25.53
568.076	25.99
568.271	25.92
568.467	25.74
568.662	25.74
568.858	26.01
569.053	25.85
569.248	25.78
569.444	25.63
569.639	25.98
569.835	25.99
570.03	25.94
570.225	25.64
570.421	25.78
570.616	25.75
570.812	25.85
571.007	25.5
571.202	25.58
571.397	25.81
571.593	25.85
571.788	25.7
571.983	25.64
572.178	25.83
572.374	25.72
572.569	25.72
572.764	25.66
572.959	25.87
573.154	26.17
573.35	26.46
573.545	26.28
573.74	26.1
573.935	26.34
574.13	26.32
574.325	26.52
574.52	26.67
574.715	27
574.91	27.43
575.105	27.3
575.3	27.43
575.495	27.28
575.69	27.52
575.885	27.85
576.08	27.73
576.275	28.04
576.47	27.75
576.665	28.01
576.86	27.94
577.055	27.78
577.25	27.5
577.444	27.48
577.639	27.48
577.834	27.04
578.029	27.02
578.224	26.95
578.418	26.96
578.613	26.93
578.808	26.78
579.003	26.85
579.197	27.25
579.392	27.71
579.587	27.48
579.781	27.44
579.976	27.86
580.171	28.05
580.365	27.76
580.56	27.35
580.755	27.65
580.949	27.94
581.144	27.75
581.338	27.26
581.533	26.93
581.727	27.37
581.922	27.22
582.116	27.38
582.311	27.01
582.505	26.93
582.7	27.12
582.894	26.95
583.089	26.62
583.283	26.72
583.478	27.07
583.672	27.61
583.866	27.61
584.061	27.59
584.255	27.31
584.449	27.5
584.644	28.11
584.838	28.32
585.032	28.43
585.226	28.2
585.421	28.02
585.615	28.26
585.809	28.58
586.003	28.35
586.198	28.84
586.392	29.15
586.586	29.34
586.78	29.14
586.974	29.04
587.168	28.76
587.363	29.55
587.557	29.51
587.751	29.43
587.945	28.88
588.139	28.8
588.333	29.19
588.527	28.8
588.721	28.84
588.915	29.25
589.109	29.13
589.303	29.23
589.497	28.97
589.691	29.41
589.885	28.9
590.079	28.86
590.273	28.83
590.466	28.67
590.66	29.18
590.854	29.05
591.048	28.8
591.242	29.06
591.436	29.07
591.629	28.61
591.823	28.41
592.017	28.73
592.211	29.39
592.404	29.64
592.598	29.14
592.792	28.4
592.986	28.86
593.179	28.85
593.373	28.42
593.567	28.44
593.76	28.39
593.954	28.24
594.147	28.53
594.341	28.15
594.535	28.19
594.728	28.34
594.922	28.52
595.115	27.85
595.309	27.68
595.502	28.15
595.696	28.5
595.889	28.73
596.083	28.69
596.276	28.77
596.47	28.67
596.663	28.63
596.856	28.29
597.05	28.21
597.243	28.29
597.437	28.74
597.63	28.87
597.823	28.54
598.017	28.89
598.21	28.81
598.403	28.99
598.596	29.34
598.79	29.29
598.983	29.75
599.176	30.07
599.369	30.37
599.563	30.25
599.756	30.37
599.949	30.6
600.142	30.02
600.335	30.63
600.528	30.28
600.722	29.93
600.915	29.86
601.108	29.89
601.301	29.55
601.494	29.45
601.687	29.23
601.88	28.96
602.073	29.12
602.266	29.46
602.459	29.39
602.652	29.29
602.845	29.1
603.038	28.96
603.231	29.29
603.424	29.33
603.617	29.6
603.809	29.52
604.002	29.44
604.195	29.2
604.388	28.92
604.581	28.94
604.774	28.91
604.966	28.73
605.159	28.98
605.352	28.36
605.545	28.95
605.737	28.67
605.93	29.14
606.123	29.01
606.316	28.83
606.508	28.98
606.701	28.76
606.894	29.13
607.086	29.46
607.279	29.57
607.471	29.89
607.664	29.34
607.857	29.53
608.049	29.51
608.242	30.05
608.434	30.3
608.627	30.43
608.819	30.44
609.012	30.14
609.204	30.37
609.397	30.17
609.589	30.35
609.782	30.55
609.974	30.51
610.166	29.76
610.359	29.22
610.551	29.34
610.743	29.65
610.936	29.83
611.128	29.52
611.32	29.2
611.513	29.29
611.705	29.22
611.897	29.53
612.09	29.53
612.282	30.26
612.474	30.63
612.666	30.51
612.858	30.17
613.051	30.08
613.243	29.96
613.435	30.17
613.627	30.41
613.819	30.56
614.011	31.04
614.203	31.26
614.395	31.06
614.588	31.14
614.78	31.48
614.972	32.04
615.164	32.29
615.356	33.07
615.548	33.11
615.74	33.35
615.932	33.74
616.124	32.44
616.315	32.64
616.507	32.89
616.699	32.92
616.891	32.56
617.083	32.05
617.275	32.13
617.467	31.68
617.659	31.9
617.85	31.9
618.042	32.25
618.234	32.98
618.426	32.44
618.618	32.59
618.809	32.18
619.001	32.55
619.193	32.56
619.384	32.83
619.576	33.04
619.768	32.61
619.959	32.2
620.151	31.6
620.343	31.44
620.534	31.5
620.726	31.21
620.917	31.31
621.109	31.29
621.301	31.69
621.492	31.59
621.684	32.25
621.875	32.44
622.067	32.77
622.258	32.01
622.45	32.24
622.641	32.69
622.832	32.83
623.024	32.86
623.215	32.05
623.407	31.39
623.598	31.57
623.789	30.82
623.981	30.86
624.172	30.42
624.363	30.57
624.555	30.14
624.746	29.58
624.937	29.68
625.129	30.04
625.32	30.78
625.511	31.42
625.702	31.19
625.893	31.58
626.085	31.42
626.276	31.54
626.467	31.71
626.658	31.91
626.849	32.09
627.04	32.14
627.231	32.19
627.422	31.86
627.614	32.04
627.805	31.5
627.996	31.39
628.187	31.71
628.378	32.25
628.569	32.52
628.76	32.77
628.951	32.82
629.142	33.26
629.332	33.11
629.523	33.43
629.714	32.8
629.905	33.52
630.096	33.46
630.287	33.36
630.478	33
630.669	33.54
630.859	33.32
631.05	33.35
631.241	32.86
631.432	33.21
631.623	33.89
631.813	34.66
632.004	34.47
632.195	33.71
632.385	33.78
632.576	33.8
632.767	32.99
632.957	33.13
633.148	33.12
633.339	33.31
633.529	32.9
633.72	32.17
633.91	31.8
634.101	31.65
634.292	32.48
634.482	32.34
634.673	32.13
634.863	33.01
635.054	32.51
635.244	32.52
635.435	32.57
635.625	32.8
635.815	32.51
636.006	32.42
636.196	32.59
636.387	32.6
636.577	32.69
636.767	32.39
636.958	31.39
637.148	31.62
637.338	32.69
637.529	32.39
637.719	32.58
637.909	32.84
638.099	33.24
638.29	33.44
638.48	33.53
638.67	33.79
638.86	34.23
639.05	34.31
639.241	34.78
639.431	33.99
639.621	34.3
639.811	33.98
640.001	34.3
640.191	33.75
640.381	33.64
640.571	33.48
640.761	33.35
640.951	33.84
641.141	33.86
641.331	33.53
641.521	33.67
641.711	33.61
641.901	33.74
642.091	34.03
642.281	34.22
642.471	34.26
642.661	34.38
642.851	34.64
643.041	35.05
643.231	34.9
643.42	35.32
643.61	35.77
643.8	36.08
643.99	35.8
644.18	35.97
644.369	36.07
644.559	35.68
644.749	35.8
644.939	35.87
645.128	35.02
645.318	35.36
645.508	35.43
645.697	35.09
645.887	34.77
646.076	34.99
646.266	34.5
646.456	34.63
646.645	35.07
646.835	34.54
647.024	34.4
647.214	34.73
647.403	34.79
647.593	34.32
647.782	34.11
647.972	33.79
648.161	33.54
648.351	33.73
648.54	33.71
648.73	33.49
648.919	33.46
649.108	33
649.298	33.18
649.487	33.58
649.677	34.3
649.866	34.04
650.055	34.43
650.244	34.96
650.434	34.12
650.623	34.19
650.812	34.56
651.002	35.04
651.191	35.28
651.38	35.1
651.569	34.6
651.758	34.68
651.947	34.89
652.137	34.74
652.326	34.26
652.515	34.73
652.704	34.82
652.893	34.64
653.082	34.43
653.271	34.76
653.46	34.78
653.649	34.78
653.838	33.94
654.027	34.1
654.216	34.06
654.405	34.17
654.594	34.3
654.783	33.99
654.972	33.78
655.161	34.03
655.35	33.57
655.539	32.98
655.728	33.98
655.916	34.14
656.105	34.11
656.294	33.79
656.483	34.55
656.672	34
656.86	33.75
657.049	34.12
657.238	33.45
657.427	34.08
657.615	34.35
657.804	33.71
657.993	33.2
658.181	32.56
658.37	33.69
658.559	33.36
658.747	33.32
658.936	33.37
659.125	34.39
659.313	35.21
659.502	34.83
659.69	34.67
659.879	34.32
660.067	35.18
660.256	35.56
660.444	35.45
660.633	35.36
660.821	35.97
661.01	36.45
661.198	34.6
661.387	34.18
661.575	33.64
661.763	33.56
661.952	34.41
662.14	33.99
662.328	34.14
662.517	33.74
662.705	33.4
662.893	33.69
663.082	33.27
663.27	33.74
663.458	33.06
663.646	34.39
663.834	34.83
664.023	34.57
664.211	34.79
664.399	35.15
664.587	34.48
664.775	34.68
664.963	34.59
665.152	34.97
665.34	35.22
665.528	35.64
665.716	35.3
665.904	35.73
666.092	35.84
666.28	36.46
666.468	36.08
666.656	35.55
666.844	36.38
667.032	36.12
667.22	35.74
667.408	35.72
667.596	35.5
667.784	36.37
667.971	36.73
668.159	36.53
668.347	35.42
668.535	35.45
668.723	36.24
668.911	35.85
669.098	36.38
669.286	36.22
669.474	36.24
669.662	37.13
669.849	36.56
670.037	35.97
670.225	36.22
670.413	36.63
670.6	37.58
670.788	37.79
670.976	37.38
671.163	36.78
671.351	37.53
671.538	37.51
671.726	37.66
671.913	37.33
672.101	36.55
672.289	36.62
672.476	36.33
672.664	35.51
672.851	35.72
673.039	35.72
673.226	35.64
673.413	35.25
673.601	35.54
673.788	36.1
673.976	36.11
674.163	36.62
674.35	36.06
674.538	36.43
674.725	37.46
674.912	37.12
675.1	36.82
675.287	36.72
675.474	36.92
675.662	36.94
675.849	35.95
676.036	34.99
676.223	35.83
676.411	36.44
676.598	37.06
676.785	36.53
676.972	37.07
677.159	37.69
677.346	38.88
677.533	39
677.721	38.69
677.908	38.99
678.095	40.22
678.282	39.52
678.469	39.02
678.656	37.87
678.843	37.84
679.03	36.94
679.217	36.68
679.404	35.72
679.591	35.82
679.778	36.19
679.964	35.48
680.151	35.48
680.338	35.24
680.525	35.03
680.712	36.04
680.899	35.34
681.086	35.87
681.272	36.29
681.459	36.43
681.646	36.05
681.833	36.12
682.02	36.54
682.206	36.58
682.393	37.4
682.58	37.95
682.766	37.79
682.953	38.47
683.14	38.48
683.326	38.56
683.513	39.13
683.7	38.85
683.886	38.4
684.073	38.14
684.259	38.13
684.446	37.49
684.632	38.61
684.819	38.79
685.005	38.88
685.192	38.6
685.378	38.5
685.565	37.95
685.751	38.09
685.938	38.19
686.124	38.25
686.31	37.93
686.497	38.76
686.683	39.02
686.87	39.1
687.056	38
687.242	39.05
687.429	38.93
687.615	38.56
687.801	38.81
687.987	38.65
688.174	39.36
688.36	39.89
688.546	38.77
688.732	38.19
688.918	37.32
689.105	39.19
689.291	37.87
689.477	37.95
689.663	38.66
689.849	38.61
690.035	38.77
690.221	38.19
690.407	38.3
690.593	39.34
690.779	38.27
690.965	38.38
691.151	36.49
691.337	36.57
691.523	37.04
691.709	37.43
691.895	38.08
692.081	38.91
692.267	39.85
692.453	39.54
692.639	39.17
692.825	40.21
693.011	40.71
693.196	42.53
693.382	42.74
693.568	42.45
693.754	42.38
693.94	41.75
694.125	41.06
694.311	40.5
694.497	40.08
694.682	39.86
694.868	39.64
695.054	39.45
695.239	38.58
695.425	39.56
695.611	38.92
695.796	38.95
695.982	38.42
696.168	38.15
696.353	38.16
696.539	38.63
696.724	38.74
696.91	37.79
697.095	37.48
697.281	37.02
697.466	35.78
697.652	36.7
697.837	36.21
698.023	36.22
698.208	36.2
698.393	35.6
698.579	35.01
698.764	35
698.949	34.88
699.135	34.93
699.32	35.72
699.505	36.73
699.691	35.4
699.876	34.52
700.061	34.6
700.246	34.27
700.432	34.2
700.617	34.8
700.802	34.33
700.987	36.06
701.172	36.54
701.358	37.25
701.543	37.67
701.728	38.74
701.913	40.77
702.098	41.5
702.283	41.69
702.468	42.46
702.653	42.37
702.838	43.4
703.023	43.09
703.208	42.93
703.393	41.48
703.578	41.12
703.763	41.67
703.948	41.2
704.133	41.2
704.318	41.91
704.503	42.32
704.688	43.08
704.873	42.53
705.057	42.16
705.242	41.9
705.427	41.96
705.612	42.55
705.797	43.37
705.981	43.46
706.166	42.39
706.351	41.79
706.536	42.66
706.72	41.6
706.905	42.75
707.09	42.72
707.274	43.37
707.459	44.56
707.644	43.67
707.828	42.67
708.013	42.51
708.197	42.84
708.382	43.76
708.567	42.06
708.751	42.89
708.936	42.89
709.12	42.1
709.305	41.92
709.489	41.71
709.673	41.23
709.858	41.86
710.042	41.87
710.227	41.84
710.411	42.26
710.596	43.57
710.78	42.99
710.964	41.73
711.149	42.02
711.333	41.74
711.517	40.75
711.702	41.31
711.886	40.86
712.07	41.57
712.254	42.51
712.438	41.24
712.623	40.96
712.807	41.28
712.991	40.99
713.175	41.03
713.359	41.73
713.544	41.41
713.728	41.5
713.912	41.81
714.096	41.98
714.28	41.68
714.464	41.75
714.648	41.84
714.832	41.74
715.016	42.08
715.2	42.53
715.384	42.28
715.568	42.51
715.752	42.45
715.936	42
716.12	40.82
716.304	40.74
716.488	41.03
716.671	40.98
716.855	40.52
717.039	40.77
717.223	39.69
717.407	39.5
717.59	39.13
717.774	39.87
717.958	39.83
718.142	39.93
718.325	39.84
718.509	38.96
718.693	38.32
718.877	39.05
719.06	39.98
719.244	40.32
719.428	40.65
719.611	41.77
719.795	40.78
719.978	40.61
720.162	40.63
720.345	41.76
720.529	42.66
720.713	43.11
720.896	42.76
721.08	42.76
721.263	43.4
721.446	44
721.63	44.8
721.813	44.76
721.997	46.65
722.18	48.01
722.364	48.29
722.547	49.34
722.73	49.56
722.914	49.35
723.097	50.05
723.28	51.85
723.464	52.24
723.647	51.72
723.83	51.27
724.013	48.92
724.197	49.12
724.38	47.33
724.563	44.8
724.746	45.78
724.929	47.04
725.112	46.08
725.296	45.04
725.479	43.8
725.662	43.43
725.845	42.98
726.028	44.79
726.211	45.18
726.394	46.43
726.577	48.59
726.76	47.49
726.943	45.73
727.126	46.02
727.309	44.64
727.492	45.51
727.675	46.02
727.858	46.5
728.041	45.17
728.224	43.46
728.407	42.95
728.589	43.09
728.772	41.72
728.955	42.65
729.138	42.68
729.321	42.41
729.503	41.44
729.686	40.17
729.869	40.76
730.052	41.12
730.234	41.75
730.417	41.98
730.6	40.43
730.782	41.13
730.965	40.68
731.148	39.39
731.33	40.07
731.513	40.09
731.695	41.93
731.878	42.29
732.061	41.64
732.243	40.68
732.426	40.12
732.608	40.68
732.791	41.03
732.973	40.45
733.156	42.08
733.338	42.92
733.52	43.47
733.703	41.96
733.885	40.78
734.068	40.11
734.25	40.6
734.432	42.5
734.615	43.64
734.797	43.53
734.979	44.8
735.162	44.1
735.344	44.81
735.526	45.33
735.708	46.47
735.891	46.16
736.073	47.86
736.255	49.17
736.437	47.78
736.619	48.25
736.802	48.59
736.984	48.78
737.166	49.09
737.348	49.32
737.53	48.43
737.712	47.65
737.894	47.67
738.076	47.56
738.258	44.69
738.44	45.27
738.622	43.67
738.804	43.43
738.986	41.32
739.168	42.15
739.35	40.08
739.532	41.33
739.714	43.05
739.896	42.25
740.078	41.77
740.259	44.18
740.441	44.61
740.623	45.92
740.805	46.34
740.987	47.73
741.168	45.79
741.35	46.94
741.532	45.92
741.714	43.37
741.895	45.02
742.077	43.8
742.259	45.01
742.44	43.31
742.622	43.13
742.804	44.85
742.985	44.78
743.167	45.1
743.348	46.34
743.53	45.77
743.711	49.01
743.893	50.43
744.075	52.22
744.256	50.68
744.438	50.6
744.619	51.16
744.8	48.97
744.982	50.09
745.163	53.41
745.345	53.07
745.526	54.4
745.707	52.47
745.889	51.67
746.07	51.83
746.252	51.4
746.433	53.22
746.614	54.45
746.795	53.03
746.977	53.59
747.158	51.53
747.339	48.43
747.52	49.03
747.702	48.34
747.883	47.51
748.064	47.43
748.245	47.24
748.426	46.07
748.607	43.93
748.788	48.94
748.97	47
749.151	47.12
749.332	48.77
749.513	48.39
749.694	47.6
749.875	48.69
750.056	49.69
750.237	50.17
750.418	49.92
750.599	53.03
750.78	48.49
750.96	50.69
751.141	49.8
751.322	50.88
751.503	49.03
751.684	52.52
751.865	51.98
752.046	49.49
752.226	49.37
752.407	50.8
752.588	47.81
752.769	48.1
752.949	48.13
753.13	46.89
753.311	47.67
753.492	48.32
753.672	46.82
753.853	47.42
754.034	47.26
754.214	44.9
754.395	44.23
754.575	44.37
754.756	46.74
754.937	47.98
755.117	49.37
755.298	47.94
755.478	48.71
755.659	49.84
755.839	50.39
756.02	52.28
756.2	56.84
756.381	56.64
756.561	59.27
756.741	57.11
756.922	55.13
757.102	58.83
757.283	59.09
757.463	56.83
757.643	56.06
757.823	54.97
758.004	56.18
758.184	54.15
758.364	52.29
758.545	51.4
758.725	51.32
758.905	51.94
759.085	49.46
759.265	48.11
759.446	49.44
759.626	46.47
759.806	45.39
759.986	44.18
760.166	45
760.346	47.35
760.526	45.26
760.706	46.58
760.886	45.48
761.066	45.3
761.246	44.52
761.426	43.7
761.606	44.04
761.786	42.61
761.966	42.32
762.146	41.61
762.326	41.62
762.506	42.65
762.686	42.2
762.866	42.91
763.046	41.96
763.225	42.99
763.405	41.57
763.585	42.04
763.765	44.51
763.945	45.67
764.124	45.77
764.304	45.72
764.484	46.15
764.664	45.96
764.843	45.53
765.023	47.74
765.203	45.63
765.382	47.09
765.562	48.6
765.741	46.47
765.921	46.22
766.101	47.05
766.28	46.66
766.46	46.97
766.639	47.48
766.819	48.72
766.998	49.08
767.178	51.29
767.357	52.95
767.537	53.29
767.716	52.35
767.896	52.29
768.075	51.07
768.254	52.46
768.434	51.78
768.613	51.59
768.792	51.46
768.972	47.96
769.151	49.99
769.33	50.45
769.51	52.33
769.689	56.68
769.868	56.34
770.047	55.33
770.226	54.41
770.406	53.98
770.585	55.13
770.764	55.74
770.943	58.24
771.122	57.57
771.301	58.17
771.48	55.9
771.66	55.34
771.839	58.64
772.018	61.72
772.197	64.77
772.376	67.63
772.555	67.27
772.734	64.54
772.913	66.72
773.092	64.86
773.271	63.42
773.449	64.89
773.628	62.24
773.807	58.46
773.986	55.18
774.165	50.18
774.344	48.3
774.523	49.85
774.701	50.86
774.88	49.63
775.059	51.52
775.238	54.25
775.417	55.18
775.595	58.67
775.774	57.66
775.953	62.72
776.131	65.96
776.31	66.98
776.489	63.95
776.667	63.12
776.846	59.48
777.025	58.99
777.203	61.09
777.382	58.12
777.56	57.86
777.739	59.23
777.917	56.88
778.096	56.48
778.274	55.92
778.453	56.92
778.631	57.67
778.81	59.98
778.988	58.96
779.166	56
779.345	59.35
779.523	58.98
779.702	62.97
779.88	63.69
780.058	60.61
780.237	60.75
780.415	60.85
780.593	60.31
780.771	58.7
780.95	61.32
781.128	59.4
781.306	56.53
781.484	55.89
781.662	54.18
781.841	52.47
782.019	53.4
782.197	53.19
782.375	50.79
782.553	50.58
782.731	54.39
782.909	54.84
783.087	58.6
783.265	62.76
783.443	65.91
783.621	62.43
783.799	66.58
783.977	70.57
784.155	76.05
784.333	75.41
784.511	74.66
784.689	73.81
784.867	72.14
785.045	71.84
785.223	65.13
785.4	66.67
785.578	68.42
785.756	61.89
785.934	59.5
786.112	55.2
786.289	56.8
786.467	57.99
786.645	58.69
786.823	58.01
787	57.15
787.178	60.45
787.356	59.41
787.533	58.16
787.711	60.95
787.889	61.06
788.066	56.81
788.244	59.71
788.421	60.76
788.599	59.26
788.776	61.36
788.954	62.97
789.131	60.52
789.309	59.52
789.486	61.14
789.664	63.92
789.841	62.29
790.019	68.68
790.196	64.13
790.373	61.77
790.551	60.02
790.728	62.93
790.906	62.04
791.083	64.48
791.26	62.43
791.437	62.41
791.615	59.09
791.792	59.79
791.969	58.41
792.146	64.84
792.324	62.43
792.501	66.57
792.678	63.05
792.855	58.46
793.032	57.3
793.209	58.52
793.387	57
793.564	57.46
793.741	61.3
793.918	59.06
794.095	56.61
794.272	63.37
794.449	59.63
794.626	61.85
794.803	62.08
794.98	61.12
795.157	63.84
795.334	64.01
795.511	63.29
795.688	59.99
795.864	61.34
796.041	59.6
796.218	55.44
796.395	57.49
796.572	53.6
796.749	56.32
796.925	55.44
797.102	52.81
797.279	54.53
797.456	57.24
797.632	58.82
797.809	62.41
797.986	65.65
798.162	66.83
798.339	68.68
798.516	72.1
798.692	71.76
798.869	77.78
799.046	77.64
799.222	75.36
799.399	75.48
799.575	77.62
799.752	75.19
799.928	72.35
800.105	69.43
800.281	70.7
800.458	69.25
800.634	63.28
800.811	63.17
800.987	70.67
801.163	71.73
801.34	73.09
801.516	68.62
801.692	65.67
801.869	70.34
802.045	74.55
802.221	68.36
802.398	65.85
802.574	70.51
802.75	66.44
802.926	61.21
803.103	63.39
803.279	57.9
803.455	58.68
803.631	65.82
803.807	63.53
803.983	67.76
804.16	74.05
804.336	77.86
804.512	82.27
804.688	89.1
804.864	93.89
805.04	93.63
805.216	94.13
805.392	99.26
805.568	92.99
805.744	87.93
805.92	79.57
806.096	79.47
806.272	86.74
806.448	85.47
806.623	86.88
806.799	84.33
806.975	74.11
807.151	77.5
807.327	76.09
807.503	80.52
807.678	85.67
807.854	96.35
808.03	98.5
808.206	94.11
808.381	91.34
808.557	83.94
808.733	84.31
808.908	88.81
809.084	89.24
809.26	88.35
809.435	88.25
809.611	84.41
809.787	74.25
809.962	74.51
810.138	73.57
810.313	76.36
810.489	77.18
810.664	72.8
810.84	73.13
811.015	73.7
811.191	74.77
811.366	74.82
811.542	80.9
811.717	84.5
811.892	80.05
812.068	78.27
812.243	78.41
812.419	79.98
812.594	83.23
812.769	89.56
812.944	89.49
813.12	86.23
813.295	84.49
813.47	75.42
813.645	80.43
813.821	87.7
813.996	93.16
814.171	94.77
814.346	95.4
814.521	96.02
814.697	94.01
814.872	87.05
815.047	85.21
815.222	80.71
815.397	86.44
815.572	81.72
815.747	77.85
815.922	70.84
816.097	69.05
816.272	68.19
816.447	66.74
816.622	66.24
816.797	69.73
816.972	75.41
817.147	73.85
817.322	73.24
817.496	76.33
817.671	77.31
817.846	79.07
818.021	77.13
818.196	77.92
818.371	77.35
818.545	76.35
818.72	74.4
818.895	70.35
819.069	71.43
819.244	70.15
819.419	64.45
819.594	55.63
819.768	52.66
819.943	50.1
820.117	47.16
820.292	46.99
820.467	46.63
820.641	44.94
820.816	41.85
820.99	40.09
821.165	37.67
821.339	37.3
821.514	37.85
821.688	36.98
821.863	36.67
822.037	36.49
822.212	35.54
822.386	35.33
822.56	34.71
822.735	34.83
822.909	35.02
823.084	34.78
823.258	34.61
823.432	34.41
823.606	35.36
823.781	35.59
823.955	35.77
824.129	36.2
824.303	35.63
824.478	35.41
824.652	35.92
824.826	36.52
825	38.24
825.174	37.65
825.348	36.42
825.523	34.47
825.697	32.98
825.871	32.59
826.045	32.13
826.219	32.93
826.393	33.91
826.567	34.08
826.741	34.18
826.915	33.48
827.089	34.9
827.263	36.95
827.437	39.65
827.611	43.48
827.784	45.71
827.958	47.91
828.132	48.68
828.306	49.35
828.48	50.75
828.654	50.12
828.827	51.29
829.001	51.42
829.175	53.31
829.349	52.25
829.522	51.39
829.696	50.65
829.87	52.97
830.044	54.78
830.217	58.39
830.391	65.14
830.565	70.61
830.738	72.85
830.912	75.39
831.085	72.79
831.259	70.89
831.432	72.72
831.606	75.23
831.779	66.59
831.953	63.11
832.126	63.24
832.3	59.44
832.473	53.31
832.647	53.55
832.82	50.6
832.994	49.92
833.167	49.31
833.34	46.78
833.514	44.54
833.687	46.54
833.86	45.5
834.034	43.75
834.207	41.34
834.38	45.95
834.553	45.52
834.727	48.65
834.9	50.33
835.073	53.67
835.246	54.46
835.419	56.59
835.593	59.65
835.766	64.68
835.939	65.34
836.112	69.52
836.285	65.22
836.458	67.92
836.631	68.71
836.804	70.41
836.977	68.78
837.15	73.04
837.323	75.54
837.496	74.02
837.669	74.1
837.842	81.38
838.015	82.68
838.188	86.09
838.361	86.3
838.533	86.53
838.706	89.66
838.879	92.08
839.052	89.71
839.225	93.64
839.398	96.19
839.57	91.38
839.743	81.82
839.916	84.25
840.088	78.25
840.261	79.4
840.434	85.63
840.607	85.04
840.779	89.88
840.952	93.22
841.124	82.59
841.297	87.92
841.47	93.28
841.642	95.93
841.815	97.13
841.987	115.83
842.16	112.23
842.332	103.99
842.505	109.7
842.677	100.93
842.85	104.74
843.022	115.12
843.194	110.45
843.367	97.82
843.539	90.6
843.712	69.73
843.884	78.97
844.056	83.76
844.229	84.19
844.401	87.48
844.573	93.77
844.745	87.86
844.918	97.25
845.09	96.05
845.262	110.85
845.434	119.67
845.606	136.23
845.779	122.27
845.951	135.59
846.123	125.84
846.295	127.33
846.467	128.23
846.639	128.45
846.811	128.5
846.983	127.04
847.155	130.39
847.327	124.44
847.499	126.9
847.671	147.62
847.843	120.24
848.015	150.92
848.187	126.24
848.359	136.2
848.531	152.89
848.703	145.34
848.875	167.25
849.047	141.99
849.218	167.62
849.39	169.98
849.562	144.22
849.734	148.47
849.905	135.14
850.077	183
850.249	240.81
850.421	254.86
850.592	232.7
850.764	199.8
850.936	202.41
851.107	226.95
851.279	227.36
851.451	198.08
851.622	202.07
851.794	165.16
851.965	133.58
852.137	112.35
852.308	106.02
852.48	111.93
852.651	112.76
852.823	115.93
852.994	116.45
853.166	118.07
853.337	121.87
853.509	137.4
853.68	188.79
853.851	188.56
854.023	230.25
854.194	236.17
854.365	245.52
854.537	240.89
854.708	369.6
854.879	577.95
855.05	477.88
855.222	418.97
855.393	244.89
855.564	273.16
855.735	251.27
855.906	202.11
856.078	212.32
856.249	261.4
856.42	250.37
856.591	210.62
856.762	217.34
856.933	287.15
857.104	315.6
857.275	342.01
857.446	199.56
857.617	184.84
857.788	184.93
857.959	163.99
858.13	135.54
858.301	161.6
858.472	187.65
858.643	182.73
858.814	198.23
858.985	183.36
859.155	187.35
859.326	257.79
859.497	295.58
859.668	254.61
859.839	443.7
860.009	332.95
860.18	243.72
860.351	187.8
860.522	179.19
860.692	160.76
860.863	159.55
861.034	170.51
861.204	152.61
861.375	151.34
861.546	156.35
861.716	135.25
861.887	138.93
862.057	150.07
862.228	136.88
862.398	148.84
862.569	128.66
862.739	136.41
862.91	122.52
863.08	124.52
863.251	121.17
863.421	121.23
863.592	144.04
863.762	136.56
863.932	125.41
864.103	134.37
864.273	118.87
864.443	146.38
864.614	139.92
864.784	129.85
864.954	135.75
865.125	143.47
865.295	158.48
865.465	141.35
865.635	165.25
865.805	173.18
865.976	196.07
866.146	199.18
866.316	206.3
866.486	271.79
866.656	228.8
866.826	251.64
866.996	224.3
867.166	232.47
867.336	201.83
867.506	166.9
867.676	154.69
867.846	137.87
868.016	152.53
868.186	152.53
868.356	144.17
868.526	159.86
868.696	161.21
868.866	179.22
869.036	159.18
869.206	169.99
869.376	203.61
869.545	204.58
869.715	242.77
869.885	252.1
870.055	256.85
870.224	292.1
870.394	378.82
870.564	293.47
870.734	280.13
870.903	243.56
871.073	295.29
871.243	228.12
871.412	246.44
871.582	180.2
871.751	172.2
871.921	162.42
872.091	150.68
872.26	150.06
872.43	114.44
872.599	134.88
872.769	149.11
872.938	137.32
873.108	189.88
873.277	178.59
873.446	227.65
873.616	216.1
873.785	224.86
873.955	325.63
874.124	249.64
874.293	684.62
874.463	635.33
874.632	753.79
874.801	937.82
874.971	260.71
875.14	308.52
875.309	217.26
875.478	201.04
875.647	195.77
875.817	141.87
875.986	156.56
876.155	152.37
876.324	179.82
876.493	181.58
876.662	151.6
876.831	166.03
877	148.58
877.17	168.3
877.339	187.19
877.508	156.86
877.677	184.56
877.846	200.3
878.015	178.61
878.184	152.63
878.352	140.37
878.521	145.91
878.69	145.89
878.859	132.6
879.028	127.21
879.197	113.21
879.366	132.4
879.534	121.63
879.703	111.54
879.872	95.14
880.041	91.86
880.21	76.12
880.378	79.7
880.547	74.02
880.716	73.97
880.884	69.78
881.053	65.25
881.222	54.02
881.39	52.01
881.559	45.1
881.727	44.81
881.896	44.39
882.065	47.46
882.233	45.58
882.402	49.43
882.57	46.83
882.739	45.27
882.907	47.79
883.076	50.96
883.244	52.27
883.412	53.6
883.581	54.56
883.749	56.69
883.918	57.6
884.086	57.56
884.254	54.86
884.423	55.74
884.591	65.45
884.759	65.64
884.927	63.54
885.096	65.33
885.264	73.7
885.432	76.69
885.6	76.25
885.769	76.53
885.937	85.71
886.105	87.22
886.273	94.12
886.441	82.79
886.609	92.84
886.777	97.84
886.945	98.96
887.113	100.81
887.281	115.78
887.449	119.21
887.617	123.46
887.785	126.69
887.953	116.7
888.121	116.53
888.289	133.44
888.457	154.99
888.625	202.11
888.793	161.95
888.961	171.81
889.129	120.81
889.296	137.36
889.464	145.48
889.632	124.97
889.8	155.74
889.967	163.01
890.135	177.92
