Data from JASIL_3188_Reflection_01.txt Node
Date: Fri Nov 13 14:17:32 EST 2015
User: Geneva
Spectrometer: USB4E03002
Autoset integration time: false
Trigger mode: 4
Integration Time (sec): 1.000000E-1
Scans to average: 10
Electric dark correction enabled: false
Nonlinearity correction enabled: false
Boxcar width: 5
Stray light correction enabled: false
XAxis mode: Wavelengths
Stop averaging: false
Number of Pixels in Spectrum: 3648
>>>>>Begin Spectral Data<<<<<
177.575	188.89
177.794	182.12
178.014	168.43
178.233	171.37
178.452	162.24
178.672	160.28
178.891	156.54
179.11	165.16
179.33	154.89
179.549	151.88
179.768	162.67
179.987	152.21
180.207	151.08
180.426	158.63
180.645	168.65
180.864	167.57
181.084	179.14
181.303	180.19
181.522	172.39
181.741	184.78
181.96	179.65
182.179	161.32
182.398	181.55
182.618	173.57
182.837	165.39
183.056	157.3
183.275	157.78
183.494	155.36
183.713	159.74
183.932	152.63
184.151	149.52
184.37	143.06
184.589	148.37
184.808	151.38
185.027	164.71
185.246	173.79
185.465	179.47
185.684	180.7
185.903	163.67
186.122	159.84
186.341	160.58
186.56	158.05
186.779	161.91
186.998	155.92
187.216	143.72
187.435	128.73
187.654	128.51
187.873	119.9
188.092	116.05
188.311	112.34
188.53	109.02
188.748	109.92
188.967	113.39
189.186	111.79
189.405	115.12
189.623	111.83
189.842	130.65
190.061	119.25
190.28	116.67
190.498	125.15
190.717	128.6
190.936	124.99
191.154	128.77
191.373	135.78
191.592	136.46
191.81	135.05
192.029	137.63
192.248	127.89
192.466	137.87
192.685	145.29
192.904	148.1
193.122	153.54
193.341	156.18
193.559	148.15
193.778	144.29
193.996	142.76
194.215	141.34
194.433	145
194.652	147.88
194.87	154.63
195.089	158.42
195.307	150.56
195.526	167.53
195.744	172.32
195.963	172.94
196.181	163.08
196.399	172.82
196.618	171.61
196.836	162.66
197.055	154.49
197.273	135.54
197.491	136.86
197.71	136.6
197.928	130.18
198.146	119.83
198.365	126.4
198.583	129.21
198.801	119.5
199.019	120.32
199.238	140.09
199.456	143.35
199.674	155.88
199.892	155.47
200.111	162.75
200.329	165.46
200.547	184.75
200.765	184.93
200.983	183.12
201.202	170.73
201.42	177.23
201.638	152.82
201.856	154
202.074	156.71
202.292	142.77
202.51	134.3
202.728	128.11
202.946	123.91
203.165	124.88
203.383	125.02
203.601	132.74
203.819	147.26
204.037	151.13
204.255	148.62
204.473	142
204.691	151.03
204.909	166.72
205.127	172.03
205.345	193.35
205.562	185.08
205.78	178.01
205.998	181.09
206.216	148.44
206.434	152.13
206.652	158.7
206.87	162.38
207.088	168.72
207.306	157.29
207.523	155.46
207.741	148.11
207.959	146.49
208.177	145.84
208.395	147.16
208.612	154.76
208.83	134.49
209.048	118.37
209.266	120.68
209.483	117.7
209.701	122.61
209.919	106.27
210.136	104.54
210.354	123.92
210.572	127.71
210.79	129.15
211.007	124.03
211.225	136.02
211.442	152.65
211.66	153.99
211.878	148.75
212.095	79.25
212.313	93.78
212.53	91.34
212.748	79.98
212.966	79.93
213.183	77.8
213.401	75.27
213.618	82.55
213.836	84.09
214.053	85.99
214.271	88.22
214.488	162.92
214.705	164.21
214.923	157.16
215.14	155.11
215.358	153.98
215.575	141.68
215.793	151.88
216.01	138.92
216.227	131.41
216.445	110.31
216.662	102.49
216.879	99.12
217.097	89.85
217.314	106.83
217.531	110.22
217.749	114.8
217.966	120.78
218.183	130.81
218.4	141.86
218.618	143.35
218.835	175.58
219.052	167.58
219.269	161.76
219.487	166.3
219.704	154.39
219.921	170.81
220.138	188.28
220.355	186.24
220.572	178.65
220.79	166.12
221.007	165.54
221.224	147.59
221.441	152.65
221.658	159.26
221.875	162.66
222.092	137.25
222.309	132.61
222.526	129.32
222.743	133.82
222.96	127.4
223.177	128.07
223.394	121.08
223.611	126.18
223.828	124.91
224.045	115.44
224.262	115.29
224.479	125.83
224.696	128.82
224.913	122.48
225.13	116.92
225.347	127.88
225.564	124.44
225.781	128.98
225.997	130.1
226.214	127.23
226.431	131.23
226.648	123.79
226.865	121.42
227.082	111.58
227.298	102.94
227.515	97.83
227.732	85.49
227.949	84.6
228.165	86.83
228.382	83.53
228.599	87.13
228.816	88.28
229.032	89.57
229.249	92.27
229.466	90.97
229.682	92.76
229.899	98.17
230.116	105.27
230.332	107.06
230.549	98.55
230.765	96.98
230.982	91.39
231.199	89.3
231.415	92.22
231.632	95.97
231.848	97.46
232.065	101.62
232.281	105.09
232.498	106.55
232.714	99.71
232.931	110.19
233.147	104.8
233.364	102.28
233.58	102.02
233.797	105.32
234.013	97.42
234.23	99.44
234.446	100.25
234.662	90.62
234.879	81.97
235.095	92.01
235.312	85.56
235.528	87.31
235.744	91.58
235.961	95.62
236.177	88.34
236.393	89.93
236.61	87.64
236.826	86.08
237.042	87.32
237.258	88.08
237.475	82.44
237.691	83.19
237.907	90.58
238.123	91.56
238.339	86.94
238.556	85.47
238.772	83.62
238.988	88.57
239.204	93.02
239.42	94.87
239.636	92.7
239.853	95.8
240.069	91.46
240.285	88.43
240.501	84.12
240.717	84.91
240.933	84.41
241.149	80.57
241.365	73.64
241.581	68.21
241.797	68
242.013	68.1
242.229	67.61
242.445	67.45
242.661	68.55
242.877	73.58
243.093	74.19
243.309	75.39
243.525	78.27
243.741	80.25
243.957	82.62
244.173	78.11
244.388	77.37
244.604	74
244.82	70.64
245.036	62.32
245.252	53.2
245.468	46.89
245.683	46.61
245.899	42.86
246.115	40.85
246.331	37.98
246.547	37.48
246.762	38.11
246.978	38.47
247.194	38.47
247.409	41.44
247.625	44.51
247.841	46.43
248.057	47.17
248.272	49.27
248.488	52.66
248.703	55.93
248.919	59.01
249.135	60.72
249.35	65.15
249.566	70.5
249.782	72.22
249.997	73.06
250.213	74.03
250.428	73.99
250.644	76.26
250.859	71.35
251.075	70.63
251.29	71.96
251.506	70.17
251.721	67.92
251.937	64.55
252.152	59.85
252.368	60.93
252.583	61.26
252.798	62.85
253.014	62.41
253.229	59.87
253.445	61.71
253.66	60.83
253.875	62.17
254.091	63.56
254.306	68.68
254.521	72.55
254.737	70.94
254.952	70.29
255.167	66.51
255.383	66.99
255.598	71.74
255.813	68.59
256.028	69.67
256.244	67.53
256.459	68.45
256.674	63.05
256.889	62.15
257.104	57.58
257.32	55.66
257.535	53.63
257.75	50.36
257.965	48.48
258.18	47.15
258.395	44.77
258.61	43.43
258.826	40.16
259.041	39.35
259.256	38.61
259.471	38.62
259.686	38.21
259.901	39.97
260.116	41.05
260.331	41.11
260.546	41.99
260.761	42.37
260.976	44.09
261.191	45.98
261.406	47.92
261.621	49.56
261.836	52.4
262.05	51.47
262.265	52.65
262.48	53.46
262.695	57.5
262.91	56.12
263.125	60.08
263.34	66.59
263.555	64.47
263.769	63.71
263.984	64.63
264.199	65.36
264.414	68.82
264.629	66.46
264.843	64.82
265.058	57.84
265.273	58.72
265.488	56
265.702	50.12
265.917	49.02
266.132	52.26
266.346	51.06
266.561	50.35
266.776	49.65
266.99	53.02
267.205	53.95
267.42	55.4
267.634	54.43
267.849	51.07
268.063	52.09
268.278	53.07
268.492	51.6
268.707	51
268.922	53.24
269.136	57.2
269.351	51.83
269.565	49.3
269.78	48.85
269.994	49.28
270.209	52.59
270.423	50.39
270.637	50.68
270.852	47.5
271.066	48.28
271.281	45.39
271.495	43.46
271.709	44.93
271.924	42.84
272.138	45.18
272.353	44.89
272.567	45.64
272.781	48.58
272.996	51.53
273.21	53.8
273.424	55.22
273.638	54.82
273.853	52.59
274.067	51.44
274.281	55.37
274.495	55.07
274.71	55.36
274.924	54.65
275.138	54.23
275.352	53.65
275.566	53.53
275.781	50.45
275.995	54.45
276.209	57.86
276.423	57.87
276.637	55.69
276.851	54
277.065	55.93
277.279	53.38
277.493	51.27
277.707	48.87
277.921	46.5
278.135	47.36
278.349	45.31
278.563	42.37
278.777	43.63
278.991	41.83
279.205	42.8
279.419	40.25
279.633	40.49
279.847	39.2
280.061	39.13
280.275	40.2
280.489	40.2
280.703	37.34
280.917	37.91
281.131	37.22
281.344	37.19
281.558	38.28
281.772	38.16
281.986	40.68
282.2	44
282.414	43.21
282.627	42.33
282.841	43.61
283.055	45.41
283.269	43.07
283.482	41.76
283.696	44.15
283.91	42.21
284.123	43.08
284.337	40.73
284.551	35.64
284.764	35.87
284.978	36.47
285.192	36.07
285.405	34.98
285.619	36.6
285.833	38.13
286.046	36.07
286.26	35.7
286.473	34.68
286.687	35.45
286.9	39.99
287.114	38.73
287.327	38.13
287.541	36.66
287.754	36.8
287.968	40.77
288.181	38.67
288.395	39.17
288.608	39.95
288.822	40.22
289.035	38.35
289.248	35.78
289.462	36.71
289.675	38.09
289.889	38.91
290.102	39.42
290.315	34.96
290.529	35.13
290.742	37.4
290.955	40.54
291.169	42.11
291.382	44.38
291.595	47.18
291.808	47.45
292.022	45.23
292.235	45.41
292.448	44.89
292.661	44.41
292.875	45.98
293.088	44.2
293.301	41.56
293.514	38.67
293.727	38.86
293.94	38.54
294.153	39.2
294.367	38.65
294.58	36.65
294.793	37.64
295.006	37.57
295.219	36.59
295.432	35.71
295.645	34.35
295.858	34.12
296.071	31.82
296.284	29.2
296.497	30.13
296.71	30.39
296.923	31.54
297.136	27.32
297.349	26.72
297.562	27.15
297.775	27.48
297.988	26.72
298.201	27.37
298.414	27.45
298.626	30.99
298.839	28.84
299.052	30.25
299.265	32.52
299.478	37.78
299.691	39.58
299.903	40.12
300.116	39.33
300.329	41.38
300.542	42.38
300.755	44.82
300.967	44.95
301.18	45.15
301.393	45.79
301.605	42.23
301.818	42.01
302.031	41.38
302.243	39.26
302.456	40.28
302.669	40.48
302.881	40.21
303.094	40.69
303.307	41.21
303.519	44.23
303.732	44.74
303.944	45.88
304.157	47.37
304.37	47.96
304.582	49.25
304.795	49.11
305.007	47.78
305.22	48.15
305.432	47.03
305.645	44.99
305.857	42.63
306.069	41.35
306.282	42.4
306.494	40.98
306.707	42.56
306.919	42.65
307.132	42.94
307.344	42.92
307.556	42.41
307.769	42.08
307.981	44.54
308.193	43.56
308.406	43.41
308.618	43
308.83	40.53
309.043	38.57
309.255	37.24
309.467	37.13
309.679	37.24
309.892	36.88
310.104	36.52
310.316	33.97
310.528	34.17
310.74	34.62
310.953	34.82
311.165	36.52
311.377	36.26
311.589	36.82
311.801	36.46
312.013	41.33
312.225	39.92
312.437	40.36
312.649	41.95
312.862	41.81
313.074	41.64
313.286	42.73
313.498	41.59
313.71	41.84
313.922	40.98
314.134	41.92
314.346	37.84
314.558	40.79
314.77	41.43
314.982	41.5
315.193	41.83
315.405	42.29
315.617	39.97
315.829	39.79
316.041	41.35
316.253	43.76
316.465	43
316.677	43.36
316.888	44.61
317.1	43.71
317.312	44.14
317.524	45.15
317.736	45.11
317.947	48.04
318.159	50.68
318.371	47.22
318.583	47.41
318.794	47.01
319.006	45.47
319.218	42.76
319.43	46.34
319.641	46.29
319.853	46.97
320.064	47.06
320.276	45.44
320.488	43.71
320.699	45.55
320.911	43.82
321.123	44.94
321.334	45.15
321.546	46.27
321.757	44.89
321.969	43.72
322.18	42.18
322.392	42.15
322.603	41.89
322.815	43.3
323.026	45.62
323.238	46.11
323.449	46.87
323.661	46.18
323.872	46.96
324.083	45.23
324.295	45.38
324.506	46.92
324.718	47.39
324.929	45.74
325.14	46.97
325.352	43.83
325.563	43.66
325.774	44.78
325.986	45.04
326.197	44.43
326.408	45.2
326.62	46.76
326.831	46.53
327.042	45.83
327.253	48.01
327.464	47.18
327.676	47.54
327.887	47.23
328.098	45.78
328.309	45.74
328.52	44.79
328.732	43.48
328.943	44.19
329.154	44.64
329.365	44.99
329.576	44.58
329.787	45.09
329.998	47.18
330.209	47.49
330.42	48.14
330.631	48.37
330.842	47.93
331.053	48.75
331.264	46.32
331.475	44.51
331.686	44.9
331.897	45.15
332.108	43.93
332.319	44.21
332.53	43.3
332.741	42.44
332.952	42.62
333.163	43.94
333.374	43.2
333.585	42.93
333.795	45.88
334.006	46.37
334.217	43.92
334.428	44.79
334.639	44.91
334.849	45.67
335.06	46.31
335.271	47.72
335.482	46.8
335.692	44.56
335.903	46.42
336.114	42.97
336.325	41.38
336.535	43.67
336.746	42.39
336.957	42.19
337.167	42.4
337.378	40.93
337.589	41.77
337.799	41.29
338.01	43.33
338.22	42.17
338.431	43.91
338.642	46.55
338.852	44.74
339.063	45.11
339.273	45.87
339.484	45.87
339.694	47.23
339.905	44.98
340.115	45.73
340.326	45.47
340.536	44.44
340.746	43.27
340.957	41.04
341.167	42.23
341.378	43.42
341.588	42.3
341.799	42.27
342.009	41.65
342.219	41.92
342.43	42.66
342.64	41.74
342.85	42.85
343.061	41.72
343.271	42.14
343.481	40.7
343.691	38.54
343.902	37.15
344.112	35.97
344.322	35.62
344.532	34.48
344.743	34.24
344.953	34.65
345.163	34.79
345.373	35.51
345.583	35.82
345.793	36.71
346.004	38.2
346.214	38.75
346.424	39.69
346.634	39.83
346.844	40.85
347.054	40.05
347.264	42.27
347.474	40.43
347.684	40.95
347.894	40.43
348.104	41.99
348.314	40.16
348.524	39.13
348.734	39.34
348.944	38.76
349.154	38.1
349.364	38.24
349.574	35.09
349.784	38.88
349.994	39.22
350.204	39.73
350.413	38.55
350.623	39.01
350.833	39.97
351.043	38.86
351.253	39.71
351.463	40.84
351.672	39.94
351.882	41.31
352.092	39.7
352.302	38.24
352.511	37.61
352.721	37.37
352.931	37.45
353.141	36.78
353.35	37.9
353.56	37.07
353.77	37.77
353.979	37.69
354.189	37.39
354.399	36.74
354.608	37.21
354.818	37.16
355.027	37.57
355.237	37.53
355.447	38.09
355.656	37.08
355.866	36.46
356.075	35.44
356.285	35.95
356.494	36.89
356.704	37.69
356.913	37.88
357.123	35.86
357.332	35.28
357.542	34.97
357.751	35.07
357.96	35.38
358.17	34.92
358.379	34.62
358.589	34.75
358.798	32.17
359.007	30.62
359.217	30.05
359.426	30.99
359.635	30.22
359.845	29.69
360.054	28.64
360.263	27.95
360.472	28.98
360.682	29.1
360.891	27.97
361.1	29.21
361.309	30.21
361.519	30.3
361.728	30.2
361.937	31.07
362.146	32.04
362.355	32.37
362.564	32.49
362.774	32.53
362.983	31.44
363.192	32.35
363.401	33.29
363.61	31.48
363.819	31.99
364.028	32.75
364.237	32.49
364.446	32.44
364.655	32.44
364.864	34.08
365.073	34.56
365.282	36.11
365.491	36.6
365.7	34.72
365.909	36.55
366.118	36.36
366.327	36.47
366.536	36.53
366.745	35.44
366.954	36.37
367.162	35.25
367.371	34.97
367.58	36.12
367.789	35.32
367.998	37.02
368.207	36.17
368.415	35.79
368.624	35.18
368.833	34.5
369.042	35.69
369.25	35.14
369.459	35.57
369.668	35.4
369.877	33.44
370.085	32.56
370.294	30.51
370.503	30.49
370.711	30.58
370.92	31.2
371.129	31.55
371.337	30.39
371.546	29.86
371.754	28.61
371.963	28.12
372.171	28.13
372.38	28.25
372.589	29.87
372.797	28.59
373.006	29.55
373.214	28.72
373.423	28.81
373.631	29.31
373.84	29.95
374.048	30.84
374.256	30.22
374.465	31.57
374.673	33.09
374.882	34.01
375.09	35.11
375.298	34.57
375.507	34.35
375.715	34.63
375.923	34.29
376.132	34.33
376.34	35.38
376.548	35.66
376.757	33.94
376.965	32.12
377.173	29.72
377.381	29.94
377.59	30.01
377.798	29.75
378.006	29.33
378.214	30.25
378.423	29.21
378.631	27.78
378.839	27.71
379.047	28.52
379.255	29.3
379.463	30.03
379.671	31.49
379.879	30.78
380.088	31.74
380.296	30.91
380.504	30.84
380.712	31.02
380.92	32.22
381.128	32.34
381.336	32.54
381.544	32.24
381.752	33.14
381.96	31.34
382.168	33.14
382.376	31.64
382.584	33.23
382.791	32.16
382.999	31.55
383.207	30.15
383.415	31.25
383.623	30.39
383.831	31.08
384.039	31.11
384.247	30.88
384.454	29.21
384.662	30.44
384.87	28.81
385.078	29.33
385.285	30.36
385.493	30.85
385.701	30.43
385.909	31.28
386.116	31.35
386.324	31.44
386.532	32.52
386.739	32.48
386.947	32.22
387.155	33.73
387.362	35.01
387.57	34.39
387.778	33.5
387.985	32.24
388.193	32.82
388.4	32.04
388.608	31.13
388.816	30.29
389.023	30.24
389.231	30.18
389.438	29.38
389.646	28.56
389.853	28.7
390.061	29.53
390.268	29.71
390.475	28.75
390.683	29.44
390.89	29.59
391.098	29.64
391.305	29.96
391.512	30.39
391.72	30.73
391.927	30.07
392.135	29.94
392.342	29.67
392.549	30.52
392.756	29.98
392.964	29.59
393.171	29.61
393.378	29.97
393.586	29.33
393.793	28.44
394	27.48
394.207	28.13
394.414	28.62
394.622	28.98
394.829	28.35
395.036	28.94
395.243	29.32
395.45	29.52
395.657	29.32
395.864	30.91
396.072	30.62
396.279	31.5
396.486	30.92
396.693	30.64
396.9	30.78
397.107	30.75
397.314	30.68
397.521	30.4
397.728	29.62
397.935	29.1
398.142	27.62
398.349	28.07
398.556	28.24
398.763	29.47
398.97	29.97
399.177	29.6
399.383	29.1
399.59	28.83
399.797	29.44
400.004	30.68
400.211	31.27
400.418	32.34
400.625	33.52
400.831	33.1
401.038	31.78
401.245	31.16
401.452	31.35
401.658	31.79
401.865	32.48
402.072	31.98
402.279	31.65
402.485	30.6
402.692	29.55
402.899	29.67
403.105	29.7
403.312	31.29
403.519	32.18
403.725	31.93
403.932	32.19
404.138	31.57
404.345	31.14
404.552	31.14
404.758	31.51
404.965	31.52
405.171	31.39
405.378	31.25
405.584	30.05
405.791	28.91
405.997	28.7
406.204	29.27
406.41	29.37
406.617	29.49
406.823	29.04
407.029	29.4
407.236	29.53
407.442	28.81
407.649	29.44
407.855	29.39
408.061	29.36
408.268	29.61
408.474	29.68
408.68	30.45
408.887	31.5
409.093	31.71
409.299	31.77
409.505	31.46
409.712	31.7
409.918	30.82
410.124	31.23
410.33	32.17
410.537	32.7
410.743	32.5
410.949	32.12
411.155	30.71
411.361	30.88
411.567	30.73
411.773	31.08
411.98	31.34
412.186	32.07
412.392	31.7
412.598	31.51
412.804	32.26
413.01	31.61
413.216	31.53
413.422	32.29
413.628	31.18
413.834	31.14
414.04	30.76
414.246	31.07
414.452	30.61
414.658	31.09
414.864	30.38
415.07	29.66
415.275	29.44
415.481	29.49
415.687	29.23
415.893	29.36
416.099	29.78
416.305	29.83
416.511	29.08
416.716	28.85
416.922	28.14
417.128	28.13
417.334	27.17
417.539	27.19
417.745	26.85
417.951	25.93
418.157	25.67
418.362	24.73
418.568	24.02
418.774	23.21
418.979	23.13
419.185	22.87
419.391	22.78
419.596	23.21
419.802	22.96
420.008	22.26
420.213	23.04
420.419	23.2
420.624	23.07
420.83	23.56
421.035	24.06
421.241	24.09
421.446	23.82
421.652	23.94
421.857	23.75
422.063	23.8
422.268	24.56
422.474	23.96
422.679	23.88
422.885	24.32
423.09	24.19
423.295	23.85
423.501	23.93
423.706	24.07
423.911	23.43
424.117	23.11
424.322	23.06
424.527	22.99
424.733	23.39
424.938	23.58
425.143	23.75
425.349	23.83
425.554	24.06
425.759	24.55
425.964	24.76
426.169	25.21
426.375	26.09
426.58	26.74
426.785	26.61
426.99	26.93
427.195	27.39
427.4	27.63
427.605	27.96
427.811	28.75
428.016	27.91
428.221	28.11
428.426	27.95
428.631	27.95
428.836	27.73
429.041	28.17
429.246	27.95
429.451	28.15
429.656	28.15
429.861	28.05
430.066	28.62
430.271	29.87
430.476	30.45
430.681	31.42
430.886	30.93
431.09	30.8
431.295	30.37
431.5	29.73
431.705	29.14
431.91	28.34
432.115	28.59
432.32	27.2
432.524	26.1
432.729	25.95
432.934	25.28
433.139	25.47
433.343	25.11
433.548	24.74
433.753	25.1
433.958	24.63
434.162	24.51
434.367	23.78
434.572	24
434.776	23.72
434.981	22.8
435.186	23.09
435.39	22.62
435.595	23.08
435.799	23.61
436.004	23.69
436.209	24.34
436.413	24.49
436.618	24.58
436.822	24.7
437.027	24.46
437.231	24.98
437.436	24.46
437.64	24.29
437.845	23.92
438.049	23.76
438.253	23.97
438.458	23.92
438.662	23.94
438.867	24.13
439.071	24.1
439.275	24.23
439.48	23.83
439.684	23.98
439.888	24.27
440.093	24.19
440.297	24.04
440.501	23.93
440.706	23.55
440.91	23.54
441.114	23.45
441.318	23.4
441.523	23.83
441.727	24.21
441.931	24.7
442.135	24.26
442.339	24.66
442.543	25.25
442.748	24.99
442.952	25.12
443.156	25.02
443.36	25.2
443.564	25.08
443.768	25.03
443.972	25.4
444.176	24.22
444.38	24.62
444.584	24.48
444.788	23.57
444.992	23.98
445.196	23.76
445.4	23.46
445.604	23.14
445.808	22.84
446.012	22.96
446.216	22.4
446.42	22.93
446.624	23.11
446.828	23
447.032	23.43
447.235	23.03
447.439	22.89
447.643	23.31
447.847	23.6
448.051	24.42
448.254	24.64
448.458	25.12
448.662	25.38
448.866	25.12
449.069	25.26
449.273	25.64
449.477	25.6
449.681	26.07
449.884	26.2
450.088	26.35
450.292	25.95
450.495	25.96
450.699	25.99
450.902	25.96
451.106	26.06
451.31	26.53
451.513	26.06
451.717	25.93
451.92	26.03
452.124	26.01
452.327	26.41
452.531	25.68
452.734	25.57
452.938	25.41
453.141	25.58
453.345	25.46
453.548	25
453.752	25.2
453.955	25.4
454.158	25.81
454.362	25.87
454.565	25.55
454.769	26.33
454.972	25.87
455.175	25.84
455.379	25.9
455.582	26.17
455.785	25.93
455.988	26.36
456.192	27
456.395	25.93
456.598	26.79
456.801	26.29
457.005	25.81
457.208	26.13
457.411	25.95
457.614	24.99
457.817	24.9
458.021	24.47
458.224	24.36
458.427	23.95
458.63	24.18
458.833	23.04
459.036	22.98
459.239	23.13
459.442	22.88
459.645	22.88
459.848	23.34
460.051	23.36
460.254	23.64
460.457	23.19
460.66	23.41
460.863	23.68
461.066	24.23
461.269	24.51
461.472	24.56
461.675	24.75
461.878	25
462.081	25.1
462.284	24.97
462.486	25.08
462.689	24.9
462.892	24.76
463.095	24.62
463.298	25.03
463.5	25.13
463.703	25.93
463.906	25.99
464.109	25.87
464.311	25.92
464.514	26.21
464.717	26.55
464.92	26.7
465.122	26.32
465.325	26.88
465.528	26.5
465.73	26.33
465.933	25.88
466.135	25.6
466.338	25.8
466.541	25.83
466.743	25.75
466.946	25.7
467.148	25.61
467.351	25.8
467.553	25.49
467.756	25.61
467.958	25.19
468.161	25.27
468.363	25.37
468.566	25.25
468.768	25.02
468.971	25.63
469.173	25.56
469.375	25.59
469.578	25.86
469.78	25.46
469.983	25.58
470.185	26.4
470.387	26.4
470.59	26.95
470.792	27.32
470.994	27.6
471.196	27.2
471.399	28
471.601	28.05
471.803	27.4
472.005	27.68
472.208	27
472.41	26.84
472.612	26.88
472.814	26.07
473.016	25.76
473.218	25.75
473.421	25.37
473.623	24.6
473.825	25.23
474.027	25.64
474.229	25.99
474.431	26.93
474.633	26.85
474.835	27.49
475.037	27.68
475.239	27.62
475.441	27.92
475.643	28.48
475.845	28.22
476.047	27.75
476.249	28.16
476.451	28.16
476.653	28.08
476.855	27.88
477.057	27.66
477.258	28.02
477.46	27.82
477.662	27.63
477.864	27.25
478.066	27.25
478.268	27.52
478.469	26.76
478.671	26.08
478.873	25.62
479.075	25.44
479.276	24.77
479.478	24.07
479.68	23.69
479.882	23.48
480.083	23.25
480.285	23.32
480.487	23.02
480.688	22.78
480.89	23.05
481.091	22.64
481.293	22.5
481.495	22.07
481.696	21.66
481.898	21.39
482.099	20.8
482.301	20.32
482.502	20.04
482.704	19.69
482.905	19.63
483.107	19.18
483.308	18.98
483.51	18.72
483.711	18.58
483.913	18.62
484.114	18.6
484.315	18.57
484.517	18.66
484.718	18.66
484.92	18.75
485.121	18.61
485.322	18.76
485.524	19
485.725	19.12
485.926	19.35
486.127	19.53
486.329	19.55
486.53	19.5
486.731	19.54
486.932	19.34
487.134	19.34
487.335	19.64
487.536	19.76
487.737	19.86
487.938	20.03
488.139	20.11
488.341	20.2
488.542	20.39
488.743	20.78
488.944	20.94
489.145	21.26
489.346	21.6
489.547	21.56
489.748	21.62
489.949	21.74
490.15	21.71
490.351	21.34
490.552	21.31
490.753	21.12
490.954	20.91
491.155	20.81
491.356	20.72
491.557	20.8
491.758	20.82
491.959	20.8
492.159	20.68
492.36	20.88
492.561	21.33
492.762	21.72
492.963	22.4
493.164	23.13
493.364	23.71
493.565	24.25
493.766	24.79
493.967	25.17
494.167	25.54
494.368	25.74
494.569	25.6
494.769	26.02
494.97	26.07
495.171	25.91
495.371	25.46
495.572	24.79
495.773	24.41
495.973	23.79
496.174	23.64
496.375	23.69
496.575	24.08
496.776	24.34
496.976	23.67
497.177	23.42
497.377	23.16
497.578	23.2
497.778	23.48
497.979	23.89
498.179	23.92
498.38	23.97
498.58	23.71
498.78	23.63
498.981	23.77
499.181	24.48
499.382	24.54
499.582	24.99
499.782	25.21
499.983	25.86
500.183	25.92
500.383	26.16
500.584	26.02
500.784	26.26
500.984	26.13
501.184	25.76
501.385	25.89
501.585	25.86
501.785	25.92
501.985	26.01
502.185	25.72
502.386	26.03
502.586	25.48
502.786	25.84
502.986	25.7
503.186	25.49
503.386	25.97
503.586	25.88
503.786	25.79
503.987	25.55
504.187	25.5
504.387	25.7
504.587	25.5
504.787	25.93
504.987	26.43
505.187	26.62
505.387	26.88
505.587	27.06
505.786	27
505.986	27
506.186	27.05
506.386	27.39
506.586	27.42
506.786	27.45
506.986	27.73
507.186	26.95
507.386	27.32
507.585	27.43
507.785	26.91
507.985	26.69
508.185	26.62
508.384	27.05
508.584	26.7
508.784	26.8
508.984	26.93
509.183	26.79
509.383	27.32
509.583	27.2
509.782	27.27
509.982	27.7
510.182	27.63
510.381	27.6
510.581	27.26
510.781	27.55
510.98	27.27
511.18	26.99
511.379	26.58
511.579	25.78
511.778	25.37
511.978	25.27
512.177	24.78
512.377	24.71
512.576	25.32
512.776	25.34
512.975	24.92
513.175	25.22
513.374	25.5
513.573	26.2
513.773	26.64
513.972	27.52
514.172	27.47
514.371	27.91
514.57	28.59
514.77	28.72
514.969	28.43
515.168	29.27
515.367	29
515.567	28.79
515.766	28.45
515.965	28.55
516.164	27.93
516.364	27.53
516.563	27.07
516.762	26.6
516.961	26
517.16	25.64
517.359	25.12
517.559	24.88
517.758	24.78
517.957	24.64
518.156	24.73
518.355	24.78
518.554	25.04
518.753	25.08
518.952	25.3
519.151	25.7
519.35	26.12
519.549	26.46
519.748	27.05
519.947	27.43
520.146	27.69
520.345	27.57
520.544	27.7
520.743	28.13
520.942	28.41
521.141	28.21
521.339	28.2
521.538	28.18
521.737	27.85
521.936	27.69
522.135	27.24
522.333	27.4
522.532	27.59
522.731	26.98
522.93	26.75
523.129	26.65
523.327	26.74
523.526	26.53
523.725	26.73
523.923	26.54
524.122	26.42
524.321	26.5
524.519	26.56
524.718	26.25
524.917	26.8
525.115	26.55
525.314	26.64
525.512	26.7
525.711	26.37
525.909	25.94
526.108	25.73
526.306	25.46
526.505	25.28
526.703	24.89
526.902	24.51
527.1	23.93
527.299	23.7
527.497	23.25
527.696	22.69
527.894	22.53
528.092	22.46
528.291	22.42
528.489	22.4
528.688	22.43
528.886	22.59
529.084	22.97
529.283	23.1
529.481	23.42
529.679	23.89
529.877	24.54
530.076	24.95
530.274	25.31
530.472	25.6
530.67	25.66
530.869	25.49
531.067	25.52
531.265	25.43
531.463	25.53
531.661	25.15
531.859	24.76
532.057	24.44
532.255	24.48
532.454	24.51
532.652	24.44
532.85	24.61
533.048	24.87
533.246	24.61
533.444	24.77
533.642	25.16
533.84	25.57
534.038	25.73
534.236	26.03
534.434	26.47
534.632	26.63
534.83	26.93
535.027	26.82
535.225	26.92
535.423	26.93
535.621	26.75
535.819	26.06
536.017	26.02
536.215	26.48
536.412	26.49
536.61	26.26
536.808	26.77
537.006	26.99
537.203	27.59
537.401	27.7
537.599	28.39
537.797	28.95
537.994	29.67
538.192	29.78
538.39	29.68
538.587	29.38
538.785	29.38
538.983	28.92
539.18	28.78
539.378	28.02
539.575	27.77
539.773	27.26
539.97	26.74
540.168	26.51
540.366	26.39
540.563	26.32
540.761	26.46
540.958	26.42
541.155	26.21
541.353	26.17
541.55	26.29
541.748	26.42
541.945	26.4
542.143	26.58
542.34	26.8
542.537	26.98
542.735	27.07
542.932	27.28
543.129	27.45
543.327	27.81
543.524	28.12
543.721	28.22
543.919	28.37
544.116	28.92
544.313	28.75
544.51	28.69
544.708	28.63
544.905	28.79
545.102	28.94
545.299	28.63
545.496	28.29
545.693	27.83
545.891	28.4
546.088	28.57
546.285	28.59
546.482	29.4
546.679	29.81
546.876	30.11
547.073	30.62
547.27	30.52
547.467	31.09
547.664	31.42
547.861	32.01
548.058	32.03
548.255	32.41
548.452	32.65
548.649	32.95
548.846	32.72
549.043	33.09
549.24	32.72
549.437	33.39
549.633	33.28
549.83	33.85
550.027	34.09
550.224	34.36
550.421	33.9
550.618	34.35
550.814	33.66
551.011	33.67
551.208	33.45
551.405	33.39
551.601	32.71
551.798	32.94
551.995	32.88
552.191	32.65
552.388	32.47
552.585	32.99
552.781	32.81
552.978	33.38
553.175	33.85
553.371	34.13
553.568	34.7
553.764	35.59
553.961	35.96
554.157	36.3
554.354	36.61
554.55	36.45
554.747	36.24
554.943	36.78
555.14	36.5
555.336	36.64
555.533	36.38
555.729	36.77
555.926	36.66
556.122	36.46
556.318	36.2
556.515	36.33
556.711	36.8
556.907	37.71
557.104	37.75
557.3	38.29
557.496	38.5
557.693	38.99
557.889	38.58
558.085	38.75
558.281	39.19
558.478	39.62
558.674	39.57
558.87	39.4
559.066	38.41
559.262	38.2
559.459	38.04
559.655	37.7
559.851	37.01
560.047	37.1
560.243	37.21
560.439	37.08
560.635	36.78
560.831	36.64
561.027	36.74
561.223	36.99
561.419	36.81
561.615	36.48
561.811	36.89
562.007	37.19
562.203	37.25
562.399	37.04
562.595	37.52
562.791	37.91
562.987	38.26
563.183	38.23
563.379	38.39
563.575	38.66
563.771	38.65
563.966	37.78
564.162	38.34
564.358	38.46
564.554	38.28
564.75	37.36
564.945	36.9
565.141	36.59
565.337	36.59
565.533	36.59
565.728	35.71
565.924	35.96
566.12	36.44
566.315	36.01
566.511	35.81
566.707	35.8
566.902	36.1
567.098	36.7
567.293	37.39
567.489	37.7
567.684	38.07
567.88	38.53
568.076	38.47
568.271	38.53
568.467	39.41
568.662	38.9
568.858	39.33
569.053	39.68
569.248	39.34
569.444	38.52
569.639	38.14
569.835	37.75
570.03	38.18
570.225	38.33
570.421	38.46
570.616	37.65
570.812	37.62
571.007	37.22
571.202	36.32
571.397	36.28
571.593	36.34
571.788	36.22
571.983	36.21
572.178	36.06
572.374	36.15
572.569	35.73
572.764	36.11
572.959	36.38
573.154	36.39
573.35	36.73
573.545	37.25
573.74	37.68
573.935	37.88
574.13	37.88
574.325	37.82
574.52	37.36
574.715	37.88
574.91	37.39
575.105	37.61
575.3	38.49
575.495	39.1
575.69	38.99
575.885	38.78
576.08	38.75
576.275	39.24
576.47	39.64
576.665	40.22
576.86	40.71
577.055	41.04
577.25	40.86
577.444	40.64
577.639	41.11
577.834	41.22
578.029	41.82
578.224	42.65
578.418	42.96
578.613	42.61
578.808	42.47
579.003	42.11
579.197	42.31
579.392	43.04
579.587	42.46
579.781	42.69
579.976	43.54
580.171	43.3
580.365	43.33
580.56	43.38
580.755	43.56
580.949	43.78
581.144	43.63
581.338	43.71
581.533	43.33
581.727	44.3
581.922	43.52
582.116	43.32
582.311	43.79
582.505	43.66
582.7	43.53
582.894	43.58
583.089	43.73
583.283	44.76
583.478	44.98
583.672	45.01
583.866	44.26
584.061	44.77
584.255	44.14
584.449	44.35
584.644	44.16
584.838	44.63
585.032	44.68
585.226	44.65
585.421	44.55
585.615	44.13
585.809	44.57
586.003	44.74
586.198	44.41
586.392	44.99
586.586	45.3
586.78	45.51
586.974	45.15
587.168	45.08
587.363	45.17
587.557	44.67
587.751	45.25
587.945	44.43
588.139	44.47
588.333	44.19
588.527	43.67
588.721	42.53
588.915	42.92
589.109	42.54
589.303	42.62
589.497	42.83
589.691	42.8
589.885	42.64
590.079	44.09
590.273	43.89
590.466	44.36
590.66	44.21
590.854	45.19
591.048	44.99
591.242	44.93
591.436	45.41
591.629	45.71
591.823	45.36
592.017	45.15
592.211	44.77
592.404	45.48
592.598	45.7
592.792	45.24
592.986	45.1
593.179	45.33
593.373	45.45
593.567	45.09
593.76	44.67
593.954	43.8
594.147	44.52
594.341	44.27
594.535	44.12
594.728	43.5
594.922	43.58
595.115	42.7
595.309	42.19
595.502	42.45
595.696	42.28
595.889	41.88
596.083	42.55
596.276	41.98
596.47	42.29
596.663	42.04
596.856	41.7
597.05	41.96
597.243	42.23
597.437	42.43
597.63	42.97
597.823	43.55
598.017	43.91
598.21	44.26
598.403	45.01
598.596	44.83
598.79	45.12
598.983	45.46
599.176	46.35
599.369	47.05
599.563	47.14
599.756	46.46
599.949	46.54
600.142	47.24
600.335	46.92
600.528	46.81
600.722	47.15
600.915	47.44
601.108	48.31
601.301	47.67
601.494	47.36
601.687	46.53
601.88	45.99
602.073	45.89
602.266	45.16
602.459	45.71
602.652	44.92
602.845	44.12
603.038	43.81
603.231	43.53
603.424	43.64
603.617	43.18
603.809	43.45
604.002	43.74
604.195	43.21
604.388	43.71
604.581	43.93
604.774	44.88
604.966	44.78
605.159	44.79
605.352	44.91
605.545	44.73
605.737	45.63
605.93	46.08
606.123	46.56
606.316	47.42
606.508	47.37
606.701	46.67
606.894	45.67
607.086	45.91
607.279	46.07
607.471	45.89
607.664	45.95
607.857	44.74
608.049	44.23
608.242	43.83
608.434	43.14
608.627	42.72
608.819	42.66
609.012	42.57
609.204	43.17
609.397	42.95
609.589	43.35
609.782	43.56
609.974	44.42
610.166	44.77
610.359	44.81
610.551	44.93
610.743	45.62
610.936	46.24
611.128	47.23
611.32	47.75
611.513	47.74
611.705	48.2
611.897	48.19
612.09	48.73
612.282	49.66
612.474	51.02
612.666	51.55
612.858	51.54
613.051	51.83
613.243	52.02
613.435	52.16
613.627	51.75
613.819	51.6
614.011	53.34
614.203	52.35
614.395	51.79
614.588	50.2
614.78	50.8
614.972	51.48
615.164	51.37
615.356	51.18
615.548	50.52
615.74	52.11
615.932	51.88
616.124	50.6
616.315	51.62
616.507	52.51
616.699	53.48
616.891	52.66
617.083	51.79
617.275	51.19
617.467	51.41
617.659	51.07
617.85	50.93
618.042	50.24
618.234	50.11
618.426	50.18
618.618	50.68
618.809	50.78
619.001	51.21
619.193	52.88
619.384	53.44
619.576	52.84
619.768	53.32
619.959	53.68
620.151	54.8
620.343	54.81
620.534	54.95
620.726	54.7
620.917	55.31
621.109	55.14
621.301	53.94
621.492	53.52
621.684	54.09
621.875	54.9
622.067	54.36
622.258	53.86
622.45	53.84
622.641	53.63
622.832	52.87
623.024	51.94
623.215	51.98
623.407	52.42
623.598	52.8
623.789	51.96
623.981	51.54
624.172	51.47
624.363	50.99
624.555	51.51
624.746	51.35
624.937	51.52
625.129	51.78
625.32	52.21
625.511	52.02
625.702	51.64
625.893	52.06
626.085	50.75
626.276	49.95
626.467	50.3
626.658	49.84
626.849	50.11
627.04	49.75
627.231	49.27
627.422	49.45
627.614	49.37
627.805	50.17
627.996	50.5
628.187	51.43
628.378	52.19
628.569	52.49
628.76	52.59
628.951	52.02
629.142	51.86
629.332	52.64
629.523	52.06
629.714	52.16
629.905	51.49
630.096	51.71
630.287	51.79
630.478	51.71
630.669	51.42
630.859	52.04
631.05	52.81
631.241	52.86
631.432	52.94
631.623	53.89
631.813	53.06
632.004	53.45
632.195	53.03
632.385	53.62
632.576	53.11
632.767	53.8
632.957	53.6
633.148	53.23
633.339	54.03
633.529	53.84
633.72	53.36
633.91	53.84
634.101	54.44
634.292	54.24
634.482	54.57
634.673	55.62
634.863	55.54
635.054	55.69
635.244	56.52
635.435	55.99
635.625	55.56
635.815	54.84
636.006	55.29
636.196	55.5
636.387	56.27
636.577	55.12
636.767	55.58
636.958	55.56
637.148	55.14
637.338	54.29
637.529	54.23
637.719	55.23
637.909	56.67
638.099	55.47
638.29	55.4
638.48	54.14
638.67	55.05
638.86	54.14
639.05	53.82
639.241	54.75
639.431	55.14
639.621	55.8
639.811	55.4
640.001	55.14
640.191	55.57
640.381	54.19
640.571	55.97
640.761	55.02
640.951	55.76
641.141	56.41
641.331	55.66
641.521	55.88
641.711	55.4
641.901	55.41
642.091	56.12
642.281	57.07
642.471	57.83
642.661	57.74
642.851	58.71
643.041	58.25
643.231	57.05
643.42	57.27
643.61	57.38
643.8	58.13
643.99	57.67
644.18	57.14
644.369	55.93
644.559	56.64
644.749	56.12
644.939	56.05
645.128	56.67
645.318	58.03
645.508	57.99
645.697	57.75
645.887	57.29
646.076	56.99
646.266	56.95
646.456	57.62
646.645	57.08
646.835	57.39
647.024	57.63
647.214	57.32
647.403	56.36
647.593	55.79
647.782	55.57
647.972	56.27
648.161	56.89
648.351	55.66
648.54	56.03
648.73	55.98
648.919	54.89
649.108	53.98
649.298	53.82
649.487	54.77
649.677	55.46
649.866	54.97
650.055	54.24
650.244	53.87
650.434	54.86
650.623	54.86
650.812	55.93
651.002	56.64
651.191	57.78
651.38	58.26
651.569	57.82
651.758	57.66
651.947	58.52
652.137	59.08
652.326	59.8
652.515	60.24
652.704	60.45
652.893	59.48
653.082	59.7
653.271	59.04
653.46	57.68
653.649	57.54
653.838	57.92
654.027	57.86
654.216	57.78
654.405	57.62
654.594	56.88
654.783	56.09
654.972	55.12
655.161	54.21
655.35	55.05
655.539	55.62
655.728	55.89
655.916	55.71
656.105	55.5
656.294	55.96
656.483	55.89
656.672	56.51
656.86	56.9
657.049	58.33
657.238	58.58
657.427	58.53
657.615	59.08
657.804	57.82
657.993	57.13
658.181	57.02
658.37	56.11
658.559	55.4
658.747	55.08
658.936	54.96
659.125	54.94
659.313	55.08
659.502	54.77
659.69	53.82
659.879	55.33
660.067	56.35
660.256	55.56
660.444	55.62
660.633	56.06
660.821	56.51
661.01	55.82
661.198	55.49
661.387	55.85
661.575	55.9
661.763	57.12
661.952	55.91
662.14	56.08
662.328	56.67
662.517	57.25
662.705	57.8
662.893	57.51
663.082	58.47
663.27	58.46
663.458	58.94
663.646	58.91
663.834	59.25
664.023	60.73
664.211	60.82
664.399	61.89
664.587	61.78
664.775	61.87
664.963	63.09
665.152	63.36
665.34	62.76
665.528	63.87
665.716	64.49
665.904	64.17
666.092	63.73
666.28	63.66
666.468	63.5
666.656	64.48
666.844	65.26
667.032	64.05
667.22	64.22
667.408	65.97
667.596	64.03
667.784	63.84
667.971	63.99
668.159	63.96
668.347	64.87
668.535	64.13
668.723	63.21
668.911	62.48
669.098	62.56
669.286	62.7
669.474	60.26
669.662	60.47
669.849	61.01
670.037	61.41
670.225	62.49
670.413	61.84
670.6	61.98
670.788	62.3
670.976	62.28
671.163	61.8
671.351	61.59
671.538	62.86
671.726	63.21
671.913	62.19
672.101	61.72
672.289	60.24
672.476	59.71
672.664	61.05
672.851	61.26
673.039	61.32
673.226	62.71
673.413	62.23
673.601	61.27
673.788	61.48
673.976	61.86
674.163	61.5
674.35	63.08
674.538	62.98
674.725	62.52
674.912	62.36
675.1	63.07
675.287	63.1
675.474	63.69
675.662	64.93
675.849	65.6
676.036	65.67
676.223	66.42
676.411	65.07
676.598	65.17
676.785	65.48
676.972	65.26
677.159	63.87
677.346	63.32
677.533	62.6
677.721	62.27
677.908	60.26
678.095	59.56
678.282	59.47
678.469	58.78
678.656	58.88
678.843	58.09
679.03	57.28
679.217	57.77
679.404	57.24
679.591	57.46
679.778	57.73
679.964	57.8
680.151	58.6
680.338	57.41
680.525	58.08
680.712	58.02
680.899	58.81
681.086	58.6
681.272	59.06
681.459	59.43
681.646	59.62
681.833	59.58
682.02	60.73
682.206	59.45
682.393	59.82
682.58	59.44
682.766	59.8
682.953	60.76
683.14	60.66
683.326	59.91
683.513	60.25
683.7	59.92
683.886	60.34
684.073	60.73
684.259	60.65
684.446	61.63
684.632	62.11
684.819	62.05
685.005	60.27
685.192	60.61
685.378	61.1
685.565	59.92
685.751	61.79
685.938	60.46
686.124	59.91
686.31	61.41
686.497	60.53
686.683	61.01
686.87	60
687.056	60.06
687.242	61.08
687.429	61.04
687.615	63.03
687.801	61.42
687.987	62.35
688.174	61.95
688.36	60.39
688.546	61.77
688.732	60.52
688.918	60.63
689.105	60.2
689.291	58.92
689.477	58.92
689.663	57.95
689.849	59.38
690.035	59.66
690.221	60.33
690.407	61.7
690.593	60.98
690.779	63.12
690.965	63.22
691.151	63.81
691.337	64.83
691.523	65.14
691.709	65.85
691.895	64.81
692.081	63.22
692.267	63.2
692.453	62.8
692.639	62.66
692.825	61.62
693.011	61.43
693.196	63.43
693.382	64.21
693.568	64.9
693.754	64.43
693.94	65.35
694.125	67.19
694.311	66.84
694.497	66.93
694.682	68.5
694.868	67.53
695.054	69.99
695.239	67.33
695.425	67.53
695.611	67.27
695.796	66.59
695.982	65.92
696.168	64.87
696.353	62.78
696.539	61.69
696.724	60.09
696.91	59.57
697.095	58.01
697.281	57.18
697.466	55.85
697.652	54.95
697.837	55.72
698.023	54.82
698.208	53.61
698.393	55.72
698.579	55.63
698.764	54.97
698.949	54.71
699.135	54.74
699.32	56.14
699.505	56.82
699.691	56.72
699.876	55.78
700.061	55.54
700.246	57.34
700.432	56.53
700.617	57.14
700.802	57.79
700.987	59.8
701.172	60.84
701.358	61.79
701.543	62.27
701.728	62.28
701.913	61.58
702.098	62.93
702.283	64.09
702.468	64.69
702.653	66.13
702.838	66.57
703.023	67.1
703.208	67.13
703.393	67.07
703.578	68.14
703.763	71.69
703.948	72.13
704.133	72.87
704.318	72.92
704.503	73.54
704.688	74.89
704.873	76.69
705.057	76.49
705.242	75.97
705.427	74.98
705.612	73.49
705.797	70.74
705.981	74.11
706.166	75.93
706.351	77.43
706.536	77.96
706.72	77.3
706.905	75.12
707.09	75.11
707.274	74.47
707.459	74.89
707.644	74.22
707.828	75.36
708.013	73.35
708.197	71.3
708.382	68.66
708.567	67.43
708.751	68.71
708.936	68.43
709.12	66.68
709.305	66.95
709.489	66.27
709.673	67.13
709.858	67.44
710.042	67.45
710.227	66.52
710.411	67.06
710.596	66.46
710.78	63.99
710.964	66.24
711.149	67.45
711.333	68.16
711.517	69.57
711.702	68.78
711.886	67.97
712.07	67.36
712.254	67.62
712.438	67.32
712.623	67.72
712.807	68.4
712.991	67.2
713.175	68.08
713.359	68.26
713.544	66.07
713.728	66.34
713.912	66.41
714.096	65.93
714.28	64.42
714.464	64.47
714.648	64.88
714.832	65.29
715.016	64.63
715.2	62.59
715.384	62.17
715.568	62.65
715.752	63.4
715.936	62.86
716.12	63.56
716.304	66.83
716.488	67.34
716.671	66.67
716.855	64.73
717.039	63.7
717.223	64.62
717.407	63.74
717.59	64.15
717.774	63.63
717.958	64.02
718.142	64.04
718.325	63.03
718.509	62.59
718.693	63.54
718.877	65.45
719.06	65.58
719.244	64.43
719.428	65.82
719.611	65.07
719.795	65.01
719.978	66.33
720.162	66.07
720.345	65.62
720.529	66.52
720.713	65.43
720.896	64.46
721.08	67.04
721.263	68.87
721.446	69.39
721.63	71.62
721.813	71.22
721.997	70.29
722.18	72.31
722.364	71.82
722.547	70.95
722.73	72.71
722.914	70.75
723.097	68.71
723.28	68.97
723.464	67.33
723.647	67.05
723.83	68.54
724.013	68.19
724.197	68.76
724.38	70.35
724.563	71.23
724.746	71.49
724.929	73.89
725.112	73.22
725.296	70.81
725.479	71.66
725.662	71.46
725.845	68.49
726.028	69.12
726.211	66.97
726.394	65.16
726.577	64.1
726.76	64.24
726.943	62.66
727.126	64.61
727.309	64.9
727.492	64.01
727.675	63.44
727.858	63.86
728.041	64.67
728.224	65.15
728.407	65.96
728.589	65.63
728.772	64.67
728.955	66.94
729.138	66.26
729.321	67.95
729.503	67.23
729.686	66.7
729.869	67.14
730.052	63.66
730.234	65.14
730.417	66.86
730.6	67.77
730.782	67.85
730.965	68.42
731.148	69.58
731.33	67.36
731.513	69.04
731.695	68.46
731.878	70.02
732.061	73.44
732.243	72.17
732.426	69.66
732.608	68.79
732.791	69.38
732.973	67.34
733.156	68.92
733.338	69.99
733.52	69.09
733.703	70.2
733.885	70.16
734.068	69.25
734.25	71.55
734.432	73.91
734.615	75.02
734.797	76.69
734.979	77.18
735.162	75.03
735.344	76.55
735.526	76.81
735.708	77.59
735.891	78.28
736.073	78.72
736.255	76.5
736.437	76.23
736.619	75.89
736.802	73.07
736.984	72.55
737.166	73.11
737.348	74.44
737.53	75.82
737.712	76.01
737.894	75.97
738.076	76.21
738.258	76.62
738.44	79.1
738.622	80.65
738.804	80.85
738.986	83.48
739.168	85.44
739.35	85.33
739.532	85.28
739.714	86.39
739.896	86.27
740.078	86.41
740.259	84.56
740.441	82.19
740.623	81.05
740.805	80.75
740.987	78.02
741.168	76.25
741.35	75.14
741.532	74.39
741.714	72.03
741.895	71.19
742.077	71.36
742.259	73.1
742.44	71.58
742.622	71.05
742.804	72.05
742.985	74.06
743.167	73.24
743.348	73.8
743.53	73.97
743.711	77.01
743.893	78.69
744.075	79.13
744.256	79.79
744.438	80.74
744.619	82.01
744.8	84.43
744.982	83.4
745.163	84.65
745.345	85.13
745.526	85.18
745.707	82.7
745.889	80.68
746.07	80.34
746.252	81.23
746.433	84.85
746.614	85.15
746.795	84.25
746.977	83.75
747.158	83.26
747.339	82.8
747.52	81.91
747.702	83.03
747.883	84.84
748.064	86.42
748.245	86.95
748.426	83.11
748.607	81.26
748.788	79.48
748.97	81.62
749.151	83.53
749.332	84.49
749.513	87.42
749.694	90.65
749.875	93.7
750.056	91.91
750.237	88.76
750.418	93.64
750.599	93.9
750.78	97.14
750.96	96.9
751.141	96.2
751.322	96.66
751.503	94.5
751.684	89.55
751.865	85.55
752.046	84.94
752.226	84.47
752.407	80.36
752.588	81.2
752.769	81.17
752.949	81.13
753.13	81.34
753.311	78.09
753.492	81.15
753.672	82.26
753.853	82.98
754.034	79.94
754.214	83.4
754.395	83.2
754.575	83.87
754.756	80.11
754.937	78.69
755.117	75.59
755.298	77.76
755.478	77.74
755.659	78.19
755.839	77.22
756.02	81.27
756.2	81.16
756.381	81.93
756.561	82.25
756.741	84.78
756.922	84.82
757.102	85.51
757.283	86.72
757.463	83.64
757.643	81.84
757.823	83.24
758.004	79.31
758.184	74.78
758.364	74.06
758.545	72.02
758.725	72.34
758.905	72.03
759.085	73.82
759.265	72.06
759.446	71.47
759.626	72.39
759.806	72.47
759.986	74.5
760.166	77.93
760.346	74.8
760.526	74.54
760.706	72.85
760.886	70.98
761.066	70.25
761.246	66.88
761.426	67.01
761.606	67.98
761.786	64.7
761.966	63.66
762.146	62.97
762.326	64.41
762.506	62.11
762.686	61.42
762.866	60.1
763.046	60.47
763.225	63.04
763.405	63.39
763.585	63.18
763.765	65.25
763.945	66.97
764.124	66.08
764.304	68.22
764.484	70.66
764.664	71.53
764.843	73.16
765.023	71.99
765.203	72.18
765.382	73.16
765.562	73.63
765.741	74.04
765.921	73.73
766.101	75.53
766.28	73.68
766.46	76.67
766.639	76.06
766.819	78.93
766.998	80.48
767.178	79.19
767.357	77.45
767.537	77.14
767.716	78.21
767.896	79
768.075	83.5
768.254	85.16
768.434	83.74
768.613	85.41
768.792	85.92
768.972	86.08
769.151	87.56
769.33	90.82
769.51	91.17
769.689	90.51
769.868	88.94
770.047	86.41
770.226	85.9
770.406	87.45
770.585	91.93
770.764	91.31
770.943	93.31
771.122	94.68
771.301	93.47
771.48	92.51
771.66	96.46
771.839	98.72
772.018	97.36
772.197	101.21
772.376	101.89
772.555	98.88
772.734	98.24
772.913	98.27
773.092	98.03
773.271	100.39
773.449	103.97
773.628	98.58
773.807	97.36
773.986	98.58
774.165	95.43
774.344	94.47
774.523	94.34
774.701	97.38
774.88	96.01
775.059	94.22
775.238	94.42
775.417	91.87
775.595	95.21
775.774	95.64
775.953	94.29
776.131	93.05
776.31	91.77
776.489	88.63
776.667	88.19
776.846	88.1
777.025	89.47
777.203	87.55
777.382	86.02
777.56	83.99
777.739	84.38
777.917	84.69
778.096	87.39
778.274	87.26
778.453	91.31
778.631	89.27
778.81	89.89
778.988	89.62
779.166	92.64
779.345	93.91
779.523	94.53
779.702	97.15
779.88	100.32
780.058	100.86
780.237	101.01
780.415	96.77
780.593	97.43
780.771	95.82
780.95	98.27
781.128	96.94
781.306	94.89
781.484	98.65
781.662	97.25
781.841	92.13
782.019	90.76
782.197	92.62
782.375	97.77
782.553	98.98
782.731	102.71
782.909	101.92
783.087	101.41
783.265	106.67
783.443	102.45
783.621	99.73
783.799	102.9
783.977	104.94
784.155	104.67
784.333	101.25
784.511	99.27
784.689	92.32
784.867	89.29
785.045	91.08
785.223	88.01
785.4	86.16
785.578	88.22
785.756	87.45
785.934	85.92
786.112	88.59
786.289	86.23
786.467	86.99
786.645	90.82
786.823	89.01
787	86.15
787.178	85.98
787.356	89.93
787.533	89.61
787.711	89.54
787.889	86.03
788.066	84.02
788.244	86.15
788.421	85.73
788.599	87.6
788.776	91.89
788.954	90.39
789.131	89.57
789.309	89.6
789.486	89.83
789.664	92.04
789.841	93.97
790.019	93.2
790.196	96.76
790.373	97.39
790.551	96.94
790.728	94.57
790.906	97.41
791.083	93.08
791.26	87.02
791.437	88.39
791.615	89.01
791.792	91.6
791.969	91.66
792.146	91.3
792.324	92.04
792.501	91.31
792.678	94.59
792.855	93.81
793.032	101.47
793.209	105.24
793.387	104.56
793.564	102.03
793.741	97.61
793.918	98.96
794.095	99.36
794.272	99.23
794.449	96.16
794.626	91.87
794.803	87.24
794.98	86.03
795.157	87.24
795.334	85.25
795.511	84.94
795.688	87.74
795.864	88.64
796.041	85.14
796.218	81.81
796.395	85.14
796.572	85.57
796.749	88.07
796.925	87.87
797.102	86.76
797.279	85.59
797.456	85.15
797.632	85.5
797.809	81.78
797.986	84.21
798.162	90.1
798.339	86.76
798.516	87.28
798.692	88.43
798.869	89.93
799.046	88.69
799.222	89.94
799.399	90.14
799.575	89.57
799.752	88.26
799.928	85.89
800.105	84.5
800.281	87.43
800.458	87.6
800.634	86.39
800.811	86.53
800.987	88.71
801.163	93.36
801.34	94.57
801.516	95.96
801.692	95.59
801.869	97.68
802.045	99.46
802.221	101.09
802.398	105.38
802.574	111.42
802.75	111.07
802.926	112.8
803.103	105.47
803.279	108.13
803.455	106.08
803.631	112.3
803.807	116.75
803.983	113.98
804.16	115.67
804.336	115.96
804.512	111.15
804.688	109.04
804.864	101.5
805.04	99.84
805.216	99.16
805.392	99.76
805.568	96.85
805.744	95.89
805.92	101.6
806.096	96.27
806.272	91.5
806.448	95.17
806.623	96.51
806.799	101.83
806.975	107.6
807.151	102.06
807.327	105.1
807.503	101.99
807.678	106.24
807.854	103.5
808.03	103.64
808.206	104.43
808.381	102.52
808.557	98.1
808.733	97.63
808.908	93.14
809.084	95.75
809.26	92.9
809.435	96.96
809.611	94.53
809.787	89.25
809.962	90.7
810.138	92.3
810.313	91.59
810.489	96.6
810.664	93.99
810.84	95.69
811.015	97.49
811.191	96.81
811.366	93.97
811.542	94.14
811.717	92.37
811.892	91.52
812.068	89.23
812.243	91.78
812.419	91.29
812.594	95.22
812.769	93.55
812.944	93.02
813.12	92.01
813.295	94.77
813.47	92.28
813.645	96.51
813.821	100.42
813.996	98.47
814.171	96.26
814.346	93.92
814.521	90.87
814.697	94.28
814.872	89.91
815.047	90.61
815.222	93.99
815.397	90.75
815.572	89.65
815.747	81.22
815.922	82.77
816.097	80.42
816.272	83.58
816.447	88.01
816.622	87.42
816.797	89.72
816.972	93.29
817.147	86.41
817.322	90.94
817.496	92.05
817.671	96.33
817.846	95.92
818.021	96.06
818.196	91.89
818.371	88.34
818.545	86.6
818.72	85.98
818.895	83.87
819.069	83
819.244	79.89
819.419	78.16
819.594	76.05
819.768	72.61
819.943	72.34
820.117	69.32
820.292	63.67
820.467	62.87
820.641	59.44
820.816	56.08
820.99	54.25
821.165	51.64
821.339	49.52
821.514	48.06
821.688	47.03
821.863	45.41
822.037	44.14
822.212	44.4
822.386	43.53
822.56	43.13
822.735	44.43
822.909	44.48
823.084	44.99
823.258	45.37
823.432	46.2
823.606	47.4
823.781	49.17
823.955	50.74
824.129	53.25
824.303	53.92
824.478	55.01
824.652	53.56
824.826	53.83
825	54.54
825.174	56.79
825.348	57.36
825.523	59.17
825.697	59.66
825.871	57.74
826.045	57.83
826.219	58.76
826.393	58.72
826.567	58.81
826.741	58.66
826.915	58.93
827.089	58.07
827.263	57.47
827.437	55.36
827.611	54.57
827.784	57.95
827.958	56.39
828.132	56.34
828.306	58.94
828.48	61.34
828.654	64.1
828.827	64.56
829.001	68.15
829.175	71.79
829.349	78.52
829.522	78.6
829.696	79.17
829.87	83.5
830.044	84.39
830.217	88.72
830.391	88.66
830.565	90.83
830.738	93.37
830.912	89.61
831.085	86.85
831.259	84.7
831.432	87.8
831.606	86.47
831.779	84.64
831.953	88.43
832.126	82.48
832.3	80.52
832.473	79.49
832.647	77.67
832.82	77.15
832.994	77.09
833.167	73.63
833.34	72.23
833.514	70.66
833.687	69.05
833.86	63.54
834.034	66.14
834.207	64.41
834.38	64.03
834.553	64.65
834.727	65.66
834.9	66.87
835.073	67.84
835.246	68.92
835.419	71.56
835.593	74.14
835.766	76.97
835.939	78.41
836.112	83.64
836.285	89.5
836.458	90.25
836.631	93.36
836.804	99.59
836.977	106.2
837.15	105.53
837.323	110.4
837.496	119.08
837.669	125.07
837.842	119.44
838.015	120.92
838.188	115.82
838.361	122.55
838.533	116.61
838.706	106.42
838.879	103.9
839.052	100.87
839.225	97.81
839.398	93.76
839.57	91.02
839.743	86.48
839.916	84.61
840.088	84.84
840.261	80.57
840.434	84.31
840.607	86.26
840.779	90.75
840.952	92.1
841.124	93.35
841.297	92.68
841.47	95.98
841.642	101.23
841.815	104.85
841.987	109.21
842.16	111.47
842.332	112.48
842.505	115.46
842.677	116
842.85	118.3
843.022	114.22
843.194	117.71
843.367	114.66
843.539	112.97
843.712	110.44
843.884	108.73
844.056	112.38
844.229	108.65
844.401	113.34
844.573	106.7
844.745	110.61
844.918	112.63
845.09	107.65
845.262	112.22
845.434	119.4
845.606	115.44
845.779	111.13
845.951	108.71
846.123	111.98
846.295	108.7
846.467	111.41
846.639	105.77
846.811	112.12
846.983	115.81
847.155	114.69
847.327	104.59
847.499	117.27
847.671	120.67
847.843	114.62
848.015	103.27
848.187	102.09
848.359	105.1
848.531	103.39
848.703	98.3
848.875	94.37
849.047	91.42
849.218	101.8
849.39	97.09
849.562	95.68
849.734	100.18
849.905	108.54
850.077	105.16
850.249	103.62
850.421	108.97
850.592	105.35
850.764	110.21
850.936	109.29
851.107	104.9
851.279	107.09
851.451	117.03
851.622	116.39
851.794	114.44
851.965	117.95
852.137	115.55
852.308	110.49
852.48	113.33
852.651	106.56
852.823	109.33
852.994	105.01
853.166	102.77
853.337	97.26
853.509	93.98
853.68	91.3
853.851	93.84
854.023	93.88
854.194	96.32
854.365	98.57
854.537	97.68
854.708	96.13
854.879	98.81
855.05	99.5
855.222	92.22
855.393	101.23
855.564	112.03
855.735	112.14
855.906	112.63
856.078	118.11
856.249	120.03
856.42	128.15
856.591	133.54
856.762	133.19
856.933	133.6
857.104	142.9
857.275	130.29
857.446	122.31
857.617	121.8
857.788	127.08
857.959	116.41
858.13	114.15
858.301	110.37
858.472	113.19
858.643	107.41
858.814	108.92
858.985	113.67
859.155	124.66
859.326	127.04
859.497	123.64
859.668	125.24
859.839	130.66
860.009	129.93
860.18	126.18
860.351	124.82
860.522	134.96
860.692	143.24
860.863	130.58
861.034	126.5
861.204	132.25
861.375	130.34
861.546	122.34
861.716	124.97
861.887	120.94
862.057	126.8
862.228	124.72
862.398	126.96
862.569	117.01
862.739	117.25
862.91	109.68
863.08	103.99
863.251	109.21
863.421	112.4
863.592	107.91
863.762	108.73
863.932	108.82
864.103	105.82
864.273	101.94
864.443	105.94
864.614	112.85
864.784	123.1
864.954	125.37
865.125	120.07
865.295	120.72
865.465	120.58
865.635	129.4
865.805	127.16
865.976	127.9
866.146	127.07
866.316	120.72
866.486	126.24
866.656	126.46
866.826	122.8
866.996	129.67
867.166	134.97
867.336	136.39
867.506	125.74
867.676	121.85
867.846	123.48
868.016	123.1
868.186	132.07
868.356	127.95
868.526	121.64
868.696	120.67
868.866	117.74
869.036	112.06
869.206	109.36
869.376	109.71
869.545	113.79
869.715	111.85
869.885	119.5
870.055	110.39
870.224	100.91
870.394	106.33
870.564	105.12
870.734	103.98
870.903	102.97
871.073	106.1
871.243	110.63
871.412	112.09
871.582	121.19
871.751	112.13
871.921	115.55
872.091	124.42
872.26	115.42
872.43	118.97
872.599	124.22
872.769	128.59
872.938	130.28
873.108	127.38
873.277	121.9
873.446	116.67
873.616	127.06
873.785	123.32
873.955	124.75
874.124	135.48
874.293	137.13
874.463	135.14
874.632	134.97
874.801	133.83
874.971	133.69
875.14	131.06
875.309	133.98
875.478	126.73
875.647	126.57
875.817	122.31
875.986	115.96
876.155	118.38
876.324	118.57
876.493	112.58
876.662	111.75
876.831	107.01
877	113.26
877.17	105.13
877.339	108.43
877.508	112.22
877.677	119.01
877.846	116.89
878.015	110.16
878.184	112.82
878.352	111.39
878.521	113.87
878.69	114.68
878.859	109.57
879.028	110.24
879.197	108.4
879.366	102.89
879.534	95.75
879.703	100.38
879.872	96.76
880.041	93.15
880.21	93.92
880.378	86.74
880.547	85.58
880.716	82.86
880.884	77.78
881.053	72.65
881.222	68.76
881.39	68.45
881.559	63.93
881.727	63.24
881.896	60.78
882.065	57.14
882.233	59.18
882.402	59.33
882.57	59.53
882.739	61.05
882.907	62.38
883.076	64.25
883.244	64.35
883.412	66.8
883.581	70.88
883.749	70.26
883.918	72.24
884.086	74.57
884.254	76.36
884.423	80.29
884.591	88.23
884.759	92.69
884.927	94.9
885.096	97.67
885.264	96.38
885.432	101.71
885.6	106
885.769	108.1
885.937	105.96
886.105	108.28
886.273	110.06
886.441	110.74
886.609	113.46
886.777	117.41
886.945	116.61
887.113	123.05
887.281	117.41
887.449	126.52
887.617	133.42
887.785	138.3
887.953	126.41
888.121	131.77
888.289	128.94
888.457	131.45
888.625	130.78
888.793	127.1
888.961	125.2
889.129	120.37
889.296	123.1
889.464	120.52
889.632	115.49
889.8	125.38
889.967	118.84
890.135	113.89
