Data from JASIL_3058_Reflection_02.txt Node
Date: Mon Nov 09 11:28:00 EST 2015
User: Geneva
Spectrometer: USB4E03002
Autoset integration time: false
Trigger mode: 4
Integration Time (sec): 1.000000E-1
Scans to average: 10
Electric dark correction enabled: false
Nonlinearity correction enabled: false
Boxcar width: 5
Stray light correction enabled: false
XAxis mode: Wavelengths
Stop averaging: false
Number of Pixels in Spectrum: 3648
>>>>>Begin Spectral Data<<<<<
177.575	475.36
177.794	300.81
178.014	198.31
178.233	117.83
178.452	130.46
178.672	173.87
178.891	145.21
179.11	124.74
179.33	109.54
179.549	134.15
179.768	138.4
179.987	140.73
180.207	167.01
180.426	269.35
180.645	-475.68
180.864	-612.07
181.084	276.81
181.303	263.03
181.522	770.83
181.741	-211.76
181.96	205.41
182.179	318.75
182.398	40.91
182.618	25.23
182.837	305
183.056	107.41
183.275	157.52
183.494	105.8
183.713	107.3
183.932	82.33
184.151	104.66
184.37	119.57
184.589	-96.77
184.808	34.53
185.027	25.93
185.246	-47.06
185.465	-19.05
185.684	-46.59
185.903	18.1
186.122	-10.38
186.341	-42.5
186.56	-216.95
186.779	-79.58
186.998	-1250
187.216	-606.1
187.435	-380.99
187.654	-241.4
187.873	-851.35
188.092	-195.93
188.311	-139.52
188.53	-93.92
188.748	-70.98
188.967	-33.44
189.186	-247.25
189.405	4825
189.623	-1247.37
189.842	-142.94
190.061	-464.41
190.28	-278.52
190.498	-541.03
190.717	-929.73
190.936	452.43
191.154	139.44
191.373	42.69
191.592	66.05
191.81	73.45
192.029	17.36
192.248	-66.35
192.466	-120.39
192.685	-63.93
192.904	-27.18
193.122	-66.13
193.341	-19.51
193.559	-582.22
193.778	622.22
193.996	-107.3
194.215	-39.81
194.433	-31.19
194.652	-91.57
194.87	53.68
195.089	60
195.307	40.64
195.526	-86.36
195.744	426.92
195.963	-172.63
196.181	-47.85
196.399	-39.89
196.618	-80
196.836	-261.9
197.055	169.44
197.273	122.15
197.491	-30.37
197.71	34.26
197.928	115.43
198.146	87.5
198.365	-39
198.583	-13.99
198.801	-7.59
199.019	-66.98
199.238	-103.6
199.456	-227.13
199.674	-184.68
199.892	-45.23
200.111	-43.17
200.329	1.6
200.547	58.21
200.765	78.47
200.983	38.1
201.202	6.02
201.42	34.42
201.638	104.65
201.856	-147.14
202.074	-59.46
202.292	90.91
202.51	-5650
202.728	-852.27
202.946	512.73
203.165	5866.67
203.383	-1900
203.601	352.63
203.819	456.84
204.037	2617.65
204.255	-316.67
204.473	-387.3
204.691	-58.22
204.909	13.79
205.127	92.86
205.345	38.22
205.562	101.33
205.78	508.33
205.998	77.27
206.216	42.42
206.434	-127.42
206.652	338.3
206.87	-194.25
207.088	-1.15
207.306	2.52
207.523	-165
207.741	-46.25
207.959	-1228.57
208.177	-82.35
208.395	-2.5
208.612	-70.65
208.83	-23.4
209.048	-4.65
209.266	20.94
209.483	-3.69
209.701	30.38
209.919	73.43
210.136	139.16
210.354	146.77
210.572	177.58
210.79	-442.86
211.007	7600
211.225	637.93
211.442	-15450
211.66	-131.61
211.878	-42.68
212.095	129.09
212.313	189.09
212.53	306.62
212.748	290.81
212.966	351.7
213.183	4636.36
213.401	-3440.74
213.618	567.98
213.836	734.46
214.053	897.48
214.271	34933.33
214.488	-228.28
214.705	170.27
214.923	196.02
215.14	126.04
215.358	93.09
215.575	63.94
215.793	61.52
216.01	64.96
216.227	78.08
216.445	73.28
216.662	55.95
216.879	41.88
217.097	93.83
217.314	13.64
217.531	394.12
217.749	270.16
217.966	114.57
218.183	63.19
218.4	52.77
218.618	164.41
218.835	87.15
219.052	88.82
219.269	120.25
219.487	516.67
219.704	142.59
219.921	19.17
220.138	47.83
220.355	50
220.572	157.51
220.79	203.88
221.007	114.29
221.224	-231.25
221.441	-818.18
221.658	29.9
221.875	39.74
222.092	31.1
222.309	-208.57
222.526	3442.86
222.743	-58.73
222.96	-75.4
223.177	-49.36
223.394	-3.53
223.611	13.81
223.828	6.51
224.045	39.4
224.262	35.12
224.479	24.77
224.696	38.84
224.913	43.88
225.13	45.74
225.347	61.52
225.564	65.4
225.781	63.19
225.997	61.78
226.214	64.59
226.431	50.34
226.648	50.78
226.865	49.91
227.082	41.59
227.298	41.09
227.515	27.45
227.732	20.53
227.949	19.37
228.165	7.73
228.382	1.44
228.599	0.18
228.816	7.09
229.032	4.69
229.249	12.63
229.466	13.99
229.682	10.27
229.899	20.5
230.116	21.33
230.332	12.04
230.549	27.74
230.765	35.83
230.982	39.14
231.199	42.37
231.415	43.18
231.632	39.03
231.848	43.29
232.065	50.43
232.281	50.9
232.498	54.04
232.714	51.78
232.931	50.46
233.147	53.08
233.364	42.18
233.58	36.37
233.797	45.59
234.013	46.26
234.23	38.94
234.446	17.44
234.662	0.46
234.879	4.34
235.095	24.63
235.312	12.48
235.528	15.65
235.744	10.83
235.961	14.44
236.177	9.27
236.393	-0.35
236.61	2.04
236.826	2.09
237.042	4.17
237.258	-7.72
237.475	-27.09
237.691	-16.88
237.907	-20.12
238.123	-8.33
238.339	-29.21
238.556	-37.32
238.772	-19.02
238.988	-28.74
239.204	-18.75
239.42	-12.97
239.636	-1.5
239.853	5.19
240.069	2.83
240.285	6.79
240.501	2.68
240.717	15.67
240.933	15.73
241.149	12.4
241.365	19.61
241.581	21.39
241.797	17.72
242.013	17.23
242.229	17.08
242.445	21.33
242.661	17.1
242.877	19.2
243.093	8.73
243.309	9.26
243.525	11.12
243.741	9.93
243.957	16.02
244.173	16.23
244.388	11.77
244.604	14.13
244.82	12.79
245.036	16.86
245.252	14.77
245.468	15.68
245.683	12.45
245.899	12.44
246.115	10.34
246.331	3.71
246.547	4.17
246.762	4.71
246.978	3.25
247.194	1.08
247.409	-5.96
247.625	-5.3
247.841	-9.17
248.057	-2.44
248.272	-0.88
248.488	0.1
248.703	2
248.919	-1.3
249.135	4.07
249.35	3.61
249.566	8.97
249.782	11.52
249.997	9.74
250.213	17.14
250.428	12.75
250.644	15.19
250.859	20.6
251.075	26.96
251.29	28.02
251.506	29.49
251.721	30.15
251.937	30.13
252.152	31.54
252.368	34.26
252.583	30.56
252.798	29.75
253.014	22.83
253.229	15.54
253.445	8.21
253.66	15.09
253.875	8.26
254.091	5.5
254.306	4.54
254.521	-0.33
254.737	-5.83
254.952	-3.83
255.167	4.15
255.383	10.65
255.598	8.31
255.813	11.84
256.028	8.08
256.244	3.12
256.459	1.5
256.674	-1.01
256.889	4.93
257.104	6.46
257.32	4.17
257.535	1.48
257.75	1.76
257.965	1.17
258.18	-1.94
258.395	-1.47
258.61	-0.62
258.826	-0.39
259.041	-0.33
259.256	-1.3
259.471	-3.22
259.686	-2.87
259.901	-2.85
260.116	-4.54
260.331	-3.45
260.546	-0.98
260.761	-2.54
260.976	-1.52
261.191	-2.32
261.406	0.03
261.621	2.34
261.836	9.05
262.05	6.86
262.265	4.77
262.48	5.72
262.695	3.01
262.91	5.45
263.125	2.98
263.34	0.14
263.555	-0.55
263.769	-6.74
263.984	-8.5
264.199	-12.8
264.414	-4.48
264.629	-2.87
264.843	-0.99
265.058	2.14
265.273	0.43
265.488	4.87
265.702	6.97
265.917	9.59
266.132	12.52
266.346	12.49
266.561	11.64
266.776	11.4
266.99	13.92
267.205	10.42
267.42	10.89
267.634	10.12
267.849	6.16
268.063	0.36
268.278	-0.8
268.492	-0.15
268.707	5.01
268.922	6.26
269.136	2.13
269.351	-0.13
269.565	0.4
269.78	-0.1
269.994	2.55
270.209	5.42
270.423	6.42
270.637	7.11
270.852	3.56
271.066	2.08
271.281	2.58
271.495	2.26
271.709	0.7
271.924	2.21
272.138	0.27
272.353	-1.93
272.567	-3.04
272.781	0.63
272.996	-1.9
273.21	-1.46
273.424	-3.83
273.638	-6.18
273.853	-5.49
274.067	-3.77
274.281	-0.62
274.495	1.89
274.71	2.01
274.924	0.9
275.138	-0.11
275.352	2.43
275.566	6.51
275.781	6.38
275.995	5.76
276.209	7.72
276.423	7.59
276.637	2.35
276.851	2.28
277.065	3.26
277.279	6.99
277.493	6.34
277.707	6.67
277.921	1.43
278.135	2.53
278.349	5.77
278.563	6.49
278.777	7.28
278.991	8.12
279.205	6.17
279.419	5.48
279.633	5.69
279.847	6.75
280.061	3.76
280.275	6.4
280.489	5.01
280.703	4.91
280.917	4.78
281.131	2.56
281.344	3.42
281.558	6.12
281.772	8.17
281.986	6.73
282.2	4.18
282.414	2.13
282.627	2.25
282.841	4.71
283.055	3.92
283.269	4.97
283.482	4.23
283.696	3.41
283.91	-0.55
284.123	-1.84
284.337	-4.23
284.551	-2.07
284.764	2.71
284.978	1.33
285.192	-1.62
285.405	-0.91
285.619	-1.41
285.833	-1.2
286.046	0.54
286.26	3.48
286.473	4.08
286.687	4.62
286.9	6.25
287.114	3.03
287.327	1.87
287.541	4.48
287.754	3.53
287.968	3.22
288.181	7.35
288.395	6.82
288.608	6.17
288.822	7.1
289.035	8.16
289.248	5.52
289.462	7.42
289.675	8.62
289.889	10.58
290.102	8.81
290.315	6.86
290.529	4.35
290.742	1.59
290.955	1.51
291.169	-1.27
291.382	0.08
291.595	2.53
291.808	4.17
292.022	8.81
292.235	7.17
292.448	9.78
292.661	8.58
292.875	8.01
293.088	10.7
293.301	12.24
293.514	13.65
293.727	11.5
293.94	9.77
294.153	6.72
294.367	4.52
294.58	3.32
294.793	2.47
295.006	2.23
295.219	4.44
295.432	5.15
295.645	3.09
295.858	2.76
296.071	4.12
296.284	3.07
296.497	3.96
296.71	4.12
296.923	4.33
297.136	4.56
297.349	4.78
297.562	2.52
297.775	2.93
297.988	4.34
298.201	4.38
298.414	2.91
298.626	4.57
298.839	2.98
299.052	2.01
299.265	4.43
299.478	4.36
299.691	3.81
299.903	7.19
300.116	6.4
300.329	3.5
300.542	4.42
300.755	6.14
300.967	8.54
301.18	11.02
301.393	10.44
301.605	10.76
301.818	8.13
302.031	7.23
302.243	4.41
302.456	3.69
302.669	7.73
302.881	6.52
303.094	7.16
303.307	2.53
303.519	0.04
303.732	2.24
303.944	-0.75
304.157	3.22
304.37	7.37
304.582	9.43
304.795	10.84
305.007	6.4
305.22	1.73
305.432	-1.57
305.645	0.67
305.857	1
306.069	-1.17
306.282	-3.41
306.494	-4.74
306.707	-7.17
306.919	-9.65
307.132	-10.71
307.344	-6.32
307.556	-1.52
307.769	1.47
307.981	4.39
308.193	5.31
308.406	5.78
308.618	8.54
308.83	8.65
309.043	9.03
309.255	10.21
309.467	11.05
309.679	10.54
309.892	13.04
310.104	12.59
310.316	12.49
310.528	12.22
310.74	12.82
310.953	12.54
311.165	11.82
311.377	12.07
311.589	7.95
311.801	7.99
312.013	8.78
312.225	5.78
312.437	6.3
312.649	5.11
312.862	4.64
313.074	4.13
313.286	3.76
313.498	4.95
313.71	7.45
313.922	12.62
314.134	10.78
314.346	9.32
314.558	10.39
314.77	9.41
314.982	8.96
315.193	7.17
315.405	8.24
315.617	6.78
315.829	7.33
316.041	3.7
316.253	1.55
316.465	2.29
316.677	3.92
316.888	2.74
317.1	2.65
317.312	3.16
317.524	6.27
317.736	3.06
317.947	6.46
318.159	8.75
318.371	10.97
318.583	11.8
318.794	14.15
319.006	11.26
319.218	9.42
319.43	10.4
319.641	8.68
319.853	9.59
320.064	7.68
320.276	4.09
320.488	2.73
320.699	3.11
320.911	8.46
321.123	8.06
321.334	11.35
321.546	12.41
321.757	12.64
321.969	16.63
322.18	16.9
322.392	18.55
322.603	19.15
322.815	17.11
323.026	15.13
323.238	12.24
323.449	8.67
323.661	8.76
323.872	9.43
324.083	9.04
324.295	7.69
324.506	5.04
324.718	7.65
324.929	8.04
325.14	9.17
325.352	10.67
325.563	8.3
325.774	13.63
325.986	12.46
326.197	13.35
326.408	12.8
326.62	11.86
326.831	13.48
327.042	8.92
327.253	9.86
327.464	11.54
327.676	11.37
327.887	13.97
328.098	9.11
328.309	9.67
328.52	9.92
328.732	11.79
328.943	10.82
329.154	13.57
329.365	16.99
329.576	18
329.787	15.72
329.998	16.5
330.209	12.94
330.42	18.64
330.631	17.54
330.842	17.72
331.053	16.78
331.264	17.58
331.475	18.13
331.686	18.9
331.897	19.29
332.108	18.5
332.319	18.35
332.53	22.66
332.741	22.35
332.952	21.14
333.163	18.67
333.374	19.54
333.585	19.03
333.795	16.19
334.006	17.23
334.217	17.12
334.428	19.17
334.639	18.53
334.849	13.17
335.06	8.53
335.271	12.39
335.482	15.9
335.692	12.58
335.903	12.48
336.114	12.6
336.325	12.47
336.535	11.33
336.746	8.76
336.957	8.57
337.167	13.83
337.378	16.07
337.589	16.76
337.799	13.96
338.01	13.83
338.22	14.43
338.431	15.61
338.642	13.64
338.852	14.5
339.063	17.5
339.273	19.21
339.484	15.95
339.694	15.26
339.905	12.69
340.115	14.61
340.326	17.34
340.536	17.28
340.746	15.98
340.957	16.36
341.167	16.49
341.378	16.52
341.588	16.14
341.799	16.09
342.009	18.31
342.219	18.84
342.43	16.84
342.64	16.91
342.85	16.72
343.061	19.39
343.271	19.3
343.481	20.09
343.691	19.25
343.902	18.48
344.112	19.18
344.322	17.78
344.532	17.63
344.743	17.98
344.953	17.43
345.163	18.7
345.373	16.81
345.583	16.34
345.793	13.6
346.004	13.97
346.214	11.79
346.424	13.52
346.634	11.8
346.844	11.33
347.054	11.26
347.264	10.99
347.474	8.36
347.684	6.85
347.894	4.77
348.104	5.48
348.314	4.89
348.524	7.22
348.734	4.67
348.944	5.57
349.154	5.04
349.364	5.73
349.574	4.42
349.784	5.17
349.994	6.37
350.204	8.19
350.413	8.68
350.623	6.65
350.833	7.31
351.043	7.09
351.253	8.82
351.463	8.49
351.672	6.3
351.882	8.42
352.092	7.31
352.302	6.77
352.511	8.28
352.721	6.51
352.931	6.76
353.141	6.72
353.35	6.71
353.56	6.69
353.77	7.35
353.979	7.72
354.189	7
354.399	8.92
354.608	11.91
354.818	11.34
355.027	12.21
355.237	13.19
355.447	13.19
355.656	13.32
355.866	13.48
356.075	12.49
356.285	15.18
356.494	14.33
356.704	13.25
356.913	11.94
357.123	10.47
357.332	11.43
357.542	10.74
357.751	9.89
357.96	10.4
358.17	8.87
358.379	10.45
358.589	9.33
358.798	10.11
359.007	11.35
359.217	10.95
359.426	12.54
359.635	12.12
359.845	12.07
360.054	11.72
360.263	11.3
360.472	11.17
360.682	10.07
360.891	8.43
361.1	9.14
361.309	8.06
361.519	8.23
361.728	6.51
361.937	7.36
362.146	6.72
362.355	6.81
362.564	8.52
362.774	9.39
362.983	9.68
363.192	12.2
363.401	12.99
363.61	13.24
363.819	11.65
364.028	13.33
364.237	13.84
364.446	14.76
364.655	13.55
364.864	12.33
365.073	12.02
365.282	11.79
365.491	8.72
365.7	8.49
365.909	5.76
366.118	6.39
366.327	5.81
366.536	4.39
366.745	5.05
366.954	6.01
367.162	6.74
367.371	6.5
367.58	6.46
367.789	8.2
367.998	6.58
368.207	8.26
368.415	8.24
368.624	8.91
368.833	7.32
369.042	5.99
369.25	6.94
369.459	5.67
369.668	6.16
369.877	5.16
370.085	5.91
370.294	7.27
370.503	7.22
370.711	6.24
370.92	5.25
371.129	7.88
371.337	7.9
371.546	8.98
371.754	9.44
371.963	10.48
372.171	11.51
372.38	11.05
372.589	9.43
372.797	8.98
373.006	9.2
373.214	11.57
373.423	10.23
373.631	12.03
373.84	11.28
374.048	9.57
374.256	8.83
374.465	10.36
374.673	8.93
374.882	9.41
375.09	9.7
375.298	12.83
375.507	11.89
375.715	13.64
375.923	11.79
376.132	12.91
376.34	15.24
376.548	14.45
376.757	14.79
376.965	15.93
377.173	17.49
377.381	18.62
377.59	16.47
377.798	16.61
378.006	15.02
378.214	16.21
378.423	14.81
378.631	14.16
378.839	15.11
379.047	13.63
379.255	14.09
379.463	12.53
379.671	12.55
379.879	12.71
380.088	13.85
380.296	13.64
380.504	13.85
380.712	12.92
380.92	10.93
381.128	11.32
381.336	11.62
381.544	11.53
381.752	12.08
381.96	12.01
382.168	10.9
382.376	8.62
382.584	8.6
382.791	8.75
382.999	8.85
383.207	10.45
383.415	8.32
383.623	8.32
383.831	7.18
384.039	4.79
384.247	5.61
384.454	5.84
384.662	5.25
384.87	6.22
385.078	4.96
385.285	5.42
385.493	5.78
385.701	6.69
385.909	6.33
386.116	6.5
386.324	8.21
386.532	7.5
386.739	8.1
386.947	8.9
387.155	8.34
387.362	8.3
387.57	8.05
387.778	8.27
387.985	7.62
388.193	7.71
388.4	8.74
388.608	9.04
388.816	8.91
389.023	8.74
389.231	9.02
389.438	9.35
389.646	10.63
389.853	10.45
390.061	8.73
390.268	8.67
390.475	8.02
390.683	7.54
390.89	7.82
391.098	7.33
391.305	6.74
391.512	6.23
391.72	5.5
391.927	4.96
392.135	5.26
392.342	5.88
392.549	6.89
392.756	8.08
392.964	7.01
393.171	6.37
393.378	7.1
393.586	7.6
393.793	6.91
394	6.93
394.207	6.45
394.414	6.21
394.622	6.16
394.829	6.02
395.036	4.86
395.243	5.59
395.45	5.44
395.657	5.17
395.864	6.36
396.072	7.94
396.279	9.2
396.486	9.98
396.693	10.89
396.9	10.97
397.107	11.79
397.314	12.44
397.521	12.87
397.728	13.52
397.935	13.28
398.142	12.48
398.349	10.18
398.556	9.27
398.763	8.58
398.97	7.94
399.177	9.47
399.383	7.42
399.59	6.26
399.797	5.67
400.004	5.64
400.211	4.64
400.418	4.64
400.625	5.22
400.831	4.47
401.038	5.26
401.245	4.23
401.452	3.76
401.658	5.66
401.865	7.17
402.072	7.24
402.279	5.99
402.485	7.08
402.692	7.68
402.899	9.45
403.105	9.76
403.312	9.81
403.519	10.48
403.725	9.54
403.932	9.55
404.138	8.41
404.345	8.39
404.552	9.37
404.758	8.86
404.965	7.98
405.171	7.14
405.378	7.93
405.584	7.23
405.791	5.72
405.997	5.19
406.204	4.36
406.41	4.06
406.617	4.06
406.823	4.12
407.029	3.96
407.236	4.49
407.442	4.86
407.649	4.71
407.855	4.85
408.061	6.61
408.268	7.75
408.474	7.61
408.68	8.68
408.887	8.78
409.093	8.95
409.299	9.07
409.505	9.46
409.712	8.96
409.918	8.57
410.124	9
410.33	8.31
410.537	7.52
410.743	7.77
410.949	7.71
411.155	7.78
411.361	7.67
411.567	8.49
411.773	8.44
411.98	8.22
412.186	7.84
412.392	7.5
412.598	7.46
412.804	8.84
413.01	8.72
413.216	9.37
413.422	9.38
413.628	9.82
413.834	9.86
414.04	9.07
414.246	8.62
414.452	9.45
414.658	8.32
414.864	8.95
415.07	7.37
415.275	7.39
415.481	6.78
415.687	7.27
415.893	6.9
416.099	6.61
416.305	7.28
416.511	7.91
416.716	7.64
416.922	7.9
417.128	8.94
417.334	9.24
417.539	9.59
417.745	9.64
417.951	9.11
418.157	9.15
418.362	8.53
418.568	8.76
418.774	8.39
418.979	8.51
419.185	8.75
419.391	7.95
419.596	8.05
419.802	7.35
420.008	7.21
420.213	6.92
420.419	6.77
420.624	7.3
420.83	6.49
421.035	6.4
421.241	6.59
421.446	6.7
421.652	6.65
421.857	6.33
422.063	6.55
422.268	6.19
422.474	6.32
422.679	6.17
422.885	5.9
423.09	6.23
423.295	6.58
423.501	5.73
423.706	5.4
423.911	5.52
424.117	5.57
424.322	5.22
424.527	5.61
424.733	5.85
424.938	5.83
425.143	5.41
425.349	4.66
425.554	4.47
425.759	5.25
425.964	5.63
426.169	5.66
426.375	5.81
426.58	6.23
426.785	6.14
426.99	6.89
427.195	6.56
427.4	7.56
427.605	8.18
427.811	8.09
428.016	8.04
428.221	8.53
428.426	7.98
428.631	8.23
428.836	8.82
429.041	8.98
429.246	8.38
429.451	8.44
429.656	8.29
429.861	8.74
430.066	9.11
430.271	9.02
430.476	8.18
430.681	8.29
430.886	8
431.09	7.47
431.295	7.54
431.5	8.1
431.705	8.71
431.91	7.66
432.115	7.11
432.32	6.86
432.524	6.88
432.729	7.01
432.934	6.64
433.139	6.29
433.343	6.36
433.548	6.15
433.753	5.3
433.958	4.75
434.162	5.77
434.367	6.54
434.572	7.25
434.776	6.62
434.981	6.93
435.186	7.6
435.39	8.6
435.595	8.27
435.799	8.07
436.004	8.31
436.209	8.09
436.413	8.31
436.618	7.64
436.822	7.46
437.027	7.9
437.231	7.54
437.436	7.11
437.64	6.37
437.845	6.68
438.049	7.04
438.253	7.01
438.458	7.05
438.662	6.69
438.867	6.92
439.071	6.39
439.275	6.55
439.48	6.93
439.684	6.97
439.888	6.98
440.093	7.33
440.297	7.44
440.501	6.81
440.706	7.28
440.91	7.38
441.114	7.23
441.318	7.48
441.523	7.33
441.727	6.56
441.931	7.08
442.135	7.68
442.339	7.38
442.543	6.97
442.748	7.35
442.952	6.97
443.156	6.88
443.36	7.12
443.564	7.32
443.768	6.86
443.972	6.82
444.176	6.11
444.38	5.83
444.584	5.71
444.788	5.67
444.992	5.86
445.196	6.43
445.4	6.71
445.604	6.3
445.808	6.42
446.012	6.26
446.216	6.76
446.42	7
446.624	7
446.828	7.06
447.032	7.37
447.235	7.39
447.439	6.42
447.643	5.91
447.847	6.41
448.051	5.89
448.254	6.24
448.458	6.31
448.662	6.41
448.866	6.54
449.069	6.24
449.273	6.04
449.477	6.19
449.681	7.63
449.884	8.12
450.088	7.89
450.292	7.5
450.495	7.7
450.699	7.17
450.902	7.93
451.106	7.64
451.31	8.01
451.513	8.09
451.717	7.66
451.92	6.91
452.124	6.75
452.327	6.43
452.531	7.23
452.734	7.93
452.938	8.21
453.141	6.84
453.345	7.08
453.548	6.61
453.752	6.15
453.955	6.73
454.158	6.11
454.362	6.04
454.565	5.94
454.769	5.85
454.972	4.58
455.175	4.25
455.379	4.64
455.582	4.59
455.785	4.93
455.988	4.86
456.192	5.06
456.395	6.2
456.598	6.06
456.801	6.12
457.005	6.65
457.208	7.18
457.411	7.32
457.614	7.75
457.817	7.22
458.021	7.45
458.224	7.01
458.427	6.84
458.63	6.44
458.833	6.21
459.036	6.24
459.239	5.78
459.442	5.56
459.645	5.55
459.848	5.31
460.051	5.56
460.254	5.28
460.457	5.91
460.66	5.34
460.863	5.03
461.066	5.68
461.269	6.12
461.472	6.14
461.675	6.34
461.878	6.3
462.081	6.22
462.284	6.14
462.486	5.37
462.689	5.06
462.892	5.96
463.095	6.31
463.298	6.36
463.5	5.96
463.703	6.75
463.906	6.82
464.109	7.53
464.311	7.43
464.514	8.26
464.717	8.97
464.92	9.13
465.122	8.48
465.325	8.44
465.528	9.13
465.73	9.74
465.933	8.66
466.135	8.27
466.338	7.69
466.541	7.35
466.743	6.58
466.946	6.36
467.148	6.42
467.351	6.49
467.553	6.92
467.756	5.28
467.958	4.28
468.161	4.77
468.363	5.08
468.566	5.21
468.768	5.39
468.971	6.04
469.173	6.69
469.375	6.31
469.578	6.5
469.78	6.14
469.983	6.6
470.185	7.31
470.387	7.44
470.59	7.45
470.792	7.64
470.994	8.16
471.196	7.75
471.399	7.15
471.601	7.77
471.803	8.08
472.005	8.04
472.208	9.14
472.41	8.29
472.612	8.14
472.814	7.45
473.016	7.89
473.218	8.01
473.421	7.88
473.623	8.1
473.825	7.76
474.027	7.94
474.229	7.78
474.431	7.41
474.633	8.09
474.835	8.17
475.037	8.63
475.239	8.33
475.441	7.97
475.643	7.97
475.845	8
476.047	8.13
476.249	7.85
476.451	7.69
476.653	6.6
476.855	6.91
477.057	7.05
477.258	7.28
477.46	6.89
477.662	7.02
477.864	7.07
478.066	7.61
478.268	7.99
478.469	8.33
478.671	7.84
478.873	8.2
479.075	7.28
479.276	7.01
479.478	7.18
479.68	7.2
479.882	7.18
480.083	7.19
480.285	6.65
480.487	6.65
480.688	5.77
480.89	6.15
481.091	6.39
481.293	6.89
481.495	6.84
481.696	6.65
481.898	6.52
482.099	6.34
482.301	6.13
482.502	6.18
482.704	5.99
482.905	6.12
483.107	6.2
483.308	6.1
483.51	5.92
483.711	5.88
483.913	5.83
484.114	5.93
484.315	5.97
484.517	6.22
484.718	6.01
484.92	5.97
485.121	5.91
485.322	5.77
485.524	5.63
485.725	5.73
485.926	5.57
486.127	5.33
486.329	5.25
486.53	5.38
486.731	5.19
486.932	5.36
487.134	5.43
487.335	5.59
487.536	5.8
487.737	5.94
487.938	5.92
488.139	6.15
488.341	6.48
488.542	6.61
488.743	6.38
488.944	6.54
489.145	6.7
489.346	6.65
489.547	6.46
489.748	6.4
489.949	6.14
490.15	6.1
490.351	5.99
490.552	5.94
490.753	5.8
490.954	5.94
491.155	5.86
491.356	5.85
491.557	5.87
491.758	5.94
491.959	6.05
492.159	6.23
492.36	6.71
492.561	6.93
492.762	7.18
492.963	7.4
493.164	7.33
493.364	7.65
493.565	7.68
493.766	7.67
493.967	7.57
494.167	7.47
494.368	7.59
494.569	7.02
494.769	6.72
494.97	6.6
495.171	6.52
495.371	6.43
495.572	6.12
495.773	6.11
495.973	6.29
496.174	6.77
496.375	6.87
496.575	7.18
496.776	6.82
496.976	7.29
497.177	7.36
497.377	7.49
497.578	7.52
497.778	7.64
497.979	7.57
498.179	7.82
498.38	7.45
498.58	7.42
498.78	7.34
498.981	8.05
499.181	7.91
499.382	8.18
499.582	8
499.782	8.17
499.983	8.36
500.183	8.49
500.383	8.28
500.584	8.28
500.784	8.1
500.984	7.74
501.184	7.6
501.385	7.37
501.585	7.01
501.785	7.01
501.985	7.02
502.185	6.82
502.386	6.66
502.586	6.84
502.786	6.92
502.986	6.58
503.186	6.73
503.386	6.41
503.586	6.32
503.786	6.55
503.987	6.75
504.187	6.63
504.387	6.64
504.587	7.06
504.787	6.91
504.987	6.99
505.187	7.27
505.387	7.55
505.587	8.12
505.786	7.96
505.986	7.82
506.186	7.72
506.386	7.98
506.586	8.38
506.786	8.24
506.986	8.32
507.186	8.31
507.386	7.96
507.585	7.91
507.785	7.77
507.985	8.05
508.185	8.04
508.384	8.4
508.584	8.03
508.784	7.77
508.984	7.29
509.183	7.15
509.383	7.14
509.583	7.29
509.782	7.93
509.982	7.88
510.182	8.09
510.381	8.04
510.581	7.94
510.781	8.4
510.98	8.48
511.18	9.04
511.379	8.99
511.579	9.19
511.778	9.48
511.978	8.93
512.177	9.44
512.377	9.46
512.576	9.82
512.776	9.92
512.975	10.16
513.175	10.45
513.374	10.61
513.573	11.18
513.773	11.64
513.972	12.13
514.172	12.32
514.371	12.24
514.57	12.73
514.77	12.56
514.969	12.76
515.168	12.52
515.367	12.24
515.567	11.91
515.766	11.86
515.965	11.62
516.164	11.23
516.364	11.26
516.563	10.72
516.762	10.17
516.961	10.56
517.16	10.12
517.359	10.01
517.559	10.32
517.758	10.71
517.957	10.41
518.156	9.81
518.355	9.67
518.554	9.59
518.753	9.53
518.952	9.45
519.151	9.17
519.35	9.22
519.549	9.36
519.748	9.21
519.947	8.92
520.146	9.36
520.345	9.98
520.544	10.06
520.743	10.11
520.942	10.38
521.141	10.98
521.339	10.94
521.538	11.39
521.737	11.9
521.936	11.67
522.135	11.78
522.333	11.34
522.532	11.76
522.731	11.95
522.93	11.92
523.129	12.17
523.327	12.15
523.526	12.21
523.725	11.79
523.923	11.53
524.122	12.13
524.321	12.15
524.519	12.35
524.718	12.05
524.917	11.86
525.115	11.69
525.314	11.35
525.512	11.2
525.711	11.15
525.909	10.97
526.108	10.7
526.306	10.46
526.505	10.52
526.703	10.48
526.902	10.52
527.1	10.54
527.299	10.8
527.497	11.03
527.696	11.01
527.894	11.05
528.092	11.35
528.291	11.42
528.489	11.49
528.688	11.37
528.886	11.34
529.084	11.52
529.283	11.72
529.481	11.59
529.679	11.94
529.877	11.96
530.076	11.96
530.274	12.06
530.472	12.3
530.67	12.45
530.869	12.49
531.067	12.67
531.265	12.65
531.463	12.63
531.661	12.78
531.859	12.52
532.057	12.64
532.255	12.71
532.454	12.55
532.652	12.42
532.85	12.54
533.048	12.92
533.246	13.16
533.444	13.02
533.642	12.9
533.84	12.81
534.038	12.59
534.236	12.73
534.434	12.86
534.632	13.33
534.83	13.91
535.027	13.61
535.225	12.93
535.423	13.05
535.621	13.14
535.819	13.27
536.017	13.45
536.215	13.72
536.412	13.69
536.61	14.03
536.808	14.21
537.006	13.68
537.203	13.91
537.401	14.91
537.599	14.85
537.797	15.01
537.994	15.14
538.192	15.13
538.39	15.24
538.587	15.65
538.785	15.26
538.983	15.02
539.18	14.9
539.378	14.75
539.575	14.47
539.773	14.18
539.97	14.05
540.168	14.05
540.366	14
540.563	13.82
540.761	13.39
540.958	13.39
541.155	13.32
541.353	13.58
541.55	13.73
541.748	13.66
541.945	13.82
542.143	13.95
542.34	14.11
542.537	14.23
542.735	14.66
542.932	15.29
543.129	15.39
543.327	15.63
543.524	15.53
543.721	15.36
543.919	15.59
544.116	15.65
544.313	16.42
544.51	16.66
544.708	16.86
544.905	17.05
545.102	16.63
545.299	16.65
545.496	16.43
545.693	16.76
545.891	17.33
546.088	17.06
546.285	17.07
546.482	16.47
546.679	16.39
546.876	16.67
547.073	16.94
547.27	17.06
547.467	17.15
547.664	17.48
547.861	17.38
548.058	17.44
548.255	18.17
548.452	18.8
548.649	19.4
548.846	19.9
549.043	19.71
549.24	19.15
549.437	19.18
549.633	19.21
549.83	19.46
550.027	19.72
550.224	19.43
550.421	19.18
550.618	19.28
550.814	18.99
551.011	18.81
551.208	19
551.405	18.99
551.601	19.31
551.798	19.88
551.995	19.69
552.191	20.14
552.388	20.42
552.585	20.37
552.781	20.35
552.978	20.74
553.175	20.87
553.371	20.59
553.568	20.96
553.764	21.55
553.961	21.65
554.157	22.24
554.354	22.13
554.55	22.39
554.747	22.95
554.943	22.88
555.14	23.16
555.336	23.42
555.533	24.05
555.729	24.77
555.926	24.11
556.122	24.12
556.318	23.85
556.515	24.49
556.711	24.59
556.907	24.16
557.104	23.96
557.3	23.75
557.496	23.61
557.693	23.15
557.889	23.3
558.085	23.95
558.281	24.34
558.478	23.98
558.674	23.02
558.87	23.22
559.066	23.68
559.262	24
559.459	24.16
559.655	24.99
559.851	25.31
560.047	24.95
560.243	25.42
560.439	25.55
560.635	25.98
560.831	26.54
561.027	26.4
561.223	26.69
561.419	26.72
561.615	26.62
561.811	26.03
562.007	26.01
562.203	25.9
562.399	24.83
562.595	25.19
562.791	25.64
562.987	25.68
563.183	26.02
563.379	25.9
563.575	25.68
563.771	25.94
563.966	25.37
564.162	25.31
564.358	25.14
564.554	25.77
564.75	25.02
564.945	25.01
565.141	24.75
565.337	24.25
565.533	24.39
565.728	24.49
565.924	24
566.12	24.76
566.315	25.35
566.511	25.43
566.707	25.53
566.902	26.13
567.098	25.27
567.293	25.66
567.489	25.88
567.684	25.91
567.88	26.25
568.076	26.53
568.271	26.25
568.467	26.71
568.662	26.74
568.858	26.71
569.053	25.99
569.248	26.96
569.444	26.38
569.639	26.39
569.835	26.31
570.03	26.73
570.225	26.76
570.421	26.6
570.616	25.52
570.812	25.5
571.007	25.72
571.202	26.36
571.397	26.04
571.593	27.14
571.788	27
571.983	27.27
572.178	26.85
572.374	26.73
572.569	27.13
572.764	27.52
572.959	27.4
573.154	27.19
573.35	27.08
573.545	27.34
573.74	26.62
573.935	26.88
574.13	26.92
574.325	27.53
574.52	27.69
574.715	27.04
574.91	27.1
575.105	27.59
575.3	28.14
575.495	27.69
575.69	27.66
575.885	28.2
576.08	28.42
576.275	27.93
576.47	27.31
576.665	27.71
576.86	28.46
577.055	28.55
577.25	28.77
577.444	27.73
577.639	28.45
577.834	28.36
578.029	28.48
578.224	28.48
578.418	29.11
578.613	29.5
578.808	29.6
579.003	29.6
579.197	29.86
579.392	29.05
579.587	29.88
579.781	29.23
579.976	30.13
580.171	29.62
580.365	29.77
580.56	30.41
580.755	30.1
580.949	29.85
581.144	29.89
581.338	29.32
581.533	29.49
581.727	29.7
581.922	29.79
582.116	29.12
582.311	28.83
582.505	28.16
582.7	27.82
582.894	29.14
583.089	29.82
583.283	29.99
583.478	30.62
583.672	30.86
583.866	30.86
584.061	31.14
584.255	30.89
584.449	31.13
584.644	31.27
584.838	30.96
585.032	29.46
585.226	28.77
585.421	28.66
585.615	28.65
585.809	28.76
586.003	28.27
586.198	28.18
586.392	27.53
586.586	27.22
586.78	27.3
586.974	27.71
587.168	27.79
587.363	27.48
587.557	27.6
587.751	27
587.945	27.43
588.139	26.8
588.333	27.31
588.527	28.41
588.721	29.08
588.915	29.12
589.109	29.27
589.303	29.06
589.497	28.87
589.691	29.24
589.885	29.22
590.079	29.47
590.273	30.25
590.466	30.39
590.66	30.68
590.854	31.06
591.048	30.9
591.242	30.03
591.436	30.89
591.629	31.35
591.823	31.25
592.017	32.5
592.211	32.95
592.404	32.68
592.598	31.97
592.792	31.15
592.986	30.17
593.179	30.72
593.373	30.86
593.567	30.77
593.76	31.36
593.954	30.55
594.147	29.66
594.341	28.79
594.535	28.83
594.728	28.73
594.922	28.92
595.115	29.12
595.309	29.09
595.502	28.62
595.696	28.2
595.889	27.74
596.083	28.1
596.276	28.56
596.47	28.32
596.663	28.84
596.856	28.69
597.05	29.19
597.243	30.36
597.437	29.92
597.63	30.72
597.823	31.55
598.017	32.33
598.21	32.65
598.403	32.24
598.596	33.11
598.79	32.94
598.983	34.21
599.176	34.06
599.369	32.99
599.563	33.66
599.756	34.01
599.949	33.01
600.142	32.89
600.335	33.11
600.528	33.41
600.722	33.25
600.915	33.06
601.108	33.5
601.301	33.14
601.494	33.32
601.687	33.16
601.88	32.3
602.073	32.35
602.266	32.21
602.459	32.09
602.652	32.06
602.845	31.63
603.038	31.87
603.231	31.18
603.424	31.64
603.617	31.66
603.809	31.8
604.002	32.24
604.195	32.38
604.388	32.24
604.581	32.57
604.774	32.37
604.966	32.95
605.159	32.63
605.352	32.75
605.545	32.96
605.737	33.29
605.93	33.04
606.123	33.25
606.316	33.25
606.508	32.33
606.701	31.93
606.894	32.65
607.086	31.81
607.279	32.63
607.471	32.62
607.664	31.83
607.857	31.83
608.049	31.54
608.242	31.19
608.434	31
608.627	31.65
608.819	31.81
609.012	31.06
609.204	31.25
609.397	31.54
609.589	32.17
609.782	32.34
609.974	31.73
610.166	32.71
610.359	32.84
610.551	33.09
610.743	33.15
610.936	33.14
611.128	34.32
611.32	35.48
611.513	34.69
611.705	33.77
611.897	34.21
612.09	34.97
612.282	34.66
612.474	34.93
612.666	35.91
612.858	36.23
613.051	35.45
613.243	34.53
613.435	34.18
613.627	33.93
613.819	34.91
614.011	34.02
614.203	34.08
614.395	33.83
614.588	34.27
614.78	33.57
614.972	33.54
615.164	35.26
615.356	36.07
615.548	36.39
615.74	37.16
615.932	37.02
616.124	38.23
616.315	37.64
616.507	39.34
616.699	38.59
616.891	39.84
617.083	39.43
617.275	39.34
617.467	39.8
617.659	39.24
617.85	39
618.042	38.76
618.234	39.12
618.426	39.96
618.618	38.79
618.809	39.62
619.001	39.81
619.193	39.73
619.384	39.11
619.576	37.45
619.768	37.13
619.959	36.45
620.151	36.41
620.343	35.7
620.534	36.07
620.726	34.91
620.917	34.56
621.109	32.37
621.301	33.31
621.492	33.67
621.684	34.17
621.875	34.86
622.067	35.19
622.258	34.54
622.45	33.74
622.641	33.45
622.832	33.58
623.024	34.03
623.215	34.79
623.407	33.73
623.598	34.1
623.789	34.54
623.981	34.86
624.172	34.7
624.363	34.83
624.555	35.66
624.746	35.02
624.937	35.76
625.129	35.04
625.32	34.72
625.511	35.37
625.702	34.56
625.893	34.1
626.085	33.52
626.276	33.31
626.467	33.45
626.658	33.04
626.849	32.58
627.04	32.06
627.231	32.16
627.422	32.95
627.614	32.82
627.805	32.81
627.996	33.58
628.187	34.16
628.378	34.33
628.569	34.95
628.76	35.05
628.951	34.59
629.142	34.33
629.332	34.72
629.523	34.81
629.714	34.53
629.905	34.66
630.096	34.73
630.287	33.62
630.478	33.92
630.669	33.25
630.859	33.67
631.05	34.88
631.241	35.44
631.432	36.15
631.623	36.26
631.813	36.84
632.004	37.09
632.195	37.35
632.385	37.21
632.576	37.27
632.767	37.21
632.957	36.38
633.148	36.42
633.339	36.49
633.529	35.7
633.72	36.26
633.91	36.13
634.101	36.05
634.292	35.77
634.482	37.23
634.673	36.99
634.863	37.42
635.054	37.81
635.244	37.77
635.435	38.24
635.625	38.27
635.815	36.69
636.006	37.42
636.196	37.11
636.387	37.46
636.577	36.68
636.767	36.1
636.958	37.32
637.148	38.38
637.338	38.8
637.529	38.12
637.719	38.11
637.909	38.71
638.099	38.34
638.29	38.81
638.48	38.82
638.67	38.79
638.86	39.46
639.05	37.72
639.241	37.1
639.431	37.05
639.621	38.06
639.811	38.67
640.001	39.84
640.191	40.62
640.381	40.7
640.571	39.5
640.761	40.59
640.951	41.53
641.141	42.22
641.331	42.52
641.521	43.42
641.711	42.44
641.901	41.57
642.091	40.25
642.281	38.81
642.471	38.13
642.661	39.79
642.851	38.3
643.041	38.25
643.231	37.25
643.42	37.81
643.61	35.85
643.8	36.91
643.99	37.31
644.18	37.94
644.369	38.59
644.559	39.68
644.749	38.13
644.939	39.79
645.128	38.98
645.318	39.79
645.508	39.24
645.697	41.17
645.887	40.13
646.076	40.71
646.266	40.4
646.456	39.24
646.645	39.26
646.835	40.08
647.024	39.6
647.214	40.59
647.403	40.8
647.593	40.16
647.782	38.47
647.972	38.75
648.161	38.03
648.351	38.64
648.54	39.28
648.73	38.6
648.919	37.71
649.108	37.16
649.298	36.92
649.487	36.69
649.677	37.56
649.866	38.13
650.055	38.05
650.244	38.46
650.434	39.21
650.623	39.72
650.812	40.69
651.002	41.63
651.191	42.77
651.38	42.43
651.569	43.14
651.758	42.49
651.947	42.18
652.137	42.62
652.326	42.44
652.515	40.75
652.704	40.53
652.893	40.04
653.082	40.93
653.271	40.77
653.46	41.2
653.649	41.3
653.838	41.24
654.027	40.8
654.216	40.84
654.405	41.71
654.594	42.19
654.783	40.99
654.972	40.75
655.161	39.18
655.35	38.68
655.539	38.12
655.728	37.31
655.916	37.65
656.105	39.58
656.294	39.99
656.483	38.65
656.672	38.55
656.86	40.31
657.049	40.21
657.238	40.23
657.427	39.44
657.615	40.08
657.804	39.07
657.993	38.58
658.181	38.41
658.37	37.81
658.559	38.37
658.747	38.51
658.936	38.07
659.125	38.12
659.313	37.93
659.502	38.79
659.69	37.91
659.879	38.97
660.067	40.53
660.256	40.13
660.444	40.8
660.633	39.98
660.821	40.84
661.01	40.39
661.198	39.94
661.387	39.74
661.575	39.74
661.763	41.18
661.952	42.09
662.14	41.78
662.328	43.35
662.517	43.2
662.705	43.56
662.893	42.67
663.082	43.59
663.27	43.79
663.458	44.39
663.646	44.8
663.834	43.98
664.023	43.25
664.211	43.89
664.399	42.22
664.587	42.35
664.775	42.79
664.963	42.33
665.152	42.41
665.34	43.64
665.528	42.58
665.716	42.18
665.904	42.65
666.092	43.16
666.28	43.02
666.468	43.17
666.656	43.87
666.844	44.53
667.032	43.83
667.22	42.41
667.408	42.3
667.596	43.32
667.784	42.81
667.971	42.29
668.159	42.72
668.347	42.53
668.535	42.78
668.723	40.54
668.911	40.21
669.098	41.93
669.286	43.41
669.474	44.07
669.662	44.73
669.849	45.18
670.037	45.03
670.225	43.49
670.413	42.37
670.6	42.53
670.788	43.7
670.976	43.77
671.163	43.94
671.351	43.67
671.538	42.36
671.726	42.83
671.913	43.4
672.101	43.91
672.289	45.92
672.476	46.19
672.664	46.3
672.851	46.21
673.039	45.21
673.226	44.93
673.413	45.69
673.601	44.87
673.788	44.09
673.976	43.4
674.163	44.45
674.35	43.99
674.538	43.33
674.725	42.57
674.912	42.98
675.1	43.79
675.287	42.91
675.474	41.95
675.662	42.44
675.849	42.06
676.036	42.36
676.223	42.97
676.411	42.27
676.598	42.64
676.785	40.93
676.972	41.26
677.159	41.23
677.346	42.79
677.533	41.89
677.721	41.9
677.908	43.62
678.095	43.81
678.282	41.19
678.469	40.61
678.656	41.19
678.843	42.72
679.03	42.3
679.217	41.91
679.404	40.37
679.591	41.11
679.778	41.21
679.964	40.57
680.151	38.82
680.338	40.27
680.525	40.99
680.712	40.33
680.899	40.68
681.086	40.52
681.272	41.75
681.459	42.64
681.646	41.5
681.833	42.21
682.02	40.57
682.206	41.34
682.393	40.39
682.58	39.63
682.766	40.08
682.953	40.3
683.14	42.16
683.326	41.59
683.513	42.04
683.7	42.67
683.886	42.63
684.073	43.67
684.259	42.63
684.446	42.03
684.632	42.4
684.819	41.28
685.005	40.7
685.192	38.12
685.378	38.2
685.565	37.47
685.751	38.46
685.938	39.33
686.124	39.57
686.31	41.31
686.497	41.77
686.683	42.93
686.87	42.56
687.056	41.89
687.242	42.68
687.429	42.49
687.615	43.02
687.801	42.4
687.987	41.41
688.174	40.69
688.36	39.78
688.546	39.04
688.732	37.09
688.918	38.5
689.105	39.56
689.291	40.69
689.477	41.19
689.663	40.04
689.849	42.17
690.035	42.1
690.221	41.92
690.407	43.68
690.593	45.58
690.779	47.2
690.965	46.32
691.151	46.44
691.337	44.81
691.523	43.17
691.709	43.95
691.895	42.03
692.081	40.47
692.267	41.05
692.453	40.71
692.639	39.28
692.825	39.52
693.011	41.2
693.196	41.72
693.382	41.95
693.568	42.71
693.754	42.92
693.94	41.96
694.125	43.56
694.311	43.65
694.497	44.59
694.682	45.79
694.868	45.17
695.054	43.54
695.239	42.6
695.425	43.26
695.611	44.42
695.796	43.82
695.982	44.14
696.168	44.39
696.353	43.28
696.539	41.58
696.724	39.87
696.91	39.06
697.095	38.93
697.281	39.79
697.466	38.36
697.652	39.11
697.837	38.15
698.023	37.33
698.208	35.95
698.393	35.82
698.579	34.96
698.764	35.74
698.949	36.58
699.135	36.18
699.32	35.71
699.505	36.53
699.691	34.08
699.876	34.82
700.061	36.44
700.246	36.78
700.432	38.72
700.617	38.79
700.802	39.6
700.987	39.96
701.172	43.27
701.358	44.09
701.543	44.2
701.728	42.12
701.913	43.94
702.098	42.94
702.283	43.65
702.468	42.09
702.653	44.79
702.838	44.64
703.023	43.24
703.208	38.45
703.393	36.17
703.578	36.03
703.763	40.88
703.948	40.01
704.133	40.02
704.318	40.18
704.503	42.25
704.688	40.89
704.873	41.47
705.057	41.65
705.242	46.19
705.427	48.08
705.612	49.3
705.797	48.61
705.981	46.97
706.166	49.07
706.351	50.05
706.536	49.45
706.72	48.76
706.905	48.34
707.09	48.78
707.274	47.22
707.459	45.25
707.644	45.01
707.828	43.15
708.013	44.19
708.197	44.87
708.382	43.57
708.567	43.94
708.751	44.72
708.936	43.74
709.12	43.93
709.305	45.02
709.489	46.71
709.673	46.99
709.858	48.53
710.042	48.84
710.227	47.36
710.411	48
710.596	45.78
710.78	45.12
710.964	46.52
711.149	46.32
711.333	46.58
711.517	46.44
711.702	47.23
711.886	47.92
712.07	46.95
712.254	46.67
712.438	46.77
712.623	48.85
712.807	49.62
712.991	51.03
713.175	51
713.359	48.76
713.544	47.48
713.728	45.8
713.912	44.95
714.096	46.62
714.28	44.78
714.464	44.36
714.648	41.49
714.832	40.52
715.016	38.43
715.2	37.83
715.384	36.59
715.568	36.18
715.752	34.48
715.936	34.08
716.12	34.48
716.304	37.02
716.488	36.33
716.671	36.55
716.855	34.88
717.039	32.27
717.223	32.11
717.407	34.31
717.59	34.41
717.774	35.22
717.958	33.56
718.142	30.52
718.325	29.72
718.509	30.74
718.693	31.27
718.877	33.36
719.06	32.49
719.244	34.87
719.428	33.53
719.611	37.34
719.795	39.67
719.978	39.53
720.162	42.07
720.345	41.77
720.529	42.75
720.713	47.95
720.896	48.93
721.08	51.65
721.263	50.12
721.446	53.23
721.63	52.56
721.813	51.57
721.997	52.32
722.18	51.84
722.364	51.36
722.547	51.26
722.73	45.32
722.914	45.19
723.097	43.4
723.28	42.99
723.464	42.72
723.647	40.88
723.83	40.67
724.013	41.54
724.197	40.15
724.38	41.03
724.563	39.91
724.746	42.41
724.929	40.81
725.112	40.39
725.296	41.11
725.479	38.16
725.662	37.31
725.845	36.01
726.028	34.98
726.211	35.25
726.394	35.45
726.577	35.66
726.76	37.29
726.943	38.8
727.126	42.29
727.309	41.8
727.492	41.4
727.675	43.59
727.858	44.03
728.041	43.47
728.224	43.7
728.407	42.46
728.589	42.34
728.772	39.23
728.955	39.37
729.138	37.98
729.321	38.57
729.503	39.76
729.686	39.52
729.869	40.21
730.052	42.06
730.234	41.98
730.417	45.23
730.6	44.68
730.782	47.59
730.965	46.67
731.148	45.33
731.33	47.95
731.513	49.52
731.695	48.54
731.878	50.51
732.061	48.76
732.243	47.39
732.426	46.24
732.608	46.88
732.791	43.57
732.973	43.38
733.156	46.19
733.338	45.02
733.52	43.27
733.703	43.02
733.885	43.87
734.068	46.73
734.25	48.86
734.432	49.57
734.615	48.87
734.797	51.45
734.979	55.31
735.162	54.8
735.344	54.96
735.526	58.98
735.708	59.93
735.891	57.91
736.073	58.63
736.255	59.12
736.437	58.86
736.619	62.11
736.802	62.83
736.984	62.78
737.166	64.34
737.348	62.62
737.53	62.79
737.712	63.99
737.894	64.89
738.076	66.32
738.258	67.52
738.44	66.2
738.622	65.78
738.804	62.81
738.986	59.97
739.168	58.63
739.35	62.39
739.532	62.79
739.714	59.15
739.896	60.44
740.078	57.62
740.259	54.82
740.441	55.92
740.623	52.97
740.805	57.98
740.987	62.11
741.168	66.56
741.35	62.8
741.532	62.39
741.714	64.25
741.895	61.41
742.077	63.32
742.259	67.45
742.44	67.39
742.622	70.19
742.804	69.69
742.985	66.71
743.167	63.71
743.348	68.11
743.53	64.48
743.711	67.86
743.893	71.96
744.075	71.03
744.256	68.49
744.438	69.08
744.619	70.63
744.8	73.43
744.982	76.86
745.163	78.79
745.345	77.99
745.526	79.64
745.707	76.93
745.889	73.32
746.07	75.88
746.252	77.5
746.433	78.81
746.614	78.23
746.795	78.41
746.977	80.97
747.158	80.64
747.339	79.24
747.52	76.97
747.702	82.67
747.883	82.44
748.064	78.71
748.245	79.61
748.426	77.24
748.607	73.67
748.788	70.44
748.97	65.86
749.151	60.35
749.332	57.96
749.513	62.2
749.694	58.51
749.875	60.36
750.056	63.65
750.237	61.04
750.418	61.91
750.599	66.18
750.78	68.74
750.96	67.77
751.141	74.63
751.322	77.92
751.503	75.6
751.684	73.87
751.865	72.91
752.046	68.59
752.226	74.09
752.407	72.63
752.588	67.44
752.769	66.34
752.949	67.77
753.13	64.89
753.311	65.22
753.492	65.38
753.672	65.61
753.853	65.47
754.034	67.38
754.214	62.46
754.395	66.53
754.575	70.09
754.756	67.29
754.937	66.88
755.117	70.78
755.298	70.13
755.478	70.58
755.659	70.27
755.839	69.23
756.02	69.6
756.2	68.26
756.381	65.32
756.561	65.2
756.741	64.68
756.922	61.78
757.102	55.91
757.283	48.62
757.463	46.75
757.643	46.4
757.823	43.47
758.004	37.97
758.184	41.64
758.364	41.82
758.545	39.01
758.725	41.38
758.905	43.12
759.085	42.94
759.265	48.5
759.446	49.62
759.626	45.24
759.806	47.19
759.986	47.61
760.166	44.26
760.346	41.48
760.526	42.77
760.706	41.66
760.886	41.41
761.066	40.58
761.246	38.1
761.426	36.82
761.606	37.44
761.786	35.46
761.966	36.02
762.146	35.62
762.326	36.15
762.506	36.23
762.686	35.05
762.866	34.6
763.046	34.33
763.225	33.94
763.405	31.73
763.585	31.64
763.765	33.09
763.945	36.24
764.124	39.75
764.304	40.95
764.484	40.8
764.664	42.19
764.843	45.53
765.023	50.79
765.203	52.81
765.382	54.5
765.562	58.82
765.741	61.08
765.921	59.49
766.101	56.54
766.28	60.82
766.46	62.51
766.639	65.55
766.819	65.73
766.998	63.56
767.178	70.68
767.357	77.4
767.537	79.91
767.716	80.35
767.896	82.44
768.075	90.91
768.254	94.95
768.434	95.9
768.613	97.63
768.792	99.76
768.972	99.12
769.151	88.87
769.33	84.06
769.51	84.97
769.689	84.67
769.868	85.17
770.047	83.61
770.226	82.08
770.406	80.43
770.585	78.29
770.764	74.88
770.943	79.97
771.122	77.91
771.301	77.72
771.48	76.62
771.66	76.67
771.839	81.63
772.018	79.68
772.197	80.33
772.376	83.99
772.555	85.34
772.734	84.83
772.913	93.48
773.092	107.63
773.271	116.41
773.449	126.97
773.628	118.34
773.807	110.67
773.986	109.9
774.165	103.93
774.344	108.67
774.523	114.09
774.701	119.74
774.88	110.61
775.059	108.32
775.238	101.85
775.417	92.47
775.595	96.29
775.774	100.96
775.953	97.1
776.131	96.9
776.31	94.48
776.489	84.85
776.667	85.64
776.846	80.6
777.025	74.96
777.203	79.65
777.382	88.11
777.56	87.6
777.739	82.3
777.917	82.04
778.096	83.41
778.274	83.53
778.453	87.29
778.631	80.65
778.81	84.18
778.988	82.68
779.166	82.81
779.345	75.57
779.523	73.48
779.702	74.43
779.88	73.94
780.058	75.18
780.237	69.04
780.415	62.22
780.593	64.42
780.771	65.63
780.95	75.66
781.128	75.27
781.306	82.2
781.484	86.51
781.662	93.5
781.841	93.46
782.019	86.02
782.197	96.95
782.375	109.2
782.553	116.86
782.731	123.72
782.909	106.33
783.087	108.26
783.265	103.9
783.443	96.42
783.621	91.7
783.799	99.74
783.977	98.93
784.155	89.51
784.333	84.96
784.511	80.5
784.689	74.53
784.867	81.81
785.045	77
785.223	75.75
785.4	77.23
785.578	80.69
785.756	75.1
785.934	72.76
786.112	78.02
786.289	78.23
786.467	76.28
786.645	78.85
786.823	76.83
787	72.27
787.178	74.09
787.356	76.76
787.533	72.28
787.711	73.96
787.889	77.05
788.066	75.16
788.244	69.84
788.421	68.97
788.599	61.8
788.776	56.15
788.954	57.42
789.131	54.55
789.309	57.91
789.486	51.38
789.664	53.82
789.841	51.81
790.019	56.27
790.196	67.07
790.373	67.26
790.551	73.97
790.728	79.21
790.906	81.89
791.083	78.26
791.26	75.25
791.437	88.99
791.615	87.53
791.792	94.17
791.969	88.14
792.146	89.81
792.324	92.37
792.501	87.05
792.678	86
792.855	83.49
793.032	87.99
793.209	84.18
793.387	77.05
793.564	73.83
793.741	68.37
793.918	65.15
794.095	64.13
794.272	61.73
794.449	60.64
794.626	54.41
794.803	53.3
794.98	50.34
795.157	49.98
795.334	43.39
795.511	53.05
795.688	58.74
795.864	67.18
796.041	65.68
796.218	70.33
796.395	77.51
796.572	83.08
796.749	82.43
796.925	88.28
797.102	87.65
797.279	94.47
797.456	80.44
797.632	78.6
797.809	79.12
797.986	75.72
798.162	64.09
798.339	60.88
798.516	56.89
798.692	60.26
798.869	48.38
799.046	55.96
799.222	53.99
799.399	63.23
799.575	60.85
799.752	60.43
799.928	58.82
800.105	63.42
800.281	68.1
800.458	72.41
800.634	70.08
800.811	80.18
800.987	81.29
801.163	81.55
801.34	79.78
801.516	75.99
801.692	85.85
801.869	92.68
802.045	97.4
802.221	95.68
802.398	97.52
802.574	91.39
802.75	92.16
802.926	98.69
803.103	99.87
803.279	107.48
803.455	114.11
803.631	101.75
803.807	101.17
803.983	91.44
804.16	87.39
804.336	78.48
804.512	79.95
804.688	70.03
804.864	64.55
805.04	65.21
805.216	63.91
805.392	59.14
805.568	64.34
805.744	58.45
805.92	54.96
806.096	60.48
806.272	63.8
806.448	66.6
806.623	73
806.799	74.22
806.975	69.65
807.151	69.02
807.327	72.75
807.503	64.98
807.678	73.51
807.854	86.38
808.03	87.39
808.206	90.96
808.381	107.79
808.557	99.7
808.733	98.77
808.908	98.82
809.084	98.89
809.26	105.56
809.435	110.45
809.611	107.69
809.787	98.72
809.962	100.49
810.138	101.09
810.313	98.49
810.489	105.97
810.664	104.29
810.84	102.16
811.015	115.06
811.191	92.73
811.366	99.32
811.542	80.09
811.717	88.07
811.892	69.14
812.068	78.59
812.243	57.87
812.419	38.61
812.594	61.96
812.769	66.63
812.944	67.24
813.12	59.45
813.295	50.3
813.47	54.4
813.645	55.16
813.821	63.13
813.996	52.65
814.171	58.52
814.346	53.32
814.521	49.17
814.697	54.5
814.872	46.1
815.047	54.65
815.222	64.47
815.397	64.15
815.572	65.15
815.747	64.04
815.922	60.98
816.097	50.96
816.272	55.75
816.447	54.23
816.622	51.8
816.797	45.74
816.972	48.09
817.147	41.78
817.322	46.59
817.496	41.71
817.671	40.23
817.846	51.28
818.021	53.6
818.196	53.81
818.371	52.06
818.545	52.53
818.72	54.27
818.895	53.91
819.069	54.3
819.244	48.77
819.419	45.31
819.594	42.12
819.768	37.7
819.943	32.67
820.117	31.56
820.292	32
820.467	29.35
820.641	27.42
820.816	24.67
820.99	22.45
821.165	22.66
821.339	21.63
821.514	20.5
821.688	19.36
821.863	21.61
822.037	21.21
822.212	21.87
822.386	21.38
822.56	23.53
822.735	25.27
822.909	29.2
823.084	29.56
823.258	32.9
823.432	33.04
823.606	34.42
823.781	31.74
823.955	32.56
824.129	29.51
824.303	29.82
824.478	28.52
824.652	19.84
824.826	14.72
825	13.94
825.174	8.25
825.348	15.21
825.523	16.91
825.697	15.78
825.871	16.82
826.045	18.78
826.219	17.46
826.393	18.47
826.567	24.85
826.741	28.23
826.915	30.88
827.089	33.23
827.263	30.35
827.437	30.76
827.611	36.47
827.784	30.96
827.958	28.35
828.132	30.72
828.306	32.34
828.48	26.26
828.654	26.68
828.827	31.18
829.001	38.31
829.175	44.26
829.349	43.89
829.522	43.31
829.696	65.17
829.87	66.19
830.044	76.15
830.217	56.26
830.391	71.53
830.565	43.76
830.738	46.44
830.912	38.31
831.085	32.14
831.259	33.75
831.432	28.97
831.606	29.79
831.779	32.34
831.953	27.65
832.126	31.04
832.3	33.57
832.473	46.83
832.647	34.34
832.82	37.06
832.994	38.1
833.167	40.17
833.34	43.88
833.514	47.88
833.687	45.71
833.86	44.91
834.034	51.58
834.207	49.07
834.38	41.98
834.553	53.93
834.727	54.45
834.9	48.48
835.073	46.69
835.246	41.37
835.419	36.89
835.593	38.77
835.766	27.86
835.939	20.26
836.112	45.1
836.285	83.2
836.458	124.05
836.631	110.02
836.804	143.22
836.977	112.56
837.15	103.02
837.323	58.16
837.496	53.11
837.669	62.23
837.842	76.44
838.015	61.83
838.188	37.77
838.361	21.62
838.533	17.97
838.706	28.64
838.879	28.77
839.052	23.18
839.225	40.27
839.398	49.65
839.57	49.31
839.743	50.4
839.916	43.09
840.088	44.36
840.261	49.96
840.434	47.49
840.607	39.75
840.779	43.29
840.952	53.5
841.124	57.38
841.297	42.68
841.47	41.56
841.642	26.16
841.815	29.57
841.987	65.07
842.16	-50.98
842.332	-82.35
842.505	-30.77
842.677	-70.83
842.85	-361.76
843.022	2180
843.194	483.87
843.367	12.2
843.539	32.91
843.712	4.2
843.884	-36.95
844.056	-65.78
844.229	-94
844.401	-373.45
844.573	-609.64
844.745	567.82
844.918	293.33
845.09	185.36
845.262	126.71
845.434	149.1
845.606	130.93
845.779	107.63
845.951	99.9
846.123	91.58
846.295	96.6
846.467	94.7
846.639	110.53
846.811	116.61
846.983	126.9
847.155	221.17
847.327	430.72
847.499	454.29
847.671	427.95
847.843	-2615.79
848.015	-1725.81
848.187	986.21
848.359	4858.33
848.531	446.79
848.703	307.03
848.875	315.82
849.047	197.66
849.218	139.13
849.39	202.88
849.562	-500
849.734	114.93
849.905	533.33
850.077	104.17
850.249	64.69
850.421	170.05
850.592	145.28
850.764	122.05
850.936	128.31
851.107	156.43
851.279	224.06
851.451	131.72
851.622	122.14
851.794	87.42
851.965	98.34
852.137	158.98
852.308	180.56
852.48	197.6
852.651	228.33
852.823	214.94
852.994	154.48
853.166	164.46
853.337	178.14
853.509	250.19
853.68	496.53
853.851	-2157.14
854.023	438.02
854.194	330.97
854.365	-13950
854.537	-2954.55
854.708	2042.86
854.879	829.79
855.05	228.82
855.222	183.91
855.393	235.05
855.564	90.03
855.735	69.36
855.906	69.38
856.078	85.95
856.249	80.75
856.42	59.53
856.591	48.09
856.762	37.96
856.933	44.16
857.104	40
857.275	36.38
857.446	41.69
857.617	35.84
857.788	58.62
857.959	61.4
858.13	133.93
858.301	139.62
858.472	195.59
858.643	175.51
858.814	74.77
858.985	99.11
859.155	164.59
859.326	108.05
859.497	164.13
859.668	129.66
859.839	101.19
860.009	73.45
860.18	74.42
860.351	80.45
860.522	70.92
860.692	76.55
860.863	48.97
861.034	49.12
861.204	54.59
861.375	42.84
861.546	52.29
861.716	53.41
861.887	84.14
862.057	102.71
862.228	75.08
862.398	88.73
862.569	111.57
862.739	191.38
862.91	176.19
863.08	646.15
863.251	494.17
863.421	482.73
863.592	287.86
863.762	-331.25
863.932	-324.19
864.103	-1220.83
864.273	-165
864.443	800
864.614	232.28
864.784	1125.64
864.954	1381.82
865.125	-1012.12
865.295	-1627.78
865.465	566.67
865.635	167.69
865.805	131.76
865.976	147.16
866.146	92.15
866.316	96.4
866.486	89.44
866.656	60.7
866.826	61.84
866.996	70.94
867.166	67.96
867.336	44.3
867.506	41.67
867.676	59.78
867.846	37.64
868.016	47.63
868.186	32.75
868.356	37.91
868.526	168
868.696	286.08
868.866	1.2
869.036	11.86
869.206	-1176.47
869.376	-3040
869.545	1510
869.715	362.5
869.885	-278.87
870.055	-284.93
870.224	327.56
870.394	223.53
870.564	-107.04
870.734	380.87
870.903	269.91
871.073	96.76
871.243	100
871.412	101.15
871.582	92.99
871.751	49.77
871.921	34.66
872.091	3.27
872.26	102.87
872.43	66.4
872.599	70
872.769	94.14
872.938	70.7
873.108	79.4
873.277	88.59
873.446	100.15
873.616	106.59
873.785	138.92
873.955	150.42
874.124	160.75
874.293	218.54
874.463	141.01
874.632	151.56
874.801	237.58
874.971	181.93
875.14	198.43
875.309	325.41
875.478	256.99
875.647	113.42
875.817	124.69
875.986	79.39
876.155	77.04
876.324	119.47
876.493	162.38
876.662	120.83
876.831	118.62
877	111.35
877.17	83.05
877.339	79.27
877.508	123.4
877.677	105.97
877.846	160.33
878.015	138.54
878.184	91.24
878.352	58.93
878.521	59.02
878.69	64.2
878.859	42.69
879.028	29.17
879.197	28.44
879.366	18.9
879.534	10.22
879.703	10.16
879.872	14.96
880.041	16.54
880.21	11.48
880.378	15
880.547	17.51
880.716	23.51
880.884	27.87
881.053	34.3
881.222	34.91
881.39	36.64
881.559	34.83
881.727	33.66
881.896	31.69
882.065	31.1
882.233	31.03
882.402	36.23
882.57	32.98
882.739	35.69
882.907	29.43
883.076	32.2
883.244	33.57
883.412	40.72
883.581	55.91
883.749	61.97
883.918	70.14
884.086	57.57
884.254	47.08
884.423	63.57
884.591	55.29
884.759	54.56
884.927	46
885.096	59.14
885.264	46.88
885.432	36.85
885.6	46.9
885.769	43.98
885.937	75.41
886.105	94.29
886.273	72.06
886.441	75.91
886.609	71.27
886.777	76.97
886.945	72.73
887.113	103.4
887.281	91.08
887.449	112.5
887.617	122.78
887.785	119.45
887.953	108.49
888.121	103.91
888.289	98.18
888.457	126.47
888.625	194.79
888.793	225.97
888.961	227.58
889.129	190.22
889.296	152.63
889.464	101.61
889.632	-56.58
889.8	-400
889.967	173.2
890.135	186.9
