Data from JASIL_3333_Reflection_1.txt Node
Date: Tue Nov 17 20:18:05 EST 2015
User: Geneva
Spectrometer: USB4E03002
Autoset integration time: false
Trigger mode: 4
Integration Time (sec): 1.000000E-1
Scans to average: 10
Electric dark correction enabled: false
Nonlinearity correction enabled: false
Boxcar width: 5
Stray light correction enabled: false
XAxis mode: Wavelengths
Stop averaging: false
Number of Pixels in Spectrum: 3648
>>>>>Begin Spectral Data<<<<<
177.575	-612.87
177.794	-759.78
178.014	-764.04
178.233	-1300
178.452	-1218.33
178.672	-779.53
178.891	-1763.79
179.11	9790
179.33	2200
179.549	1917.65
179.768	-9290.91
179.987	692.42
180.207	345.9
180.426	584.93
180.645	732
180.864	5605.88
181.084	525.3
181.303	388.39
181.522	501.15
181.741	445.51
181.96	862.63
182.179	4564.71
182.398	-1135.06
182.618	-438.81
182.837	-370.95
183.056	-432.24
183.275	-370.56
183.494	-124.68
183.713	-98.06
183.932	-86.4
184.151	-63.45
184.37	-46.32
184.589	-77.63
184.808	-68.01
185.027	-70.18
185.246	-163.81
185.465	-169.66
185.684	-242.67
185.903	-411.33
186.122	-586.25
186.341	-1301.77
186.56	-911.9
186.779	-5196.3
186.998	-652.91
187.216	-608.33
187.435	-613.33
187.654	-587.88
187.873	-323.66
188.092	-325
188.311	-503.57
188.53	-310.33
188.748	-155.26
188.967	-164.65
189.186	-133.33
189.405	-269.08
189.623	-254.69
189.842	-268.44
190.061	-198.03
190.28	-131.91
190.498	-188.8
190.717	-99.82
190.936	-113.46
191.154	-320.88
191.373	-679.31
191.592	1286.05
191.81	534.95
192.029	517.89
192.248	240.2
192.466	322.1
192.685	169.05
192.904	383.17
193.122	294.51
193.341	352.1
193.559	402.82
193.778	501.66
193.996	494.31
194.215	1247.83
194.433	675.71
194.652	703.5
194.87	575
195.089	636.92
195.307	1329.82
195.526	-930.61
195.744	-648.2
195.963	-739.33
196.181	-911.57
196.399	-1344.83
196.618	1713.16
196.836	894.33
197.055	905.41
197.273	973.13
197.491	1208.11
197.71	578.97
197.928	499.01
198.146	515.07
198.365	2876.19
198.583	1815.87
198.801	-781.45
199.019	-234.3
199.238	-203.33
199.456	-193.28
199.674	-267.16
199.892	-209.27
200.111	-211.27
200.329	-240.86
200.547	-301.6
200.765	2123.53
200.983	-938.46
201.202	1640.79
201.42	546.79
201.638	390.07
201.856	577.35
202.074	804.67
202.292	439.29
202.51	351.65
202.728	366.31
202.946	2900
203.165	1498.08
203.383	320.94
203.601	411.68
203.819	580.91
204.037	-1518.18
204.255	-1785.19
204.473	-365.03
204.691	-368.82
204.909	-281.86
205.127	-1552.08
205.345	509.09
205.562	-589.92
205.78	-101.65
205.998	-115.99
206.216	-116.42
206.434	-162.83
206.652	-228.75
206.87	-429.34
207.088	-298.1
207.306	-364.16
207.523	-275.11
207.741	-176.07
207.959	-332.43
208.177	-493.78
208.395	-410.78
208.612	-466.2
208.83	-300
209.048	-279.88
209.266	-233.43
209.483	-166.21
209.701	-167.93
209.919	-168.15
210.136	-190.84
210.354	-176.87
210.572	-168.94
210.79	-204.67
211.007	-373.94
211.225	-4293.33
211.442	1025.42
211.66	3236
211.878	290.37
212.095	1007.33
212.313	1456.78
212.53	801.9
212.748	691.24
212.966	536.81
213.183	668.87
213.401	-8383.33
213.618	-582.94
213.836	-519.11
214.053	-666.06
214.271	-483.65
214.488	-239.73
214.705	-196.65
214.923	-187.83
215.14	-125.99
215.358	-91.69
215.575	-79.88
215.793	-134.05
216.01	-389.1
216.227	-640.52
216.445	-561.81
216.662	-265.52
216.879	-311.74
217.097	-180.52
217.314	-222.96
217.531	7362.5
217.749	657.43
217.966	432.42
218.183	319.72
218.4	498.71
218.618	501.32
218.835	312.45
219.052	319.85
219.269	313.13
219.487	177.84
219.704	178.14
219.921	218.15
220.138	272.87
220.355	218.74
220.572	193.09
220.79	182.39
221.007	257.82
221.224	385.93
221.441	386.74
221.658	403.42
221.875	-2077.14
222.092	-795.45
222.309	2348.48
222.526	413.94
222.743	440.58
222.96	600.72
223.177	1595.35
223.394	832.89
223.611	512.59
223.828	288.8
224.045	220.2
224.262	197.71
224.479	226.37
224.696	375.48
224.913	589.26
225.13	562.26
225.347	433.1
225.564	271.66
225.781	207.03
225.997	153.75
226.214	136.75
226.431	120.54
226.648	98.91
226.865	65.48
227.082	67.29
227.298	76.6
227.515	64.58
227.732	70.92
227.949	59.89
228.165	53.49
228.382	49.95
228.599	51.47
228.816	57.51
229.032	60.19
229.249	71.16
229.466	65.08
229.682	69.29
229.899	84
230.116	89.56
230.332	97.24
230.549	98.5
230.765	97.86
230.982	89.55
231.199	86.09
231.415	93.4
231.632	93.07
231.848	81.04
232.065	72.3
232.281	53.73
232.498	45.41
232.714	46.41
232.931	60.23
233.147	59.43
233.364	72.81
233.58	73.16
233.797	72.48
234.013	82.94
234.23	120.33
234.446	131.29
234.662	166.8
234.879	237.77
235.095	200.19
235.312	166.67
235.528	171.53
235.744	205.21
235.961	230.81
236.177	213.62
236.393	268.18
236.61	193.15
236.826	176.26
237.042	128.57
237.258	137.87
237.475	142.84
237.691	191.54
237.907	119.85
238.123	109.84
238.339	111.27
238.556	102.66
238.772	84.59
238.988	85.29
239.204	63.29
239.42	64.81
239.636	56.03
239.853	48.93
240.069	42.43
240.285	43.5
240.501	39.06
240.717	34.29
240.933	33.18
241.149	31.77
241.365	26.88
241.581	29.6
241.797	31.85
242.013	32
242.229	32.67
242.445	31.38
242.661	33.94
242.877	33.75
243.093	37.25
243.309	38.04
243.525	36.3
243.741	42.27
243.957	38.6
244.173	35.38
244.388	35.79
244.604	36.69
244.82	33.02
245.036	32.76
245.252	30.51
245.468	29.43
245.683	28.83
245.899	26.97
246.115	24.47
246.331	25.64
246.547	25.25
246.762	25.06
246.978	24.2
247.194	27.51
247.409	26.25
247.625	25.46
247.841	25.36
248.057	24.96
248.272	27.83
248.488	29.42
248.703	27.74
248.919	31.88
249.135	31.12
249.35	30.84
249.566	29.07
249.782	30.26
249.997	29.08
250.213	31.06
250.428	30.51
250.644	26.29
250.859	24.01
251.075	25.44
251.29	20.97
251.506	20.56
251.721	22.51
251.937	20.71
252.152	21.3
252.368	23.35
252.583	19.79
252.798	23.24
253.014	26.28
253.229	26.77
253.445	27.9
253.66	29.3
253.875	26.98
254.091	27.91
254.306	33.63
254.521	19.55
254.737	22.94
254.952	28.39
255.167	22.55
255.383	17.69
255.598	19.42
255.813	14.16
256.028	12.87
256.244	16
256.459	16.13
256.674	18.03
256.889	24.66
257.104	22.07
257.32	18.57
257.535	17.23
257.75	19.25
257.965	17.8
258.18	17.26
258.395	16.09
258.61	13.09
258.826	11.15
259.041	10.02
259.256	8.61
259.471	8.91
259.686	9.16
259.901	10.35
260.116	11.29
260.331	11.84
260.546	12.05
260.761	13.18
260.976	15.89
261.191	17.97
261.406	17.53
261.621	17.74
261.836	19.36
262.05	20.95
262.265	21.03
262.48	19.07
262.695	18.05
262.91	17.23
263.125	16.52
263.34	14.92
263.555	11.24
263.769	11.72
263.984	12.99
264.199	15.01
264.414	14.91
264.629	15.54
264.843	17.99
265.058	22.49
265.273	21.32
265.488	21.23
265.702	23.51
265.917	28.55
266.132	26.8
266.346	28.35
266.561	27.24
266.776	26.54
266.99	22.99
267.205	22.91
267.42	17.94
267.634	17.42
267.849	18.36
268.063	15.96
268.278	13.68
268.492	15.42
268.707	14.64
268.922	15.44
269.136	16.8
269.351	18.52
269.565	17.47
269.78	18.61
269.994	20.63
270.209	18.57
270.423	16.4
270.637	13.51
270.852	12.98
271.066	13.07
271.281	13.57
271.495	11.36
271.709	11.52
271.924	10.87
272.138	11.74
272.353	10.33
272.567	13.08
272.781	13.75
272.996	16.22
273.21	16.81
273.424	16.7
273.638	14.42
273.853	18.99
274.067	20.07
274.281	19.56
274.495	22.29
274.71	24.71
274.924	23.34
275.138	26.01
275.352	24.36
275.566	22.28
275.781	20.47
275.995	21.61
276.209	18.1
276.423	16.25
276.637	16.21
276.851	11.25
277.065	8.09
277.279	7.14
277.493	5.55
277.707	5.07
277.921	6.91
278.135	12.58
278.349	10.53
278.563	10.52
278.777	9.06
278.991	10.37
279.205	14.2
279.419	14.3
279.633	15.37
279.847	15.76
280.061	15.75
280.275	16.53
280.489	12.44
280.703	16.51
280.917	18.06
281.131	19.62
281.344	19.43
281.558	16.94
281.772	17.63
281.986	17.33
282.2	17.26
282.414	16.62
282.627	16.25
282.841	17.15
283.055	14.15
283.269	13.76
283.482	13.79
283.696	13.92
283.91	14.33
284.123	14.04
284.337	14.87
284.551	13.75
284.764	13.38
284.978	12.82
285.192	12.46
285.405	11.12
285.619	11.12
285.833	11.4
286.046	10.1
286.26	10.37
286.473	10.75
286.687	10.81
286.9	13.22
287.114	14.57
287.327	14.01
287.541	15.05
287.754	18.57
287.968	18.89
288.181	18.67
288.395	20.09
288.608	19.29
288.822	18.54
289.035	17.53
289.248	16.98
289.462	15.91
289.675	16.37
289.889	16.62
290.102	15.11
290.315	15.49
290.529	15.33
290.742	14.5
290.955	16.23
291.169	16.95
291.382	16.78
291.595	16.62
291.808	18.06
292.022	18.05
292.235	16.42
292.448	17.38
292.661	16.95
292.875	17.55
293.088	18.89
293.301	17.11
293.514	13.16
293.727	12.84
293.94	11.32
294.153	10.85
294.367	11.55
294.58	11.83
294.793	10.27
295.006	8.8
295.219	7.75
295.432	5.72
295.645	7.7
295.858	11.06
296.071	10.67
296.284	10.67
296.497	10.67
296.71	10.65
296.923	10.81
297.136	10.66
297.349	12.34
297.562	12.83
297.775	12.86
297.988	10.42
298.201	11
298.414	12.39
298.626	12.24
298.839	11.77
299.052	12.29
299.265	12.55
299.478	13.98
299.691	12.88
299.903	12.53
300.116	13.6
300.329	13.95
300.542	12.65
300.755	10.87
300.967	11.1
301.18	11.4
301.393	9.68
301.605	8.95
301.818	7.98
302.031	8.7
302.243	9.55
302.456	9.97
302.669	10.35
302.881	9.91
303.094	12.46
303.307	11.8
303.519	12.49
303.732	13.3
303.944	15.06
304.157	16.41
304.37	16.62
304.582	16.36
304.795	15.96
305.007	18.06
305.22	18.31
305.432	16.54
305.645	18.47
305.857	18.41
306.069	18.49
306.282	16.63
306.494	15.8
306.707	16.84
306.919	17.51
307.132	18.73
307.344	17.12
307.556	17.75
307.769	15.99
307.981	15.95
308.193	14.65
308.406	14.04
308.618	13.51
308.83	13.13
309.043	10.79
309.255	10.34
309.467	10.27
309.679	9.07
309.892	9.28
310.104	10.5
310.316	10.78
310.528	12.09
310.74	11.68
310.953	12.35
311.165	11.96
311.377	13.65
311.589	15.04
311.801	13.98
312.013	15.58
312.225	14.42
312.437	15.97
312.649	14.54
312.862	14.39
313.074	15.22
313.286	15.53
313.498	15.74
313.71	14.4
313.922	11.69
314.134	11.59
314.346	11.74
314.558	14.58
314.77	13.08
314.982	16.15
315.193	15.49
315.405	15.82
315.617	15.88
315.829	16.83
316.041	17.92
316.253	16.35
316.465	17.98
316.677	17.96
316.888	18.16
317.1	17.44
317.312	15.64
317.524	16.7
317.736	17.18
317.947	16.94
318.159	17.36
318.371	18.05
318.583	19.34
318.794	19.31
319.006	19.84
319.218	18.25
319.43	20.59
319.641	21.23
319.853	20.44
320.064	20.72
320.276	20.06
320.488	19.61
320.699	18.15
320.911	18.09
321.123	17.08
321.334	16.75
321.546	15.79
321.757	15.19
321.969	14.87
322.18	14.88
322.392	13.04
322.603	13.76
322.815	12.63
323.026	11.94
323.238	10.8
323.449	10.97
323.661	9.31
323.872	7.38
324.083	5.9
324.295	4.95
324.506	4.64
324.718	5.02
324.929	6.47
325.14	8.49
325.352	8.69
325.563	11.42
325.774	10.24
325.986	10.93
326.197	13.02
326.408	12.65
326.62	12.96
326.831	12.88
327.042	14.26
327.253	13.87
327.464	12.95
327.676	13.01
327.887	12.47
328.098	14.27
328.309	14.94
328.52	16.54
328.732	17.43
328.943	17.64
329.154	18.15
329.365	17.66
329.576	16.29
329.787	16.91
329.998	17.99
330.209	19.39
330.42	18.66
330.631	18.85
330.842	18.88
331.053	19.47
331.264	20.54
331.475	20.89
331.686	23.07
331.897	22.47
332.108	23.22
332.319	23.13
332.53	21.59
332.741	21.56
332.952	20.39
333.163	18.72
333.374	19.44
333.585	18.2
333.795	18.65
334.006	14.79
334.217	15.59
334.428	13.9
334.639	13.72
334.849	15.52
335.06	16.43
335.271	17.73
335.482	17.88
335.692	17.34
335.903	17.52
336.114	19.04
336.325	19.84
336.535	19.91
336.746	21.16
336.957	20.34
337.167	18.86
337.378	20.61
337.589	20.79
337.799	20.76
338.01	20.52
338.22	20.31
338.431	18.06
338.642	20.25
338.852	19.41
339.063	17.56
339.273	18.41
339.484	18.19
339.694	16.05
339.905	15.48
340.115	15.2
340.326	14.51
340.536	13.95
340.746	13.95
340.957	13.44
341.167	14.24
341.378	15.74
341.588	14.66
341.799	13.85
342.009	14
342.219	14.02
342.43	15.49
342.64	15.2
342.85	16.94
343.061	17.24
343.271	16.72
343.481	15.79
343.691	15.58
343.902	15.94
344.112	17.78
344.322	16.87
344.532	16.8
344.743	16.8
344.953	18.02
345.163	16.42
345.373	16.46
345.583	16.29
345.793	18.26
346.004	19.32
346.214	20.58
346.424	19.76
346.634	20.09
346.844	21.31
347.054	20.64
347.264	19.22
347.474	19.87
347.684	20.01
347.894	19.3
348.104	17.1
348.314	14.18
348.524	12.01
348.734	12.42
348.944	12.22
349.154	9.94
349.364	10.33
349.574	11.65
349.784	11.49
349.994	10.53
350.204	10.96
350.413	11.47
350.623	11.9
350.833	13.55
351.043	14.34
351.253	15.36
351.463	15.72
351.672	15.44
351.882	14.86
352.092	15.49
352.302	16.52
352.511	16.67
352.721	17.2
352.931	17.48
353.141	16.7
353.35	16.13
353.56	15.29
353.77	14.91
353.979	14.86
354.189	15.15
354.399	15.42
354.608	14.64
354.818	14.36
355.027	14.05
355.237	14.68
355.447	14.59
355.656	13.96
355.866	14.07
356.075	14.57
356.285	14.3
356.494	13.89
356.704	13.98
356.913	14.58
357.123	13.91
357.332	13.68
357.542	13.26
357.751	13.56
357.96	13.17
358.17	13.06
358.379	12.23
358.589	12.34
358.798	13.09
359.007	13.78
359.217	14.06
359.426	14.32
359.635	13.97
359.845	14.46
360.054	13.84
360.263	13.98
360.472	14.27
360.682	15.21
360.891	14.58
361.1	14.33
361.309	13
361.519	12.12
361.728	13.02
361.937	13.73
362.146	13.5
362.355	13.75
362.564	14.06
362.774	14.09
362.983	13.99
363.192	14.65
363.401	15.22
363.61	15.32
363.819	15.67
364.028	14.94
364.237	14.94
364.446	15.13
364.655	14.25
364.864	14.63
365.073	14.38
365.282	14.22
365.491	14.27
365.7	14.87
365.909	14.02
366.118	14.81
366.327	14.66
366.536	12.72
366.745	12.31
366.954	13.84
367.162	13.23
367.371	12.81
367.58	13.11
367.789	13.58
367.998	12.23
368.207	13.41
368.415	13.63
368.624	13.83
368.833	15.1
369.042	14.74
369.25	14.24
369.459	14.01
369.668	14.67
369.877	14.41
370.085	13.83
370.294	13.32
370.503	13.48
370.711	11.82
370.92	11.96
371.129	12.33
371.337	13.06
371.546	12.73
371.754	12.85
371.963	12.51
372.171	11.49
372.38	11.09
372.589	11.98
372.797	11.93
373.006	12.8
373.214	12.17
373.423	11.62
373.631	11.7
373.84	11.08
374.048	11.04
374.256	11.63
374.465	13.7
374.673	14.74
374.882	13.58
375.09	13.71
375.298	13.94
375.507	13.77
375.715	13.74
375.923	14.01
376.132	14.52
376.34	14.21
376.548	13.83
376.757	12.45
376.965	11.67
377.173	12.95
377.381	12.99
377.59	12.66
377.798	13.8
378.006	13.33
378.214	12.72
378.423	12.52
378.631	12.3
378.839	11.96
379.047	12.64
379.255	13.17
379.463	12.02
379.671	11.9
379.879	12.02
380.088	11.3
380.296	12.64
380.504	12.96
380.712	13.47
380.92	13.98
381.128	14.81
381.336	14.28
381.544	12.8
381.752	12.82
381.96	11.95
382.168	11.52
382.376	11.88
382.584	11.67
382.791	11.07
382.999	11.39
383.207	11.09
383.415	10.47
383.623	11.03
383.831	12.27
384.039	12.67
384.247	13.46
384.454	14.13
384.662	13.99
384.87	14.21
385.078	13.67
385.285	12.49
385.493	13.77
385.701	14.64
385.909	14.27
386.116	14.18
386.324	13.86
386.532	12.9
386.739	12.27
386.947	11.97
387.155	11.34
387.362	11.65
387.57	11.55
387.778	9.35
387.985	7.59
388.193	7.65
388.4	8.33
388.608	8.14
388.816	9.13
389.023	10.22
389.231	10.37
389.438	10.82
389.646	11.42
389.853	12.21
390.061	13.04
390.268	13.27
390.475	12.83
390.683	12.14
390.89	12.78
391.098	12.08
391.305	10.78
391.512	11.12
391.72	10.62
391.927	10.6
392.135	10.41
392.342	10.37
392.549	10.71
392.756	10.67
392.964	10.64
393.171	11.21
393.378	11.64
393.586	12.39
393.793	11.98
394	12.02
394.207	11.45
394.414	11.83
394.622	12.15
394.829	12.86
395.036	12.5
395.243	12.97
395.45	12.36
395.657	11.75
395.864	11.95
396.072	12.34
396.279	12.42
396.486	13.01
396.693	12.22
396.9	12.28
397.107	11.69
397.314	12.33
397.521	11.37
397.728	11.37
397.935	11.81
398.142	12.19
398.349	11.34
398.556	11.04
398.763	11
398.97	11.58
399.177	11.64
399.383	11.27
399.59	11.34
399.797	11.58
400.004	11.67
400.211	11.85
400.418	11.08
400.625	11.36
400.831	11.73
401.038	11.42
401.245	12.06
401.452	11.77
401.658	11.65
401.865	11.62
402.072	11.11
402.279	10.83
402.485	10.71
402.692	10.36
402.899	10.26
403.105	10.39
403.312	10.74
403.519	10
403.725	9.5
403.932	9.58
404.138	9.94
404.345	10.49
404.552	10.8
404.758	11.16
404.965	10.99
405.171	11.21
405.378	11.01
405.584	10.98
405.791	11.42
405.997	12.19
406.204	12.75
406.41	12.16
406.617	11.62
406.823	10.57
407.029	9.46
407.236	10.47
407.442	10.11
407.649	10
407.855	9.62
408.061	9.25
408.268	9.01
408.474	8.96
408.68	8.73
408.887	9.3
409.093	9.55
409.299	9.62
409.505	8.7
409.712	9.06
409.918	9.14
410.124	8.54
410.33	8.73
410.537	9.27
410.743	8.68
410.949	9.33
411.155	9.05
411.361	9.12
411.567	9.68
411.773	9.76
411.98	9.68
412.186	9.85
412.392	10.65
412.598	10
412.804	8.99
413.01	9.57
413.216	9.25
413.422	9.53
413.628	9.92
413.834	9.56
414.04	9.53
414.246	9.72
414.452	9.17
414.658	9
414.864	9.47
415.07	10.04
415.275	9.39
415.481	9.33
415.687	9.31
415.893	8.91
416.099	9.18
416.305	9.6
416.511	9.24
416.716	9.06
416.922	9.22
417.128	9.15
417.334	8.95
417.539	9.08
417.745	9.27
417.951	8.85
418.157	9.27
418.362	9.06
418.568	8.84
418.774	8.81
418.979	9.07
419.185	8.94
419.391	8.97
419.596	8.89
419.802	9.25
420.008	8.9
420.213	6.72
420.419	6.68
420.624	6.85
420.83	7
421.035	7.33
421.241	7.51
421.446	7.37
421.652	7.43
421.857	7.41
422.063	7.33
422.268	7.59
422.474	9.71
422.679	9.34
422.885	9.32
423.09	9.24
423.295	8.89
423.501	8.84
423.706	8.88
423.911	8.68
424.117	8.97
424.322	8.94
424.527	8.71
424.733	9.28
424.938	9.6
425.143	9.52
425.349	9.37
425.554	9.5
425.759	9.7
425.964	9.67
426.169	9.89
426.375	9.72
426.58	9.59
426.785	9.88
426.99	9.43
427.195	9.54
427.4	9.59
427.605	9.95
427.811	10.22
428.016	10.09
428.221	10.67
428.426	10.63
428.631	10.67
428.836	10.48
429.041	10.28
429.246	10.57
429.451	10.42
429.656	10.75
429.861	10.47
430.066	10.37
430.271	10.36
430.476	9.78
430.681	9.17
430.886	9.13
431.09	9.09
431.295	9.01
431.5	8.95
431.705	8.92
431.91	8.96
432.115	9.22
432.32	9.02
432.524	8.78
432.729	8.91
432.934	9.43
433.139	9.21
433.343	9.29
433.548	9.29
433.753	9.31
433.958	9.17
434.162	9.22
434.367	9.12
434.572	9.09
434.776	9.05
434.981	9.15
435.186	8.98
435.39	9.24
435.595	9.18
435.799	9.24
436.004	9.02
436.209	9.44
436.413	9.22
436.618	9.05
436.822	9.25
437.027	9.77
437.231	9.67
437.436	9.89
437.64	9.8
437.845	9.81
438.049	9.72
438.253	9.91
438.458	9.47
438.662	9.66
438.867	9.64
439.071	9.63
439.275	9.59
439.48	9.8
439.684	9.96
439.888	10.17
440.093	10.19
440.297	10.28
440.501	10.11
440.706	10.12
440.91	9.62
441.114	9.37
441.318	9.56
441.523	9.31
441.727	8.96
441.931	9.07
442.135	8.91
442.339	9.05
442.543	9.09
442.748	9.14
442.952	9.31
443.156	9.22
443.36	9.57
443.564	9.37
443.768	9.6
443.972	10.2
444.176	9.84
444.38	9.61
444.584	9.26
444.788	9.13
444.992	8.87
445.196	8.67
445.4	9.04
445.604	8.95
445.808	8.81
446.012	8.4
446.216	7.98
446.42	7.88
446.624	8.21
446.828	8.43
447.032	8.49
447.235	8.61
447.439	8.77
447.643	8.79
447.847	8.98
448.051	9.07
448.254	9.01
448.458	9.25
448.662	9.18
448.866	8.85
449.069	8.82
449.273	8.87
449.477	9.09
449.681	9.37
449.884	9.22
450.088	8.94
450.292	8.99
450.495	9.01
450.699	9.06
450.902	9.38
451.106	9.61
451.31	9.62
451.513	9.82
451.717	9.68
451.92	9.61
452.124	10
452.327	10.07
452.531	10.2
452.734	10.63
452.938	10.22
453.141	9.86
453.345	9.5
453.548	9.62
453.752	9.6
453.955	9.72
454.158	9.6
454.362	9.33
454.565	9.36
454.769	9.72
454.972	9.8
455.175	10.13
455.379	10.67
455.582	11
455.785	10.73
455.988	10.36
456.192	9.98
456.395	9.69
456.598	9.66
456.801	9.91
457.005	9.6
457.208	9.26
457.411	8.85
457.614	8.44
457.817	8.27
458.021	8.62
458.224	8.58
458.427	9.11
458.63	8.9
458.833	8.81
459.036	8.59
459.239	8.25
459.442	7.96
459.645	8.26
459.848	8.51
460.051	8.66
460.254	8.76
460.457	8.86
460.66	8.58
460.863	9.1
461.066	9.39
461.269	9.38
461.472	10.07
461.675	10.6
461.878	10.38
462.081	10.11
462.284	9.79
462.486	9.35
462.689	9.21
462.892	9.26
463.095	9.01
463.298	8.58
463.5	8.89
463.703	8.18
463.906	8.39
464.109	8.65
464.311	8.75
464.514	9.09
464.717	8.74
464.92	9.01
465.122	9.22
465.325	9.43
465.528	9.5
465.73	9.35
465.933	9.48
466.135	9.6
466.338	9.4
466.541	9.57
466.743	9.23
466.946	9.74
467.148	9.75
467.351	9.42
467.553	9.32
467.756	9.56
467.958	9.54
468.161	9.89
468.363	9.41
468.566	9.41
468.768	9.17
468.971	9.35
469.173	9.61
469.375	9.55
469.578	9.67
469.78	9.5
469.983	9.3
470.185	9.18
470.387	9.16
470.59	9.02
470.792	9.11
470.994	9.07
471.196	9.32
471.399	8.69
471.601	8.93
471.803	8.63
472.005	8.77
472.208	8.92
472.41	8.97
472.612	8.39
472.814	9.16
473.016	9.5
473.218	9.48
473.421	8.81
473.623	9.22
473.825	9.09
474.027	9.49
474.229	9.97
474.431	9.51
474.633	9.66
474.835	9.73
475.037	9.31
475.239	9.3
475.441	9.38
475.643	9.92
475.845	9.69
476.047	9.79
476.249	9.37
476.451	8.75
476.653	9.05
476.855	8.93
477.057	9.23
477.258	9.06
477.46	8.78
477.662	8.88
477.864	8.98
478.066	9.26
478.268	9.13
478.469	9.36
478.671	9.32
478.873	9.33
479.075	9.24
479.276	9.03
479.478	8.9
479.68	8.88
479.882	8.58
480.083	8.55
480.285	8.32
480.487	8.59
480.688	8.43
480.89	8.78
481.091	8.63
481.293	8.67
481.495	8.79
481.696	8.83
481.898	8.83
482.099	8.87
482.301	8.71
482.502	8.62
482.704	8.48
482.905	8.47
483.107	8.33
483.308	8.27
483.51	8.18
483.711	8.13
483.913	8.11
484.114	8.03
484.315	7.97
484.517	7.95
484.718	7.97
484.92	7.95
485.121	7.92
485.322	7.97
485.524	7.99
485.725	8.11
485.926	8.1
486.127	8.11
486.329	8.09
486.53	7.97
486.731	8.01
486.932	7.87
487.134	7.88
487.335	7.8
487.536	7.64
487.737	7.75
487.938	7.81
488.139	7.81
488.341	7.7
488.542	7.65
488.743	7.93
488.944	8.01
489.145	8.17
489.346	8.24
489.547	8.52
489.748	8.77
489.949	8.73
490.15	8.61
490.351	8.59
490.552	8.63
490.753	8.81
490.954	8.69
491.155	8.64
491.356	8.56
491.557	8.43
491.758	8.38
491.959	8.28
492.159	8.15
492.36	8.2
492.561	8.17
492.762	8.25
492.963	8.09
493.164	8.24
493.364	8.29
493.565	8.81
493.766	8.8
493.967	8.83
494.167	8.95
494.368	9.08
494.569	9.12
494.769	9.24
494.97	9.26
495.171	9.35
495.371	9.05
495.572	9.2
495.773	8.95
495.973	9.08
496.174	8.8
496.375	8.68
496.575	8.69
496.776	8.55
496.976	8.36
497.177	8.39
497.377	8.61
497.578	8.69
497.778	8.55
497.979	8.79
498.179	8.69
498.38	9.15
498.58	9.35
498.78	9.6
498.981	9.73
499.181	9.84
499.382	9.69
499.582	9.27
499.782	9.56
499.983	9.62
500.183	9.23
500.383	9.52
500.584	9.42
500.784	9.35
500.984	9.33
501.184	9.24
501.385	9.23
501.585	9.65
501.785	9.62
501.985	9.83
502.185	9.68
502.386	9.81
502.586	9.84
502.786	9.77
502.986	9.43
503.186	9.27
503.386	9.62
503.586	9.82
503.786	10.04
503.987	10.52
504.187	10.12
504.387	10.45
504.587	10.63
504.787	10.41
504.987	10.66
505.187	11.13
505.387	11.39
505.587	11.24
505.786	11.4
505.986	11.22
506.186	10.83
506.386	11.24
506.586	11.28
506.786	11.18
506.986	11.07
507.186	11.03
507.386	11.02
507.585	10.96
507.785	11.04
507.985	11.04
508.185	10.96
508.384	11.45
508.584	11.16
508.784	10.94
508.984	11.06
509.183	11.4
509.383	11.19
509.583	11.29
509.782	11.31
509.982	11.44
510.182	11.66
510.381	11.49
510.581	11.06
510.781	11.11
510.98	11.15
511.18	11.28
511.379	11.25
511.579	11.48
511.778	11.6
511.978	11.86
512.177	11.74
512.377	11.53
512.576	11.62
512.776	11.59
512.975	11.86
513.175	11.99
513.374	11.74
513.573	11.66
513.773	11.66
513.972	11.58
514.172	11.29
514.371	11.16
514.57	11.16
514.77	11.41
514.969	11.49
515.168	11.33
515.367	11.41
515.567	11.58
515.766	11.87
515.965	11.56
516.164	11.58
516.364	11.68
516.563	11.84
516.762	12.26
516.961	12.28
517.16	12.4
517.359	12.25
517.559	12.18
517.758	12.23
517.957	12.08
518.156	12.5
518.355	12.46
518.554	12.56
518.753	12.39
518.952	12.01
519.151	11.86
519.35	12.22
519.549	12.65
519.748	12.67
519.947	12.52
520.146	12.59
520.345	12.28
520.544	12.32
520.743	12.28
520.942	12.61
521.141	12.77
521.339	12.93
521.538	12.77
521.737	12.74
521.936	12.76
522.135	12.93
522.333	12.97
522.532	13.34
522.731	13.42
522.93	13.29
523.129	13.37
523.327	13.71
523.526	13.89
523.725	13.81
523.923	13.83
524.122	13.94
524.321	14.12
524.519	14.04
524.718	13.96
524.917	14.14
525.115	14.25
525.314	14.13
525.512	14.05
525.711	13.93
525.909	13.74
526.108	13.75
526.306	13.74
526.505	13.64
526.703	13.67
526.902	13.63
527.1	13.45
527.299	13.5
527.497	13.48
527.696	13.38
527.894	13.39
528.092	13.56
528.291	13.46
528.489	13.47
528.688	13.47
528.886	13.5
529.084	13.56
529.283	13.72
529.481	13.69
529.679	13.89
529.877	13.97
530.076	14.16
530.274	14.44
530.472	14.45
530.67	14.56
530.869	14.75
531.067	14.98
531.265	15.1
531.463	15.09
531.661	15.24
531.859	15.3
532.057	15.23
532.255	15.3
532.454	15
532.652	15.11
532.85	15.02
533.048	14.94
533.246	14.88
533.444	14.76
533.642	14.74
533.84	14.94
534.038	14.8
534.236	14.84
534.434	14.76
534.632	14.89
534.83	15.12
535.027	15.3
535.225	15.51
535.423	15.65
535.621	15.83
535.819	16.06
536.017	15.9
536.215	16.12
536.412	16.41
536.61	16.46
536.808	16.49
537.006	16.47
537.203	16.67
537.401	16.55
537.599	16.41
537.797	16.37
537.994	16.34
538.192	16.38
538.39	16.36
538.587	16.57
538.785	16.37
538.983	16.59
539.18	16.8
539.378	16.85
539.575	16.91
539.773	17
539.97	17.23
540.168	17.21
540.366	17.3
540.563	17.43
540.761	17.25
540.958	17.34
541.155	17.32
541.353	17.32
541.55	17.44
541.748	17.6
541.945	17.77
542.143	17.7
542.34	17.88
542.537	18.01
542.735	18.1
542.932	18.29
543.129	18.66
543.327	18.85
543.524	18.64
543.721	18.69
543.919	18.72
544.116	18.77
544.313	18.97
544.51	18.98
544.708	19.04
544.905	18.98
545.102	19.14
545.299	19.26
545.496	19.35
545.693	19.6
545.891	19.48
546.088	19.67
546.285	19.68
546.482	19.81
546.679	20.11
546.876	20.17
547.073	20.34
547.27	20.39
547.467	20.52
547.664	20.65
547.861	21.23
548.058	21.78
548.255	21.88
548.452	22.28
548.649	22.35
548.846	22.56
549.043	22.73
549.24	23.05
549.437	23.08
549.633	22.98
549.83	23.09
550.027	22.81
550.224	22.45
550.421	22.52
550.618	22.55
550.814	22.42
551.011	22.22
551.208	22.17
551.405	22.06
551.601	22.23
551.798	22.29
551.995	22.5
552.191	22.83
552.388	23.23
552.585	23.71
552.781	23.58
552.978	24.11
553.175	24.2
553.371	24.3
553.568	24.56
553.764	24.87
553.961	25.18
554.157	25.22
554.354	25.02
554.55	24.73
554.747	24.22
554.943	25.02
555.14	25.21
555.336	25.39
555.533	25.86
555.729	25.88
555.926	25.81
556.122	25.8
556.318	26.09
556.515	26.44
556.711	26.68
556.907	27.36
557.104	27.36
557.3	27.4
557.496	27.59
557.693	27.53
557.889	27.86
558.085	27.81
558.281	28.25
558.478	28.17
558.674	28.15
558.87	28.47
559.066	28.2
559.262	27.65
559.459	27.11
559.655	27.19
559.851	27.06
560.047	26.98
560.243	27.39
560.439	27.18
560.635	27.24
560.831	27.82
561.027	27.71
561.223	28.14
561.419	28.78
561.615	29.03
561.811	29.03
562.007	29.23
562.203	29.44
562.399	29.35
562.595	29.19
562.791	29.53
562.987	29.24
563.183	29.4
563.379	29.12
563.575	28.91
563.771	29.39
563.966	29.33
564.162	29.35
564.358	29.4
564.554	29.24
564.75	29.61
564.945	29.47
565.141	29.82
565.337	29.73
565.533	30.11
565.728	30.26
565.924	30.31
566.12	30.35
566.315	30.52
566.511	30.55
566.707	31.3
566.902	31.75
567.098	31.83
567.293	31.63
567.489	32.17
567.684	31.99
567.88	32.37
568.076	32.15
568.271	32.74
568.467	32.46
568.662	32.49
568.858	32.43
569.053	32.12
569.248	32.08
569.444	32.39
569.639	32.25
569.835	32.61
570.03	32.38
570.225	32.47
570.421	32.05
570.616	32.55
570.812	32.54
571.007	32.54
571.202	32.68
571.397	32.76
571.593	32.55
571.788	32.9
571.983	32.6
572.178	32.82
572.374	33.06
572.569	33.17
572.764	32.92
572.959	33.14
573.154	33.37
573.35	33.66
573.545	33.56
573.74	33.6
573.935	33.09
574.13	33.24
574.325	33.24
574.52	33.2
574.715	33.76
574.91	34.45
575.105	34.6
575.3	34.64
575.495	34.54
575.69	34.96
575.885	35.25
576.08	35.46
576.275	36.09
576.47	36.24
576.665	36.64
576.86	36.23
577.055	36.12
577.25	35.77
577.444	35.69
577.639	35.37
577.834	35.46
578.029	35.82
578.224	36.02
578.418	35.42
578.613	35.58
578.808	35.62
579.003	36.23
579.197	36.35
579.392	36.64
579.587	36.68
579.781	37.21
579.976	36.9
580.171	36.97
580.365	37.03
580.56	37.63
580.755	37.44
580.949	37.36
581.144	37.21
581.338	36.89
581.533	37.02
581.727	37.32
581.922	37.02
582.116	37.33
582.311	37.43
582.505	38.05
582.7	37.99
582.894	38.44
583.089	38.68
583.283	39.01
583.478	39.79
583.672	40.08
583.866	40.1
584.061	40.29
584.255	40.77
584.449	40.76
584.644	40.78
584.838	40.79
585.032	40.72
585.226	40.71
585.421	39.99
585.615	39.45
585.809	39.17
586.003	38.97
586.198	39.7
586.392	39.5
586.586	39.54
586.78	39.52
586.974	39.32
587.168	39.36
587.363	39.96
587.557	40.72
587.751	40.66
587.945	41.24
588.139	41.52
588.333	41.25
588.527	41.59
588.721	41.73
588.915	41.08
589.109	41.06
589.303	41.18
589.497	40.77
589.691	40.31
589.885	40.99
590.079	40.73
590.273	40.62
590.466	41.02
590.66	40.85
590.854	40.73
591.048	41.62
591.242	42
591.436	41.92
591.629	41.74
591.823	41.84
592.017	41.61
592.211	41.69
592.404	42.01
592.598	41.08
592.792	41.19
592.986	40.69
593.179	40.47
593.373	40.81
593.567	40.72
593.76	40.86
593.954	41.17
594.147	40.73
594.341	40.58
594.535	40.77
594.728	40.89
594.922	40.95
595.115	41.28
595.309	41.57
595.502	41.51
595.696	41.65
595.889	41.57
596.083	41.7
596.276	42.23
596.47	42.83
596.663	42.65
596.856	43.12
597.05	43.44
597.243	43.31
597.437	43.56
597.63	43.53
597.823	43.43
598.017	43.85
598.21	43.32
598.403	43.3
598.596	42.87
598.79	43.38
598.983	43.43
599.176	42.93
599.369	43.46
599.563	43.22
599.756	43.09
599.949	43.2
600.142	43.26
600.335	43.91
600.528	44.3
600.722	44.53
600.915	44.23
601.108	44.23
601.301	44.1
601.494	43.88
601.687	43.66
601.88	43.77
602.073	43.61
602.266	43.76
602.459	43.47
602.652	42.62
602.845	42.21
603.038	42.22
603.231	42.1
603.424	42.32
603.617	42.33
603.809	42.34
604.002	42.33
604.195	42.39
604.388	41.92
604.581	42.19
604.774	43
604.966	43.5
605.159	43.48
605.352	43.59
605.545	43.54
605.737	43.51
605.93	43.96
606.123	43.71
606.316	44.03
606.508	44.44
606.701	44.44
606.894	44.07
607.086	43.95
607.279	43.83
607.471	44.2
607.664	44.15
607.857	44.56
608.049	44.33
608.242	44.62
608.434	44.64
608.627	44.94
608.819	44.77
609.012	45.08
609.204	45.14
609.397	45.23
609.589	44.91
609.782	45.31
609.974	45.3
610.166	45.2
610.359	45.06
610.551	45.25
610.743	45.24
610.936	45.72
611.128	45.6
611.32	45.71
611.513	45.88
611.705	46.11
611.897	46.45
612.09	46.46
612.282	47.29
612.474	47.83
612.666	47.81
612.858	47.75
613.051	47.18
613.243	47.13
613.435	47.32
613.627	47.18
613.819	47.62
614.011	46.82
614.203	47.01
614.395	46.56
614.588	46.41
614.78	47.42
614.972	47.63
615.164	48.7
615.356	49.32
615.548	48.43
615.74	48.86
615.932	47.98
616.124	49.06
616.315	48.69
616.507	48.8
616.699	49.18
616.891	48.28
617.083	48.55
617.275	48.23
617.467	47.2
617.659	48.39
617.85	48.65
618.042	49.79
618.234	49.01
618.426	49.02
618.618	48.49
618.809	48.76
619.001	48.57
619.193	48.53
619.384	48.56
619.576	49.69
619.768	49.48
619.959	49.11
620.151	48.9
620.343	49.46
620.534	49.65
620.726	50.38
620.917	49.99
621.109	50.75
621.301	50.34
621.492	50.11
621.684	49.39
621.875	48.69
622.067	48.45
622.258	48.42
622.45	48.52
622.641	48.59
622.832	48.99
623.024	48.28
623.215	48.15
623.407	47.9
623.598	48.13
623.789	48.57
623.981	48.63
624.172	49.26
624.363	49.22
624.555	48.62
624.746	48.75
624.937	48.24
625.129	48.7
625.32	48.31
625.511	48.22
625.702	48.23
625.893	48.18
626.085	48.5
626.276	48.47
626.467	48.33
626.658	48.35
626.849	48.34
627.04	49.23
627.231	49.82
627.422	50.16
627.614	50.46
627.805	50.4
627.996	50.26
628.187	50.36
628.378	50.36
628.569	49.86
628.76	50.06
628.951	49.95
629.142	49.15
629.332	48.48
629.523	48.7
629.714	48.49
629.905	48.54
630.096	48.31
630.287	48.05
630.478	47.72
630.669	48.3
630.859	48.46
631.05	49.05
631.241	48.93
631.432	49.18
631.623	48.59
631.813	48.8
632.004	49.22
632.195	49.32
632.385	49.5
632.576	49.95
632.767	49.61
632.957	49.82
633.148	49.64
633.339	49.78
633.529	49.93
633.72	49.69
633.91	50.08
634.101	49.95
634.292	50.5
634.482	50.55
634.673	50.75
634.863	50.7
635.054	50.24
635.244	50.49
635.435	50.38
635.625	50.55
635.815	51.49
636.006	51.24
636.196	51.34
636.387	51.52
636.577	52.13
636.767	51.61
636.958	51.96
637.148	52.53
637.338	51.87
637.529	51.98
637.719	51.49
637.909	50.97
638.099	51.44
638.29	51.32
638.48	51.44
638.67	51.36
638.86	51.14
639.05	51.73
639.241	51.81
639.431	52.23
639.621	52.42
639.811	52.35
640.001	52.56
640.191	51.68
640.381	51.92
640.571	51.45
640.761	51.47
640.951	51.91
641.141	51.9
641.331	51.86
641.521	52.3
641.711	52.49
641.901	53.26
642.091	53.65
642.281	54.13
642.471	53.81
642.661	54
642.851	53.57
643.041	52.73
643.231	52.79
643.42	52.01
643.61	51.58
643.8	51.43
643.99	51.16
644.18	50.45
644.369	51.3
644.559	50.97
644.749	51.26
644.939	51.5
645.128	52.45
645.318	52.66
645.508	53.19
645.697	53.15
645.887	53.44
646.076	53.53
646.266	54.61
646.456	53.63
646.645	54.27
646.835	53.98
647.024	54.07
647.214	54.43
647.403	54.38
647.593	54.29
647.782	54.15
647.972	53.84
648.161	54.01
648.351	53.95
648.54	54.98
648.73	55.06
648.919	54.95
649.108	54.28
649.298	53.41
649.487	53.7
649.677	54.23
649.866	55.14
650.055	55.1
650.244	54.97
650.434	55.01
650.623	53.92
650.812	54.02
651.002	54.32
651.191	54.77
651.38	54.64
651.569	53.82
651.758	54.18
651.947	53.56
652.137	53.06
652.326	52.89
652.515	53.21
652.704	53.73
652.893	53.84
653.082	54.33
653.271	54.65
653.46	55.03
653.649	55.01
653.838	53.54
654.027	53.63
654.216	54.69
654.405	55.38
654.594	54.19
654.783	53.97
654.972	53.64
655.161	52.39
655.35	52.09
655.539	52.42
655.728	52.3
655.916	53.23
656.105	53.43
656.294	53.08
656.483	52.85
656.672	53.08
656.86	53.2
657.049	53.45
657.238	53.78
657.427	53.87
657.615	53.98
657.804	54.68
657.993	53.79
658.181	54.09
658.37	53.45
658.559	52.72
658.747	52.58
658.936	52.82
659.125	51.9
659.313	51.21
659.502	51.58
659.69	51.77
659.879	52.28
660.067	52.72
660.256	52.4
660.444	53.22
660.633	53.86
660.821	54.17
661.01	53.93
661.198	54.64
661.387	55.5
661.575	55.48
661.763	54.91
661.952	53.76
662.14	54.23
662.328	54.15
662.517	54.77
662.705	55.37
662.893	55.81
663.082	55.76
663.27	55.3
663.458	56.12
663.646	55.73
663.834	55.73
664.023	56.1
664.211	55.7
664.399	56.21
664.587	56.33
664.775	55.82
664.963	55.48
665.152	55.83
665.34	56.67
665.528	57.01
665.716	57.28
665.904	58.4
666.092	58.2
666.28	59.27
666.468	58.55
666.656	57.55
666.844	56.97
667.032	56.32
667.22	57.17
667.408	56.63
667.596	55.89
667.784	56.69
667.971	56.09
668.159	55.57
668.347	55.33
668.535	55.46
668.723	55.27
668.911	55.47
669.098	56.04
669.286	54.9
669.474	55.6
669.662	55.54
669.849	54.34
670.037	55.18
670.225	56.89
670.413	56.42
670.6	56.6
670.788	56.88
670.976	57.44
671.163	57.38
671.351	57.27
671.538	57.23
671.726	58.07
671.913	58.66
672.101	57.56
672.289	56.63
672.476	57.32
672.664	57.52
672.851	57.18
673.039	57.75
673.226	58.93
673.413	59.07
673.601	58.79
673.788	57.92
673.976	57.93
674.163	58.19
674.35	58.58
674.538	58.1
674.725	57.85
674.912	58.16
675.1	57.71
675.287	56.59
675.474	56.93
675.662	57.47
675.849	56.88
676.036	56.84
676.223	56.76
676.411	56.59
676.598	56.35
676.785	57.69
676.972	58.08
677.159	57.74
677.346	57.37
677.533	57.61
677.721	56.93
677.908	56.42
678.095	56.25
678.282	56.85
678.469	56.01
678.656	56.55
678.843	55.13
679.03	55.66
679.217	55.71
679.404	55.78
679.591	55.14
679.778	55.47
679.964	57.4
680.151	56.76
680.338	55.84
680.525	56.57
680.712	56.24
680.899	56.51
681.086	56.08
681.272	56.91
681.459	57.09
681.646	57.2
681.833	57.35
682.02	56.3
682.206	57.38
682.393	58.23
682.58	57.71
682.766	60.78
682.953	61.16
683.14	61.02
683.326	60.32
683.513	61.36
683.7	62.72
683.886	62.98
684.073	63.49
684.259	63.7
684.446	63.81
684.632	63.83
684.819	60.22
685.005	60.02
685.192	60.09
685.378	60.47
685.565	58.88
685.751	57.93
685.938	58.14
686.124	57.37
686.31	56.21
686.497	56.23
686.683	56.98
686.87	57.67
687.056	57.37
687.242	56.45
687.429	56.53
687.615	58.28
687.801	59.22
687.987	58.46
688.174	58.9
688.36	60.3
688.546	59.97
688.732	59.57
688.918	59.23
689.105	59.65
689.291	61.4
689.477	60.95
689.663	59.4
689.849	59.17
690.035	59.88
690.221	60.19
690.407	59.7
690.593	59.34
690.779	59.69
690.965	61.26
691.151	61.29
691.337	61.11
691.523	61.11
691.709	61.47
691.895	61.66
692.081	61.7
692.267	60.84
692.453	60.72
692.639	61.7
692.825	60.67
693.011	58.99
693.196	60.01
693.382	59.79
693.568	60.32
693.754	61.56
693.94	60.98
694.125	60.14
694.311	61.16
694.497	61.76
694.682	61.57
694.868	62.51
695.054	62.49
695.239	62
695.425	62.13
695.611	61.27
695.796	59.54
695.982	59.42
696.168	59.86
696.353	59.72
696.539	58.29
696.724	57.26
696.91	56.64
697.095	55.87
697.281	54.85
697.466	54.43
697.652	54.41
697.837	55.02
698.023	54.61
698.208	54.91
698.393	55.17
698.579	56.35
698.764	56.91
698.949	57.64
699.135	59.49
699.32	59.99
699.505	59.87
699.691	60.03
699.876	60.12
700.061	61.64
700.246	61.44
700.432	61.56
700.617	60.87
700.802	60.2
700.987	60.78
701.172	61.4
701.358	61.91
701.543	62.61
701.728	64.79
701.913	65.63
702.098	65.62
702.283	65.47
702.468	65.64
702.653	66.18
702.838	67.92
703.023	66.73
703.208	64.79
703.393	66.85
703.578	67.13
703.763	66.23
703.948	66.46
704.133	65.17
704.318	66.32
704.503	65.33
704.688	65.49
704.873	65.3
705.057	66.3
705.242	67.08
705.427	65.22
705.612	64.56
705.797	63.49
705.981	64.13
706.166	65.56
706.351	64.96
706.536	66.1
706.72	64.78
706.905	63.75
707.09	63.7
707.274	62.97
707.459	63.84
707.644	65.06
707.828	65.12
708.013	64.44
708.197	63.47
708.382	62.29
708.567	60.42
708.751	62.48
708.936	63.52
709.12	64.5
709.305	64.55
709.489	62.47
709.673	61.21
709.858	61.62
710.042	60.66
710.227	60.97
710.411	63.48
710.596	64.47
710.78	63.63
710.964	62.59
711.149	61.87
711.333	62.95
711.517	63.6
711.702	64.39
711.886	64.1
712.07	64.61
712.254	63.54
712.438	62.12
712.623	60.53
712.807	60.32
712.991	60.87
713.175	60.35
713.359	60.41
713.544	60.86
713.728	61.98
713.912	62.16
714.096	62.83
714.28	63.36
714.464	62.94
714.648	63.64
714.832	64.33
715.016	64.73
715.2	65.02
715.384	64.37
715.568	64.95
715.752	63.19
715.936	63.38
716.12	63.42
716.304	63.78
716.488	64.02
716.671	66.65
716.855	66.96
717.039	66.3
717.223	66.67
717.407	67.65
717.59	66.56
717.774	67.02
717.958	66.66
718.142	66.94
718.325	66.56
718.509	67.42
718.693	66.26
718.877	65.95
719.06	67.93
719.244	66.43
719.428	67.14
719.611	69.2
719.795	70.61
719.978	73.66
720.162	74.26
720.345	74.99
720.529	75.92
720.713	75.43
720.896	75.9
721.08	75.78
721.263	77.94
721.446	75.38
721.63	74.64
721.813	73.81
721.997	72.88
722.18	72.09
722.364	72.27
722.547	72.49
722.73	74.46
722.914	73.69
723.097	74.25
723.28	72.84
723.464	74.83
723.647	76.01
723.83	76.08
724.013	75.58
724.197	74.27
724.38	74.01
724.563	72.16
724.746	72.16
724.929	71.46
725.112	69.21
725.296	68.75
725.479	67.44
725.662	67.1
725.845	66.9
726.028	66.95
726.211	67.45
726.394	68.04
726.577	67.4
726.76	65.13
726.943	64.64
727.126	65.93
727.309	66.7
727.492	67.02
727.675	65.02
727.858	63.92
728.041	62.59
728.224	61.62
728.407	60.14
728.589	60.82
728.772	61
728.955	61.46
729.138	61.95
729.321	61.94
729.503	60.49
729.686	62.12
729.869	61.73
730.052	62.85
730.234	63.34
730.417	64.67
730.6	64.23
730.782	64.57
730.965	64.61
731.148	62.85
731.33	62.51
731.513	64.1
731.695	62.74
731.878	64.02
732.061	63.57
732.243	63.1
732.426	61.28
732.608	60.96
732.791	61.45
732.973	61.86
733.156	62.38
733.338	64.14
733.52	64.68
733.703	66.33
733.885	68.2
734.068	68.14
734.25	69.54
734.432	72.32
734.615	73.4
734.797	73.93
734.979	75.91
735.162	76.38
735.344	74.35
735.526	73.94
735.708	73
735.891	71.21
736.073	71.29
736.255	70.58
736.437	70.19
736.619	67.93
736.802	67.8
736.984	68.05
737.166	67.05
737.348	68.39
737.53	67.96
737.712	68.72
737.894	68.76
738.076	69.77
738.258	71.81
738.44	70.24
738.622	72.78
738.804	73
738.986	69.91
739.168	70.62
739.35	70.63
739.532	71.45
739.714	73.14
739.896	74.82
740.078	74.02
740.259	71.15
740.441	72.46
740.623	73.53
740.805	73.1
740.987	75.64
741.168	75.84
741.35	75.95
741.532	74.96
741.714	73.6
741.895	71.43
742.077	72.02
742.259	73.6
742.44	73.54
742.622	72.42
742.804	72.51
742.985	71.77
743.167	72.14
743.348	70.47
743.53	71.9
743.711	73.84
743.893	74.27
744.075	75.55
744.256	74.94
744.438	75.55
744.619	73.85
744.8	72.97
744.982	72.81
745.163	74.64
745.345	76.38
745.526	75.91
745.707	76.71
745.889	76.76
746.07	77.06
746.252	77.99
746.433	77.34
746.614	80.28
746.795	84.63
746.977	86.94
747.158	84.77
747.339	83.95
747.52	82.22
747.702	80.97
747.883	83.18
748.064	82.71
748.245	83.49
748.426	86.48
748.607	83.22
748.788	80.36
748.97	77.93
749.151	75.78
749.332	77.83
749.513	78.99
749.694	77.93
749.875	75.39
750.056	72.07
750.237	73.28
750.418	72.68
750.599	75.14
750.78	73.44
750.96	73.16
751.141	75.72
751.322	73.19
751.503	74.55
751.684	73.24
751.865	74.23
752.046	76.76
752.226	74.13
752.407	73.27
752.588	76.28
752.769	78.48
752.949	79.53
753.13	79.77
753.311	82.66
753.492	80.68
753.672	81.51
753.853	84.85
754.034	82.67
754.214	83.68
754.395	83.1
754.575	79.51
754.756	76.79
754.937	75.93
755.117	76.24
755.298	74.12
755.478	77.07
755.659	76.63
755.839	76.33
756.02	79.73
756.2	79.82
756.381	79.55
756.561	78.67
756.741	81.31
756.922	80.24
757.102	75.76
757.283	76.35
757.463	73.67
757.643	73.23
757.823	71.82
758.004	70.77
758.184	70.29
758.364	68.58
758.545	68.44
758.725	68.31
758.905	69.96
759.085	73.56
759.265	75.34
759.446	76.93
759.626	77.85
759.806	77.61
759.986	75.87
760.166	75.31
760.346	76.33
760.526	75.9
760.706	74.68
760.886	74.49
761.066	72.85
761.246	69.12
761.426	67.75
761.606	66.25
761.786	64.43
761.966	64.33
762.146	62.46
762.326	61.61
762.506	62.05
762.686	61.26
762.866	59.71
763.046	58.78
763.225	58.76
763.405	58.64
763.585	57.99
763.765	59.03
763.945	59.47
764.124	61.72
764.304	63.21
764.484	64.83
764.664	65.07
764.843	67.21
765.023	69.05
765.203	69.6
765.382	71.08
765.562	73.29
765.741	74.08
765.921	74.28
766.101	74.77
766.28	76.96
766.46	75.52
766.639	77.46
766.819	78.57
766.998	81.82
767.178	83.11
767.357	83.46
767.537	83.31
767.716	84.99
767.896	85.42
768.075	86.85
768.254	84.77
768.434	86.39
768.613	85.87
768.792	84.27
768.972	80.09
769.151	79.84
769.33	79.41
769.51	78.3
769.689	77.77
769.868	75.56
770.047	74.82
770.226	74.45
770.406	74.47
770.585	76.9
770.764	76.69
770.943	79.31
771.122	82.95
771.301	84.48
771.48	87.38
771.66	84.49
771.839	88.89
772.018	88.57
772.197	89.99
772.376	90.06
772.555	90.55
772.734	94.94
772.913	96.65
773.092	96.3
773.271	93.96
773.449	98.89
773.628	102.97
773.807	103.33
773.986	107.03
774.165	103.18
774.344	103.68
774.523	101.12
774.701	100.75
774.88	99.83
775.059	99.42
775.238	103.05
775.417	100.85
775.595	101.61
775.774	103.06
775.953	96.29
776.131	101.18
776.31	99.14
776.489	98.73
776.667	96.26
776.846	96.68
777.025	97.13
777.203	92.82
777.382	87.26
777.56	86.21
777.739	80.61
777.917	82.25
778.096	81.98
778.274	84
778.453	82.72
778.631	85.23
778.81	84.75
778.988	85.14
779.166	88.91
779.345	90.51
779.523	91.12
779.702	94.44
779.88	98
780.058	93.76
780.237	91.29
780.415	92.84
780.593	85.82
780.771	83.08
780.95	78.77
781.128	76.71
781.306	75.85
781.484	79.05
781.662	81.43
781.841	77.71
782.019	79.01
782.197	79.32
782.375	79.52
782.553	82.31
782.731	84.11
782.909	86.17
783.087	85.08
783.265	88
783.443	81.79
783.621	79.18
783.799	83.72
783.977	88.44
784.155	89.07
784.333	89.55
784.511	90.68
784.689	91.19
784.867	90.64
785.045	93.8
785.223	89.88
785.4	93.51
785.578	97.16
785.756	92.97
785.934	90.1
786.112	89.08
786.289	92.91
786.467	90.49
786.645	93.42
786.823	93.19
787	88.69
787.178	89.87
787.356	84.84
787.533	80.51
787.711	83.43
787.889	81.3
788.066	81.54
788.244	76.88
788.421	79.06
788.599	76.79
788.776	75.26
788.954	76.17
789.131	79.12
789.309	82.65
789.486	83.79
789.664	82.69
789.841	86.36
790.019	87.09
790.196	91.04
790.373	91.31
790.551	90.08
790.728	96.67
790.906	98.5
791.083	95.28
791.26	93.17
791.437	89.26
791.615	94.55
791.792	92.99
791.969	90.92
792.146	89.49
792.324	90.46
792.501	94.78
792.678	92.96
792.855	88.14
793.032	93.16
793.209	93.68
793.387	101
793.564	92.56
793.741	92.83
793.918	97.13
794.095	96.72
794.272	94.33
794.449	92.69
794.626	89.6
794.803	92.46
794.98	88.41
795.157	90.62
795.334	87.65
795.511	90.52
795.688	91.29
795.864	90.27
796.041	93.86
796.218	93.77
796.395	91.62
796.572	93.02
796.749	96.94
796.925	96.95
797.102	91.94
797.279	91.4
797.456	91.04
797.632	87.77
797.809	83.03
797.986	78.27
798.162	78.97
798.339	84.42
798.516	84.95
798.692	81.43
798.869	82.16
799.046	83.1
799.222	83.35
799.399	80.77
799.575	84.17
799.752	88.13
799.928	85.73
800.105	87.99
800.281	84.6
800.458	83.33
800.634	83.53
800.811	81.84
800.987	84.4
801.163	84.09
801.34	90.22
801.516	88.64
801.692	89.74
801.869	93.55
802.045	93.33
802.221	92.81
802.398	96.43
802.574	96.84
802.75	97.53
802.926	95.59
803.103	95.64
803.279	92.95
803.455	93.34
803.631	93.54
803.807	93.07
803.983	93.03
804.16	95.21
804.336	89.68
804.512	92.18
804.688	91.25
804.864	91.91
805.04	90.8
805.216	90.78
805.392	89.51
805.568	90.23
805.744	90.2
805.92	85.9
806.096	82.92
806.272	88.77
806.448	87.48
806.623	85.44
806.799	90.01
806.975	94.12
807.151	90.51
807.327	88.58
807.503	84.72
807.678	85.44
807.854	89.58
808.03	91.83
808.206	86.7
808.381	87.07
808.557	86.11
808.733	81.02
808.908	82.92
809.084	85.83
809.26	89.53
809.435	89.23
809.611	86.63
809.787	83.99
809.962	85.65
810.138	91.82
810.313	86.6
810.489	97.95
810.664	101.96
810.84	103.04
811.015	102.7
811.191	104.01
811.366	109.46
811.542	116.8
811.717	120.78
811.892	115.17
812.068	115.6
812.243	123.09
812.419	112.46
812.594	110.49
812.769	106.13
812.944	107.47
813.12	102.49
813.295	92.87
813.47	94.41
813.645	92.53
813.821	93.47
813.996	87.36
814.171	84
814.346	83.89
814.521	85.15
814.697	88.7
814.872	86
815.047	85.3
815.222	89.97
815.397	82.39
815.572	82.92
815.747	83.59
815.922	87.36
816.097	86.05
816.272	89.39
816.447	93.53
816.622	89.21
816.797	91.33
816.972	90.94
817.147	89.32
817.322	93.82
817.496	90.99
817.671	93.05
817.846	93.47
818.021	93.33
818.196	90.3
818.371	84.32
818.545	82.75
818.72	82.96
818.895	86.64
819.069	85.72
819.244	80.88
819.419	75.67
819.594	70.05
819.768	63.4
819.943	61.06
820.117	59.34
820.292	56.27
820.467	54.8
820.641	51.83
820.816	50.48
820.99	49.35
821.165	47.51
821.339	47.58
821.514	47.35
821.688	47.79
821.863	47.6
822.037	47.23
822.212	46.66
822.386	46.1
822.56	45.55
822.735	46.04
822.909	45.52
823.084	46.03
823.258	46.56
823.432	46.51
823.606	46.31
823.781	45.69
823.955	45.34
824.129	46.73
824.303	46.61
824.478	47.36
824.652	47.08
824.826	48.9
825	49.54
825.174	49.05
825.348	50.54
825.523	50.12
825.697	51.41
825.871	51.94
826.045	51.92
826.219	52.86
826.393	53.85
826.567	53.2
826.741	52.72
826.915	52.57
827.089	52.12
827.263	50.31
827.437	51.73
827.611	50.98
827.784	51.54
827.958	53.08
828.132	52.52
828.306	53.02
828.48	54.1
828.654	55.91
828.827	59.23
829.001	63.04
829.175	65.47
829.349	66.81
829.522	68.67
829.696	71.45
829.87	69.75
830.044	75.49
830.217	76.87
830.391	79.57
830.565	81.41
830.738	80.53
830.912	77.81
831.085	81
831.259	82.74
831.432	83.43
831.606	77.38
831.779	75.28
831.953	67.51
832.126	66.99
832.3	66.15
832.473	63.65
832.647	61.25
832.82	60.69
832.994	58.27
833.167	58.9
833.34	57.63
833.514	56.69
833.687	57.4
833.86	60.68
834.034	59.62
834.207	59.16
834.38	58.2
834.553	58.11
834.727	58.58
834.9	59.17
835.073	55.71
835.246	55.87
835.419	59.05
835.593	57.71
835.766	57.3
835.939	60.65
836.112	62.18
836.285	62.63
836.458	61.47
836.631	68.2
836.804	73.89
836.977	76.23
837.15	79.29
837.323	84.9
837.496	89.87
837.669	92.72
837.842	94.81
838.015	91.59
838.188	97.48
838.361	95.34
838.533	98.4
838.706	94.85
838.879	93.83
839.052	93.96
839.225	92.49
839.398	95.55
839.57	94.45
839.743	90.61
839.916	94.62
840.088	92.68
840.261	103.02
840.434	94.87
840.607	97.12
840.779	102.19
840.952	101.46
841.124	107.05
841.297	109.54
841.47	123.45
841.642	131.42
841.815	125.49
841.987	128.34
842.16	121.43
842.332	123.85
842.505	122.23
842.677	122.65
842.85	131.19
843.022	127.45
843.194	121
843.367	112.49
843.539	116.42
843.712	121.23
843.884	130.77
844.056	131.63
844.229	139.32
844.401	140.81
844.573	151.22
844.745	139.03
844.918	149.85
845.09	146.51
845.262	164.47
845.434	172.95
845.606	168.23
845.779	148.34
845.951	134.15
846.123	129.97
846.295	142.04
846.467	166.12
846.639	198.65
846.811	213.89
846.983	225.74
847.155	219.98
847.327	204.43
847.499	221.02
847.671	224.24
847.843	222.45
848.015	216.73
848.187	198.11
848.359	184.47
848.531	183.14
848.703	163.22
848.875	183.59
849.047	179.64
849.218	163.51
849.39	153.86
849.562	164.6
849.734	178.64
849.905	167.55
850.077	183.87
850.249	169.43
850.421	155.6
850.592	166.45
850.764	155.79
850.936	137.94
851.107	141.88
851.279	153.87
851.451	138.26
851.622	142.96
851.794	151.97
851.965	158.78
852.137	157.27
852.308	163.71
852.48	162.97
852.651	163.34
852.823	175.22
852.994	176
853.166	175.89
853.337	196.76
853.509	198.49
853.68	194.33
853.851	187.17
854.023	179.74
854.194	170.26
854.365	186.52
854.537	169.35
854.708	181.79
854.879	175.67
855.05	175.87
855.222	158.88
855.393	166.93
855.564	165.39
855.735	167.78
855.906	172.12
856.078	169.21
856.249	140.76
856.42	139.23
856.591	123.83
856.762	113.68
856.933	111.56
857.104	114.02
857.275	95.36
857.446	91.68
857.617	82.35
857.788	82.23
857.959	93.51
858.13	100.17
858.301	109.5
858.472	124.64
858.643	139.12
858.814	145.65
858.985	157.82
859.155	220.82
859.326	228.63
859.497	259.52
859.668	399.7
859.839	322.93
860.009	218.78
860.18	248.55
860.351	217.66
860.522	189.68
860.692	172.13
860.863	157.61
861.034	141.58
861.204	132.06
861.375	132.25
861.546	126.53
861.716	122.99
861.887	148.58
862.057	166.26
862.228	183.97
862.398	174.43
862.569	199.05
862.739	226.05
862.91	197.19
863.08	202.96
863.251	218.53
863.421	221.97
863.592	257.72
863.762	218.51
863.932	182.67
864.103	174.45
864.273	191.08
864.443	165.9
864.614	152.54
864.784	179.67
864.954	205.27
865.125	212.13
865.295	202.08
865.465	225
865.635	252.24
865.805	254.88
865.976	257.92
866.146	225
866.316	248.09
866.486	298.89
866.656	265.91
866.826	266.92
866.996	227.9
867.166	277.03
867.336	231.5
867.506	159.85
867.676	140.77
867.846	146.98
868.016	143.21
868.186	134.21
868.356	124.45
868.526	128.62
868.696	121.62
868.866	130.75
869.036	128.53
869.206	122.3
869.376	126.29
869.545	131.12
869.715	134.95
869.885	151.49
870.055	156.82
870.224	142.89
870.394	138.58
870.564	169.43
870.734	156.2
870.903	167.89
871.073	172.08
871.243	187.39
871.412	194.67
871.582	180.21
871.751	179.48
871.921	174.56
872.091	233.2
872.26	189.22
872.43	154.92
872.599	159.37
872.769	160.6
872.938	175.81
873.108	157.69
873.277	137.64
873.446	142.91
873.616	152.03
873.785	147.34
873.955	134.75
874.124	145.32
874.293	144.67
874.463	139.79
874.632	143.43
874.801	143.66
874.971	154.37
875.14	199.26
875.309	173.83
875.478	138.33
875.647	139.68
875.817	138.18
875.986	148.66
876.155	150.21
876.324	150.38
876.493	126.05
876.662	118.99
876.831	118.76
877	109.86
877.17	109.72
877.339	115.11
877.508	120.66
877.677	118.12
877.846	102.12
878.015	102.89
878.184	90.54
878.352	94.76
878.521	92.25
878.69	90.22
878.859	86.21
879.028	89.16
879.197	86.05
879.366	80.9
879.534	76.75
879.703	70.82
879.872	69.93
880.041	71.99
880.21	69.44
880.378	62.09
880.547	57.85
880.716	57.52
880.884	53.47
881.053	51.68
881.222	49.53
881.39	50.55
881.559	48.68
881.727	48.85
881.896	45.45
882.065	45.84
882.233	47.99
882.402	47.06
882.57	48.55
882.739	49.92
882.907	50.7
883.076	50.72
883.244	50.74
883.412	54.19
883.581	52.32
883.749	56.07
883.918	58.78
884.086	60.54
884.254	66.93
884.423	70.31
884.591	73.06
884.759	76.32
884.927	83.76
885.096	86.81
885.264	90.65
885.432	97.84
885.6	103.29
885.769	107.62
885.937	116.15
886.105	128.56
886.273	121.21
886.441	115.59
886.609	124.7
886.777	109.43
886.945	111.32
887.113	111.05
887.281	108.45
887.449	108.7
887.617	104.55
887.785	99.4
887.953	92.67
888.121	105.04
888.289	108.91
888.457	101.52
888.625	113.3
888.793	110.85
888.961	110.42
889.129	114.36
889.296	122.78
889.464	127.7
889.632	137.41
889.8	147.07
889.967	118.88
890.135	126.16
