Data from JASIL_3242_Reflection_1.txt Node
Date: Mon Nov 16 20:31:02 EST 2015
User: Geneva
Spectrometer: USB4E03002
Autoset integration time: false
Trigger mode: 4
Integration Time (sec): 1.000000E-1
Scans to average: 10
Electric dark correction enabled: false
Nonlinearity correction enabled: false
Boxcar width: 5
Stray light correction enabled: false
XAxis mode: Wavelengths
Stop averaging: false
Number of Pixels in Spectrum: 3648
>>>>>Begin Spectral Data<<<<<
177.575	-152.99
177.794	-206.43
178.014	-269.28
178.233	-472.9
178.452	-828.92
178.672	-505.3
178.891	-707.55
179.11	2178.38
179.33	708.93
179.549	-3218.18
179.768	654.24
179.987	943.01
180.207	592.26
180.426	335.89
180.645	349.83
180.864	561.69
181.084	271.47
181.303	264.35
181.522	538.18
181.741	1643.66
181.96	415.1
182.179	543.12
182.398	590.67
182.618	538.14
182.837	543.7
183.056	498.41
183.275	318.79
183.494	320.47
183.713	333.09
183.932	241.89
184.151	263.46
184.37	242.49
184.589	217.47
184.808	178.1
185.027	164.66
185.246	193.59
185.465	311.49
185.684	321.61
185.903	1124.14
186.122	387.44
186.341	538.2
186.56	274.21
186.779	443.01
186.998	553.85
187.216	684.25
187.435	622.75
187.654	533.51
187.873	214.5
188.092	204.76
188.311	208.54
188.53	327.49
188.748	328.57
188.967	748.8
189.186	418.01
189.405	458.01
189.623	448.15
189.842	401.65
190.061	388.04
190.28	1034.62
190.498	-843.75
190.717	661.9
190.936	-1364.41
191.154	-669.64
191.373	-16516.67
191.592	-9681.82
191.81	-516.09
192.029	-726.72
192.248	-214.71
192.466	-228.74
192.685	-300.79
192.904	-428.57
193.122	-311.2
193.341	-656.22
193.559	-544.67
193.778	-584.24
193.996	-688.55
194.215	29250
194.433	-2280.95
194.652	517.24
194.87	451.52
195.089	302.18
195.307	332.11
195.526	961.02
195.744	616.67
195.963	489.01
196.181	7862.5
196.399	-516.24
196.618	2310
196.836	9416.67
197.055	-413.11
197.273	-875.86
197.491	-766.67
197.71	-1405.88
197.928	910
198.146	1595.24
198.365	-5910
198.583	438.1
198.801	552.63
199.019	1345.45
199.238	-2154.76
199.456	1005.66
199.674	424.58
199.892	307.49
200.111	437.69
200.329	464.15
200.547	363.94
200.765	340.58
200.983	339.16
201.202	299.52
201.42	471.65
201.638	358.25
201.856	407.1
202.074	1195.04
202.292	1483.84
202.51	863.95
202.728	1121.65
202.946	-2442.5
203.165	3381.82
203.383	-1105.15
203.601	-1241.86
203.819	2312
204.037	11550
204.255	1223.71
204.473	594.86
204.691	827.33
204.909	606.94
205.127	665.12
205.345	765.91
205.562	585.15
205.78	385.23
205.998	402.45
206.216	355
206.434	313.18
206.652	264.55
206.87	196.12
207.088	158.35
207.306	160.56
207.523	167.33
207.741	140.84
207.959	161.14
208.177	196.55
208.395	164.76
208.612	162.6
208.83	161.33
209.048	194.41
209.266	236.2
209.483	232.94
209.701	209.12
209.919	248.43
210.136	276.71
210.354	565
210.572	480.54
210.79	803.7
211.007	492.14
211.225	596.9
211.442	-2495.24
211.66	-651.39
211.878	-287.5
212.095	220.52
212.313	235.82
212.53	294.43
212.748	187.95
212.966	194.51
213.183	185.37
213.401	188.78
213.618	187.49
213.836	220.56
214.053	228.04
214.271	211.96
214.488	807.56
214.705	393.12
214.923	340.97
215.14	339.5
215.358	278.77
215.575	356.6
215.793	408.68
216.01	646.63
216.227	252.77
216.445	171.91
216.662	208.87
216.879	213.46
217.097	200.81
217.314	203.38
217.531	277.7
217.749	293.05
217.966	358
218.183	292.29
218.4	346.58
218.618	449.61
218.835	559.92
219.052	393.88
219.269	317.52
219.487	432.64
219.704	327.84
219.921	247.25
220.138	191.4
220.355	184.53
220.572	173.71
220.79	156.93
221.007	164.8
221.224	217.02
221.441	182.32
221.658	211.41
221.875	151.92
222.092	112.64
222.309	100.72
222.526	91.94
222.743	107.48
222.96	208.02
223.177	103.82
223.394	91.85
223.611	65.79
223.828	100.76
224.045	131.75
224.262	166.1
224.479	128.55
224.696	108.12
224.913	123.15
225.13	103.18
225.347	73.18
225.564	76.59
225.781	70.83
225.997	66.18
226.214	50.17
226.431	41.2
226.648	28.69
226.865	27.83
227.082	30.29
227.298	29.28
227.515	30.08
227.732	27.92
227.949	24.19
228.165	22.23
228.382	18.11
228.599	17.48
228.816	16.78
229.032	20.14
229.249	19.42
229.466	19.91
229.682	20.19
229.899	14.93
230.116	21.77
230.332	26.94
230.549	35.21
230.765	39.07
230.982	38.26
231.199	43.61
231.415	49.93
231.632	55.54
231.848	56.41
232.065	61.98
232.281	62.66
232.498	66.61
232.714	70.33
232.931	63.47
233.147	66.29
233.364	72.83
233.58	70.32
233.797	71.91
234.013	72.76
234.23	67.53
234.446	63.04
234.662	65.79
234.879	65.68
235.095	63.13
235.312	61.59
235.528	59.73
235.744	59.32
235.961	55.36
236.177	46.8
236.393	48.6
236.61	56.33
236.826	63.67
237.042	63.9
237.258	52.38
237.475	46.73
237.691	43.95
237.907	42.93
238.123	42.48
238.339	46.88
238.556	49.67
238.772	44.35
238.988	37.23
239.204	30.08
239.42	31.93
239.636	32.17
239.853	33.05
240.069	31.04
240.285	33.21
240.501	30.98
240.717	28.93
240.933	23.26
241.149	20.26
241.365	19.39
241.581	17.89
241.797	15.85
242.013	16.4
242.229	16.59
242.445	17.13
242.661	15.98
242.877	14.42
243.093	12.19
243.309	14.77
243.525	16.17
243.741	18.53
243.957	22.99
244.173	22.86
244.388	22.18
244.604	23.42
244.82	20.66
245.036	19.24
245.252	20.07
245.468	21.14
245.683	19.14
245.899	18.53
246.115	16.75
246.331	15.04
246.547	14.55
246.762	14.29
246.978	13.61
247.194	14.58
247.409	14.38
247.625	14.85
247.841	13.16
248.057	14.58
248.272	14.75
248.488	16.54
248.703	15.98
248.919	17.74
249.135	18.23
249.35	18.68
249.566	18.69
249.782	18.9
249.997	17.7
250.213	19.49
250.428	16.5
250.644	16.45
250.859	15.97
251.075	14.91
251.29	15.62
251.506	16.17
251.721	13.63
251.937	14.24
252.152	14.89
252.368	14.23
252.583	13.63
252.798	15.6
253.014	13.9
253.229	13.61
253.445	15.31
253.66	14.23
253.875	15.95
254.091	22.44
254.306	23.11
254.521	23.28
254.737	24.99
254.952	29.5
255.167	28.31
255.383	31.78
255.598	30.13
255.813	29.5
256.028	29.45
256.244	28.68
256.459	25.75
256.674	24.47
256.889	21.04
257.104	17.7
257.32	15.62
257.535	14.38
257.75	13.31
257.965	11.87
258.18	12.2
258.395	10.36
258.61	8.82
258.826	9.25
259.041	9.4
259.256	10.44
259.471	10.99
259.686	10.52
259.901	10.53
260.116	10.95
260.331	11.86
260.546	12.21
260.761	12.27
260.976	12.45
261.191	12.29
261.406	12.09
261.621	11.11
261.836	13.79
262.05	14.41
262.265	15.66
262.48	15.65
262.695	15.03
262.91	13.38
263.125	14.12
263.34	16.9
263.555	17.09
263.769	19.07
263.984	20.81
264.199	19.82
264.414	19.67
264.629	18.58
264.843	14.95
265.058	17.03
265.273	16.82
265.488	16.42
265.702	17.29
265.917	17.88
266.132	16.44
266.346	16.33
266.561	13.29
266.776	14.46
266.99	16.42
267.205	17.97
267.42	15.56
267.634	16.23
267.849	16.87
268.063	15.52
268.278	14.98
268.492	13.43
268.707	14.34
268.922	16.16
269.136	14.28
269.351	12.23
269.565	10.52
269.78	11.64
269.994	10.57
270.209	10.2
270.423	8.87
270.637	9.15
270.852	10.78
271.066	9.85
271.281	10.09
271.495	9.34
271.709	9.56
271.924	12.04
272.138	12.08
272.353	13.1
272.567	12.05
272.781	12.55
272.996	12.4
273.21	12.63
273.424	12.01
273.638	12.57
273.853	14.76
274.067	15.65
274.281	15.13
274.495	14.51
274.71	14.26
274.924	15.39
275.138	14.9
275.352	13.43
275.566	12.13
275.781	12.08
275.995	11.22
276.209	10.28
276.423	11.01
276.637	11.62
276.851	12.46
277.065	12.78
277.279	14.75
277.493	15.52
277.707	14.83
277.921	15.8
278.135	16.5
278.349	17.01
278.563	16.51
278.777	15.3
278.991	15.64
279.205	14.91
279.419	14.9
279.633	13.79
279.847	12.95
280.061	15.24
280.275	16.08
280.489	15.94
280.703	13.16
280.917	14.78
281.131	13.96
281.344	13.2
281.558	14.37
281.772	13.92
281.986	14.04
282.2	14.83
282.414	13.52
282.627	12.96
282.841	12.38
283.055	14.34
283.269	13.35
283.482	14.26
283.696	14.04
283.91	13.58
284.123	13.8
284.337	13.07
284.551	12.32
284.764	12.61
284.978	11.34
285.192	11.75
285.405	11.83
285.619	10.42
285.833	9.23
286.046	8.56
286.26	7.78
286.473	6.55
286.687	7.15
286.9	8.24
287.114	8.32
287.327	9.4
287.541	9.33
287.754	8.55
287.968	9.8
288.181	11.74
288.395	11.5
288.608	12.94
288.822	14.44
289.035	13.5
289.248	12.45
289.462	12.15
289.675	12.43
289.889	12.86
290.102	12.32
290.315	13.24
290.529	12.27
290.742	12.21
290.955	12.26
291.169	13.04
291.382	13.72
291.595	16.32
291.808	15.86
292.022	16.43
292.235	16.34
292.448	17.57
292.661	16.84
292.875	18.03
293.088	18
293.301	16.24
293.514	13.09
293.727	11.75
293.94	8.3
294.153	10.16
294.367	8.7
294.58	7.15
294.793	6.87
295.006	6.84
295.219	6.22
295.432	7.19
295.645	7.23
295.858	8.76
296.071	8.88
296.284	9.55
296.497	8.69
296.71	9.13
296.923	10.25
297.136	9.2
297.349	8.51
297.562	8.5
297.775	8.53
297.988	8.34
298.201	8.63
298.414	9.02
298.626	9.26
298.839	9.5
299.052	8.75
299.265	9.02
299.478	11.15
299.691	12.3
299.903	12.48
300.116	12.7
300.329	13.14
300.542	12.18
300.755	12.11
300.967	11.4
301.18	10.93
301.393	13.73
301.605	13.22
301.818	11
302.031	10.87
302.243	11.29
302.456	10.94
302.669	12.32
302.881	12.76
303.094	12.61
303.307	13.25
303.519	14.52
303.732	13.18
303.944	13.17
304.157	14.65
304.37	15.07
304.582	14.99
304.795	14.48
305.007	12.4
305.22	11.67
305.432	11.94
305.645	12.37
305.857	12.46
306.069	12.95
306.282	13.98
306.494	12.95
306.707	11.94
306.919	11.7
307.132	11.84
307.344	13.94
307.556	14.76
307.769	14.41
307.981	13.48
308.193	11.87
308.406	10.58
308.618	8.77
308.83	8.42
309.043	8.38
309.255	8.16
309.467	8.26
309.679	7.5
309.892	7.04
310.104	7.13
310.316	6.89
310.528	7.47
310.74	6.35
310.953	7.25
311.165	8.53
311.377	8.75
311.589	8.75
311.801	8.84
312.013	9.18
312.225	10.3
312.437	10.12
312.649	10.44
312.862	11.84
313.074	12.78
313.286	13.62
313.498	13.64
313.71	13.55
313.922	14.99
314.134	15.57
314.346	15.55
314.558	15.09
314.77	15.2
314.982	15.65
315.193	13.61
315.405	13.96
315.617	12.3
315.829	13.28
316.041	13.02
316.253	11.35
316.465	11.31
316.677	11.27
316.888	11.77
317.1	12.37
317.312	12.06
317.524	11.77
317.736	13.35
317.947	14.01
318.159	13.59
318.371	13.65
318.583	13.32
318.794	13.12
319.006	11.74
319.218	9.26
319.43	9.31
319.641	9.62
319.853	10.33
320.064	9.52
320.276	9.84
320.488	10.35
320.699	9.95
320.911	11.63
321.123	12.56
321.334	15.58
321.546	16.9
321.757	18.96
321.969	19.99
322.18	19.64
322.392	19.16
322.603	19.05
322.815	17.88
323.026	17.9
323.238	18.23
323.449	15.31
323.661	14.09
323.872	14.41
324.083	13.15
324.295	11.95
324.506	12.16
324.718	12.43
324.929	11.64
325.14	12.14
325.352	14.06
325.563	14.02
325.774	15.54
325.986	15.77
326.197	16.63
326.408	17.18
326.62	17.85
326.831	19.35
327.042	18.71
327.253	19.46
327.464	19.79
327.676	18.66
327.887	18.25
328.098	19.07
328.309	19.27
328.52	20.14
328.732	20.23
328.943	21.01
329.154	20.26
329.365	22.45
329.576	22.69
329.787	21.93
329.998	22.43
330.209	20.66
330.42	20.71
330.631	21.44
330.842	19.57
331.053	19.15
331.264	19.27
331.475	18.22
331.686	17.36
331.897	17.39
332.108	19.51
332.319	19.1
332.53	20.67
332.741	21.26
332.952	20.6
333.163	20.99
333.374	20.46
333.585	20.84
333.795	21.5
334.006	21.12
334.217	21.37
334.428	19.26
334.639	18.55
334.849	17.87
335.06	17.31
335.271	18.25
335.482	19.33
335.692	19.09
335.903	19.04
336.114	20.27
336.325	19.43
336.535	19.64
336.746	20.63
336.957	22.16
337.167	23.37
337.378	23.19
337.589	21.58
337.799	20.35
338.01	22.01
338.22	21.1
338.431	20.07
338.642	20.64
338.852	20.45
339.063	19.8
339.273	19.86
339.484	20.34
339.694	20.59
339.905	22.12
340.115	22.96
340.326	22.19
340.536	22.2
340.746	22.54
340.957	22
341.167	21.83
341.378	22.16
341.588	22.18
341.799	21.21
342.009	20.49
342.219	20.88
342.43	20.66
342.64	19.93
342.85	19.69
343.061	19.2
343.271	19.46
343.481	19.51
343.691	18.95
343.902	18.45
344.112	18.25
344.322	18.6
344.532	18.24
344.743	18.53
344.953	18.78
345.163	19.43
345.373	19.99
345.583	20.43
345.793	20.75
346.004	20.94
346.214	20.45
346.424	20.25
346.634	19.56
346.844	19.71
347.054	19.4
347.264	19.24
347.474	19.7
347.684	19.23
347.894	20.39
348.104	20.93
348.314	21.68
348.524	22.27
348.734	21.91
348.944	22.87
349.154	21.73
349.364	21.77
349.574	21.38
349.784	21.27
349.994	20.6
350.204	19.69
350.413	19.11
350.623	18.53
350.833	17.76
351.043	17.31
351.253	17.38
351.463	17.46
351.672	17.62
351.882	18.76
352.092	18.1
352.302	19.49
352.511	19.31
352.721	19.52
352.931	19.95
353.141	19.74
353.35	19.94
353.56	20.11
353.77	20.13
353.979	20.65
354.189	19.86
354.399	19.74
354.608	19
354.818	18.72
355.027	18.36
355.237	17.39
355.447	18.25
355.656	18.59
355.866	17.2
356.075	16.8
356.285	16.01
356.494	15.77
356.704	15.97
356.913	15.92
357.123	16.53
357.332	16.09
357.542	16.43
357.751	15.69
357.96	16.42
358.17	16.92
358.379	17.33
358.589	17.36
358.798	17.74
359.007	17.3
359.217	15.85
359.426	15.29
359.635	15.33
359.845	15.15
360.054	16.07
360.263	16
360.472	16.12
360.682	15.68
360.891	15.78
361.1	15.62
361.309	15.42
361.519	16
361.728	15.92
361.937	15.71
362.146	16.45
362.355	16.2
362.564	15.78
362.774	16.16
362.983	16.88
363.192	16.85
363.401	16.96
363.61	17.05
363.819	17.93
364.028	17.87
364.237	18.52
364.446	17.3
364.655	17.3
364.864	17.56
365.073	17.67
365.282	17.28
365.491	17.63
365.7	17.94
365.909	18.37
366.118	17.93
366.327	18.18
366.536	18.18
366.745	19.02
366.954	19.73
367.162	20.21
367.371	20.21
367.58	20.82
367.789	20.56
367.998	20.05
368.207	19.43
368.415	20.03
368.624	19.87
368.833	19.7
369.042	19.34
369.25	18.98
369.459	18.9
369.668	19.15
369.877	18.94
370.085	18.96
370.294	18.85
370.503	18.67
370.711	18.5
370.92	18.32
371.129	18.81
371.337	18.82
371.546	17.81
371.754	17.77
371.963	16.67
372.171	16.52
372.38	16.59
372.589	17.31
372.797	17.69
373.006	17.62
373.214	17.26
373.423	16.78
373.631	17.18
373.84	17.07
374.048	16.02
374.256	16.59
374.465	16.25
374.673	14.94
374.882	13.86
375.09	13.09
375.298	12.77
375.507	13
375.715	12.86
375.923	11.5
376.132	11.29
376.34	11.72
376.548	11.56
376.757	11.7
376.965	13.08
377.173	13.88
377.381	15.21
377.59	15.74
377.798	15.08
378.006	14.63
378.214	15.43
378.423	15.65
378.631	15.01
378.839	14.35
379.047	14.9
379.255	14.49
379.463	14.34
379.671	14.02
379.879	13.22
380.088	14.68
380.296	15.33
380.504	15.68
380.712	16.34
380.92	16.86
381.128	17.53
381.336	16.75
381.544	16.76
381.752	15.94
381.96	15.57
382.168	16.01
382.376	14.84
382.584	13.76
382.791	13.08
382.999	13.35
383.207	13.14
383.415	13.49
383.623	13.33
383.831	12.95
384.039	13.72
384.247	13.92
384.454	14.07
384.662	14.43
384.87	14.96
385.078	15.21
385.285	14.51
385.493	15.09
385.701	14.17
385.909	13.98
386.116	14.39
386.324	14.29
386.532	14.23
386.739	13.45
386.947	14.05
387.155	14.51
387.362	14.52
387.57	14.36
387.778	14.72
387.985	15.33
388.193	15.15
388.4	15.26
388.608	15.34
388.816	14.89
389.023	15.06
389.231	14.07
389.438	13.42
389.646	13.09
389.853	12.99
390.061	12.44
390.268	12.02
390.475	12.13
390.683	11.44
390.89	11.24
391.098	11.21
391.305	11.59
391.512	11.82
391.72	11.61
391.927	11.56
392.135	11.8
392.342	11.55
392.549	12.04
392.756	12.3
392.964	12.47
393.171	12.53
393.378	12.53
393.586	12.01
393.793	11.55
394	11.92
394.207	11.86
394.414	11.54
394.622	11.57
394.829	11.44
395.036	10.8
395.243	11.08
395.45	11.18
395.657	11.27
395.864	11.81
396.072	12.39
396.279	11.92
396.486	11.84
396.693	12.32
396.9	12.75
397.107	12.61
397.314	13.2
397.521	12.9
397.728	12.56
397.935	12.53
398.142	12.25
398.349	11.54
398.556	11.67
398.763	11.49
398.97	10.95
399.177	10.59
399.383	10.86
399.59	11.13
399.797	11.13
400.004	11.05
400.211	11.55
400.418	11.37
400.625	12.22
400.831	12.67
401.038	13.05
401.245	13.91
401.452	13.58
401.658	13.06
401.865	12.84
402.072	12.28
402.279	11.74
402.485	11.23
402.692	11.42
402.899	11.04
403.105	11.03
403.312	11.71
403.519	11.21
403.725	10.77
403.932	10.92
404.138	10.6
404.345	11.47
404.552	11.65
404.758	11.92
404.965	11.43
405.171	11.62
405.378	11.93
405.584	11.33
405.791	11.6
405.997	12.28
406.204	12.28
406.41	12.83
406.617	12.14
406.823	12.85
407.029	12.73
407.236	13.06
407.442	12.93
407.649	12.6
407.855	12.21
408.061	12.07
408.268	12.25
408.474	12.53
408.68	11.54
408.887	11.97
409.093	11.55
409.299	11.53
409.505	11.54
409.712	11.29
409.918	11.14
410.124	11.6
410.33	11.55
410.537	10.87
410.743	10.6
410.949	11.56
411.155	11.23
411.361	11.93
411.567	11.97
411.773	12.12
411.98	12.1
412.186	11.96
412.392	11.57
412.598	11.31
412.804	11.34
413.01	11.51
413.216	11.34
413.422	11.75
413.628	10.98
413.834	10.61
414.04	10.67
414.246	10.69
414.452	11.11
414.658	11.4
414.864	11.07
415.07	11.52
415.275	11.56
415.481	11.82
415.687	11.45
415.893	11.5
416.099	11.99
416.305	11.59
416.511	11.93
416.716	11.25
416.922	11.07
417.128	11.06
417.334	10.89
417.539	10.28
417.745	10.11
417.951	9.97
418.157	9.71
418.362	9.37
418.568	9.25
418.774	8.96
418.979	9.14
419.185	8.91
419.391	9.27
419.596	9.25
419.802	9.32
420.008	8.76
420.213	8.8
420.419	8.78
420.624	8.62
420.83	8.83
421.035	8.77
421.241	8.59
421.446	8.8
421.652	8.37
421.857	8.16
422.063	8.08
422.268	8.49
422.474	8.57
422.679	8.54
422.885	8.78
423.09	8.52
423.295	8.54
423.501	8.77
423.706	8.71
423.911	8.79
424.117	8.83
424.322	8.99
424.527	8.89
424.733	8.64
424.938	8.82
425.143	8.68
425.349	8.52
425.554	8.63
425.759	8.48
425.964	8.53
426.169	8.78
426.375	8.58
426.58	8.48
426.785	8.41
426.99	8.69
427.195	8.6
427.4	8.36
427.605	8.95
427.811	8.35
428.016	8.59
428.221	8.58
428.426	8.4
428.631	9.05
428.836	9.05
429.041	9.22
429.246	9.44
429.451	9.74
429.656	10.03
429.861	9.82
430.066	10.3
430.271	10.52
430.476	10.46
430.681	10.82
430.886	10.39
431.09	10.33
431.295	10.3
431.5	9.77
431.705	9.34
431.91	9.05
432.115	8.89
432.32	9.04
432.524	9.1
432.729	8.85
432.934	8.41
433.139	8.53
433.343	8.61
433.548	8.36
433.753	8.66
433.958	8.98
434.162	9.28
434.367	9.35
434.572	9.34
434.776	8.91
434.981	9.36
435.186	9.35
435.39	9.19
435.595	9.58
435.799	9.78
436.004	9.56
436.209	9.34
436.413	9.09
436.618	9.51
436.822	9.47
437.027	9.32
437.231	8.65
437.436	8.94
437.64	8.94
437.845	8.41
438.049	8.3
438.253	8.47
438.458	8.3
438.662	8.4
438.867	8.1
439.071	8.06
439.275	8.13
439.48	8.4
439.684	8.2
439.888	8.19
440.093	8.47
440.297	8.46
440.501	8.43
440.706	8.62
440.91	8.73
441.114	8.87
441.318	9.19
441.523	9.42
441.727	9.75
441.931	9.68
442.135	9.61
442.339	9.54
442.543	9.66
442.748	9.98
442.952	10.18
443.156	10.06
443.36	9.84
443.564	9.51
443.768	9.06
443.972	9.16
444.176	9.31
444.38	9.37
444.584	9.24
444.788	8.96
444.992	8.67
445.196	8.37
445.4	8.46
445.604	8.27
445.808	8.34
446.012	8.52
446.216	8.15
446.42	8.11
446.624	8.41
446.828	8.26
447.032	8.49
447.235	8.5
447.439	8.68
447.643	8.35
447.847	8.7
448.051	8.62
448.254	8.49
448.458	8.4
448.662	8.49
448.866	8.11
449.069	8.24
449.273	8.19
449.477	7.98
449.681	7.97
449.884	8.17
450.088	8.2
450.292	8.37
450.495	8.77
450.699	8.78
450.902	8.74
451.106	8.97
451.31	9.27
451.513	9.18
451.717	9.34
451.92	9.37
452.124	9.54
452.327	9.46
452.531	9.12
452.734	8.87
452.938	9.07
453.141	8.95
453.345	8.86
453.548	8.6
453.752	8.73
453.955	9.08
454.158	8.74
454.362	8.97
454.565	8.87
454.769	9.06
454.972	9.51
455.175	9.53
455.379	9.69
455.582	9.34
455.785	9.31
455.988	9.11
456.192	8.73
456.395	9.18
456.598	8.92
456.801	8.97
457.005	8.81
457.208	8.26
457.411	8.3
457.614	8.34
457.817	8.82
458.021	8.98
458.224	8.87
458.427	8.95
458.63	9.13
458.833	8.98
459.036	8.73
459.239	8.57
459.442	8.67
459.645	8.55
459.848	8.62
460.051	8.54
460.254	8.34
460.457	8.42
460.66	8.38
460.863	7.9
461.066	7.95
461.269	8.02
461.472	8.04
461.675	7.97
461.878	7.96
462.081	7.92
462.284	7.54
462.486	7.75
462.689	7.96
462.892	8.08
463.095	7.67
463.298	7.84
463.5	8.09
463.703	8.32
463.906	8.44
464.109	8.82
464.311	8.78
464.514	9.29
464.717	9.19
464.92	8.88
465.122	8.57
465.325	9.16
465.528	8.98
465.73	8.74
465.933	8.84
466.135	9.25
466.338	9.06
466.541	9.05
466.743	8.78
466.946	8.65
467.148	8.95
467.351	9.15
467.553	8.78
467.756	9.21
467.958	9.43
468.161	9.18
468.363	8.78
468.566	8.54
468.768	8.18
468.971	8.27
469.173	8.38
469.375	8.2
469.578	8.29
469.78	8.54
469.983	8.14
470.185	8.38
470.387	8.85
470.59	8.85
470.792	8.9
470.994	8.84
471.196	8.65
471.399	8.65
471.601	8.76
471.803	8.48
472.005	8.39
472.208	8.41
472.41	7.94
472.612	7.71
472.814	7.83
473.016	7.93
473.218	7.98
473.421	8.18
473.623	8.39
473.825	8.33
474.027	8.61
474.229	8.89
474.431	8.67
474.633	8.96
474.835	9.16
475.037	9.08
475.239	8.99
475.441	9.54
475.643	9.7
475.845	9.4
476.047	9.64
476.249	9.52
476.451	9.35
476.653	9.41
476.855	9.1
477.057	8.95
477.258	8.47
477.46	8.53
477.662	8.34
477.864	8.04
478.066	8.24
478.268	7.97
478.469	7.74
478.671	7.73
478.873	7.9
479.075	8.06
479.276	8.16
479.478	8.32
479.68	8.1
479.882	8.2
480.083	8.15
480.285	7.92
480.487	8.07
480.688	8.34
480.89	8.14
481.091	8.05
481.293	7.85
481.495	7.63
481.696	7.88
481.898	8.04
482.099	7.82
482.301	7.84
482.502	7.84
482.704	7.71
482.905	7.47
483.107	7.39
483.308	7.36
483.51	7.41
483.711	7.41
483.913	7.35
484.114	7.37
484.315	7.38
484.517	7.39
484.718	7.38
484.92	7.33
485.121	7.47
485.322	7.71
485.524	7.69
485.725	7.72
485.926	7.71
486.127	7.66
486.329	7.54
486.53	7.56
486.731	7.49
486.932	7.5
487.134	7.55
487.335	7.51
487.536	7.36
487.737	7.31
487.938	7.31
488.139	7.38
488.341	7.33
488.542	7.46
488.743	7.48
488.944	7.54
489.145	7.54
489.346	7.64
489.547	7.69
489.748	7.8
489.949	7.81
490.15	8.03
490.351	7.95
490.552	8.05
490.753	7.97
490.954	7.88
491.155	8
491.356	8.02
491.557	8
491.758	7.89
491.959	7.7
492.159	7.97
492.36	7.7
492.561	7.79
492.762	7.84
492.963	7.85
493.164	7.94
493.364	7.8
493.565	7.77
493.766	7.9
493.967	8.07
494.167	8.36
494.368	8.12
494.569	8.18
494.769	8.17
494.97	8.24
495.171	8.39
495.371	8.48
495.572	8.6
495.773	8.66
495.973	8.48
496.174	8.58
496.375	8.7
496.575	8.77
496.776	8.67
496.976	8.49
497.177	8.4
497.377	8.32
497.578	8.36
497.778	8.42
497.979	8.41
498.179	8.47
498.38	8.45
498.58	8.46
498.78	8.52
498.981	8.67
499.181	8.85
499.382	8.98
499.582	9.02
499.782	9.07
499.983	9.11
500.183	9.23
500.383	9.12
500.584	9.06
500.784	9.08
500.984	9.12
501.184	9.01
501.385	9.01
501.585	9.22
501.785	9.37
501.985	9.28
502.185	9.25
502.386	9.18
502.586	9.21
502.786	9.23
502.986	9.27
503.186	9.39
503.386	9.56
503.586	9.74
503.786	9.47
503.987	9.12
504.187	9.22
504.387	9.16
504.587	8.74
504.787	9.09
504.987	9.15
505.187	9.14
505.387	8.97
505.587	8.9
505.786	8.68
505.986	8.9
506.186	9.1
506.386	9.05
506.586	9.08
506.786	9.22
506.986	8.97
507.186	8.99
507.386	8.95
507.585	9.2
507.785	9.57
507.985	9.66
508.185	9.46
508.384	9.34
508.584	9.32
508.784	9.44
508.984	9.63
509.183	9.69
509.383	9.88
509.583	9.97
509.782	9.98
509.982	9.93
510.182	10.11
510.381	10.23
510.581	10.4
510.781	10.47
510.98	10.32
511.18	10.58
511.379	10.62
511.579	10.39
511.778	10.16
511.978	10.24
512.177	10.15
512.377	10.16
512.576	10.16
512.776	10.46
512.975	10.56
513.175	10.79
513.374	10.86
513.573	11.05
513.773	11.28
513.972	11.66
514.172	11.5
514.371	11.82
514.57	11.92
514.77	12.03
514.969	12.05
515.168	12.18
515.367	12.44
515.567	12.79
515.766	12.72
515.965	12.87
516.164	13.05
516.364	13.21
516.563	13.14
516.762	13.16
516.961	13.32
517.16	13.41
517.359	13.51
517.559	13.38
517.758	13.25
517.957	13.33
518.156	13.45
518.355	13.5
518.554	13.73
518.753	13.66
518.952	13.69
519.151	13.72
519.35	13.65
519.549	13.74
519.748	13.96
519.947	13.9
520.146	14.19
520.345	14.02
520.544	13.94
520.743	13.93
520.942	14.28
521.141	14.51
521.339	14.85
521.538	14.94
521.737	14.73
521.936	14.52
522.135	14.52
522.333	14.57
522.532	14.82
522.731	14.96
522.93	15
523.129	14.95
523.327	14.94
523.526	15.02
523.725	15.38
523.923	15.58
524.122	15.7
524.321	16.09
524.519	16.24
524.718	16.3
524.917	16.27
525.115	16.34
525.314	16.5
525.512	16.62
525.711	16.5
525.909	16.3
526.108	16.53
526.306	16.69
526.505	16.59
526.703	16.36
526.902	16.43
527.1	16.53
527.299	16.59
527.497	16.55
527.696	16.52
527.894	16.61
528.092	16.72
528.291	16.76
528.489	16.78
528.688	16.85
528.886	16.94
529.084	16.99
529.283	17.08
529.481	17.04
529.679	17.15
529.877	17.21
530.076	17.33
530.274	17.5
530.472	17.46
530.67	17.58
530.869	17.69
531.067	17.79
531.265	17.92
531.463	17.98
531.661	18.25
531.859	18.33
532.057	18.46
532.255	18.52
532.454	18.53
532.652	18.62
532.85	18.63
533.048	18.64
533.246	18.81
533.444	18.9
533.642	19.05
533.84	18.99
534.038	19.01
534.236	19.25
534.434	19.3
534.632	19.43
534.83	19.51
535.027	19.74
535.225	19.97
535.423	20.21
535.621	20.36
535.819	20.37
536.017	20.38
536.215	20.42
536.412	20.25
536.61	20.44
536.808	20.51
537.006	20.68
537.203	20.94
537.401	21.06
537.599	21.01
537.797	21.02
537.994	20.99
538.192	21.46
538.39	21.74
538.587	21.89
538.785	21.92
538.983	21.88
539.18	22.04
539.378	21.76
539.575	21.72
539.773	21.62
539.97	21.54
540.168	21.59
540.366	21.44
540.563	21.36
540.761	21.39
540.958	21.27
541.155	21.38
541.353	21.32
541.55	21.4
541.748	21.43
541.945	21.57
542.143	21.67
542.34	21.84
542.537	21.83
542.735	21.91
542.932	22.03
543.129	22.19
543.327	22.18
543.524	22.17
543.721	22.22
543.919	22.62
544.116	22.79
544.313	22.78
544.51	22.78
544.708	22.98
544.905	23.17
545.102	23.15
545.299	23.27
545.496	23.37
545.693	23.46
545.891	23.57
546.088	23.35
546.285	23.18
546.482	23.38
546.679	23.51
546.876	23.61
547.073	23.67
547.27	23.72
547.467	23.78
547.664	24.02
547.861	24.26
548.058	24.45
548.255	24.45
548.452	24.63
548.649	24.65
548.846	24.53
549.043	24.39
549.24	24.69
549.437	24.66
549.633	24.74
549.83	24.28
550.027	24.35
550.224	24.16
550.421	24.47
550.618	24.58
550.814	24.46
551.011	24.91
551.208	25.12
551.405	24.76
551.601	25.03
551.798	25.1
551.995	25.52
552.191	25.41
552.388	25.58
552.585	25.34
552.781	25.3
552.978	25.72
553.175	25.42
553.371	25.48
553.568	25.56
553.764	25.71
553.961	25.73
554.157	25.57
554.354	25.69
554.55	25.72
554.747	25.71
554.943	25.54
555.14	25.67
555.336	26.18
555.533	26.41
555.729	26.51
555.926	26.54
556.122	26.39
556.318	26.57
556.515	26.85
556.711	26.8
556.907	26.93
557.104	27.26
557.3	26.98
557.496	26.47
557.693	26.02
557.889	26.49
558.085	26.77
558.281	27.4
558.478	27.38
558.674	27.12
558.87	27.02
559.066	27.12
559.262	27.06
559.459	27.09
559.655	27.24
559.851	27.49
560.047	27.28
560.243	26.8
560.439	26.67
560.635	26.69
560.831	26.74
561.027	26.82
561.223	26.98
561.419	26.88
561.615	27.14
561.811	27.55
562.007	27.8
562.203	27.53
562.399	27.82
562.595	27.67
562.791	27.53
562.987	27.88
563.183	28.15
563.379	28.17
563.575	28.6
563.771	28.46
563.966	28.39
564.162	28.06
564.358	28.33
564.554	28.3
564.75	28.23
564.945	28.34
565.141	27.84
565.337	27.68
565.533	27.7
565.728	27.5
565.924	27.55
566.12	27.49
566.315	27.41
566.511	27.04
566.707	26.99
566.902	26.83
567.098	27.29
567.293	27.68
567.489	27.47
567.684	27.26
567.88	27.32
568.076	27.12
568.271	27.16
568.467	27.6
568.662	28.16
568.858	28.1
569.053	28.56
569.248	27.95
569.444	27.8
569.639	28.09
569.835	27.97
570.03	28.22
570.225	28.14
570.421	27.86
570.616	27.57
570.812	27.59
571.007	27.89
571.202	27.52
571.397	27.6
571.593	27.66
571.788	27.61
571.983	27.79
572.178	27.65
572.374	27.73
572.569	27.84
572.764	27.98
572.959	28.14
573.154	28.11
573.35	28.38
573.545	28.51
573.74	28.34
573.935	28.46
574.13	28.52
574.325	28.7
574.52	28.89
574.715	28.96
574.91	28.88
575.105	28.78
575.3	28.93
575.495	28.8
575.69	28.77
575.885	29.06
576.08	29.2
576.275	29.11
576.47	28.93
576.665	29.07
576.86	29.15
577.055	29.53
577.25	29.21
577.444	28.86
577.639	29.04
577.834	28.97
578.029	28.83
578.224	28.94
578.418	29.19
578.613	29.14
578.808	29.24
579.003	29.08
579.197	28.98
579.392	29.03
579.587	29.28
579.781	28.94
579.976	29.17
580.171	29.06
580.365	28.62
580.56	28.71
580.755	28.82
580.949	28.39
581.144	29.08
581.338	29.12
581.533	29.47
581.727	29.38
581.922	29.76
582.116	30.14
582.311	30.15
582.505	30.38
582.7	30.11
582.894	30.29
583.089	30.5
583.283	30.62
583.478	30.47
583.672	30.2
583.866	30.11
584.061	29.86
584.255	29.42
584.449	29.31
584.644	29.35
584.838	29.49
585.032	29.52
585.226	29.65
585.421	29.03
585.615	29
585.809	29.58
586.003	29.47
586.198	29.66
586.392	29.71
586.586	30.32
586.78	30.41
586.974	30.37
587.168	30.26
587.363	30.35
587.557	30.62
587.751	30.43
587.945	30.25
588.139	30.59
588.333	30.57
588.527	30.35
588.721	30.23
588.915	30.35
589.109	30.49
589.303	30.64
589.497	30.44
589.691	30.57
589.885	30.41
590.079	30.01
590.273	29.8
590.466	30.04
590.66	30.36
590.854	30.25
591.048	30.15
591.242	30.03
591.436	29.73
591.629	29.54
591.823	28.9
592.017	29.64
592.211	30
592.404	30.18
592.598	29.93
592.792	29.82
592.986	30.12
593.179	29.79
593.373	30.04
593.567	30.29
593.76	30.56
593.954	30.95
594.147	30.75
594.341	30.52
594.535	30.78
594.728	31.12
594.922	31.22
595.115	30.88
595.309	31.2
595.502	31.37
595.696	31.55
595.889	31.77
596.083	31.6
596.276	31.43
596.47	31.46
596.663	31.1
596.856	30.69
597.05	30.48
597.243	30.78
597.437	30.97
597.63	30.96
597.823	30.63
598.017	30.32
598.21	30.33
598.403	30.43
598.596	30.88
598.79	30.94
598.983	31.04
599.176	30.75
599.369	30.27
599.563	29.78
599.756	29.56
599.949	30.01
600.142	30.1
600.335	30.04
600.528	30.37
600.722	29.56
600.915	29.66
601.108	29.94
601.301	30.3
601.494	30.55
601.687	30.44
601.88	30.58
602.073	30.35
602.266	30.46
602.459	30.95
602.652	30.74
602.845	31.06
603.038	31.23
603.231	31.7
603.424	31.69
603.617	31.72
603.809	32.19
604.002	32.05
604.195	32.17
604.388	31.99
604.581	31.74
604.774	31.73
604.966	31.6
605.159	31.82
605.352	31.18
605.545	31.67
605.737	31.75
605.93	31.62
606.123	31.7
606.316	31.54
606.508	31.67
606.701	32.09
606.894	32.28
607.086	32.3
607.279	32.17
607.471	32.54
607.664	32.41
607.857	32.38
608.049	32.03
608.242	31.7
608.434	32.09
608.627	32.32
608.819	31.85
609.012	31.79
609.204	31.99
609.397	31.85
609.589	32.03
609.782	31.83
609.974	31.96
610.166	32.21
610.359	31.95
610.551	31.92
610.743	31.64
610.936	31.92
611.128	31.6
611.32	31.64
611.513	31.94
611.705	31.8
611.897	32.32
612.09	32.37
612.282	32.28
612.474	33.26
612.666	33.11
612.858	33.49
613.051	33.45
613.243	33.77
613.435	33.56
613.627	33.06
613.819	33.22
614.011	32.89
614.203	33.4
614.395	33.54
614.588	33.52
614.78	33.46
614.972	33.75
615.164	33.81
615.356	33.73
615.548	33.58
615.74	34.04
615.932	34.03
616.124	34.31
616.315	34.12
616.507	34.66
616.699	34.58
616.891	34.53
617.083	34.06
617.275	33.95
617.467	34.34
617.659	35.06
617.85	35.33
618.042	35.26
618.234	34.84
618.426	34.23
618.618	33.51
618.809	33.08
619.001	33.21
619.193	33.38
619.384	34.14
619.576	33.98
619.768	33.99
619.959	33.42
620.151	33.52
620.343	33.79
620.534	34.21
620.726	34.21
620.917	33.98
621.109	33.88
621.301	33.66
621.492	33.16
621.684	33.63
621.875	33.59
622.067	33.51
622.258	32.77
622.45	32.57
622.641	32.18
622.832	32.83
623.024	33.28
623.215	32.97
623.407	32.74
623.598	33.08
623.789	32.23
623.981	32.44
624.172	32.4
624.363	32.81
624.555	32.32
624.746	32.17
624.937	31.73
625.129	31.88
625.32	32.14
625.511	32.73
625.702	32.23
625.893	32.58
626.085	32.56
626.276	33.06
626.467	33.18
626.658	33.62
626.849	33.93
627.04	34.31
627.231	34.23
627.422	34.24
627.614	34.36
627.805	34.56
627.996	34.66
628.187	34.16
628.378	34.07
628.569	34.3
628.76	34.44
628.951	34.36
629.142	34.65
629.332	34.52
629.523	34.54
629.714	34.16
629.905	34.17
630.096	34.26
630.287	34.62
630.478	34.39
630.669	34.32
630.859	34.33
631.05	34.89
631.241	34.5
631.432	35.16
631.623	35.72
631.813	35.76
632.004	35.61
632.195	35.49
632.385	35.61
632.576	36.15
632.767	35.69
632.957	35.44
633.148	35.48
633.339	35.38
633.529	35.18
633.72	34.93
633.91	34.98
634.101	35.06
634.292	34.85
634.482	34.58
634.673	34.01
634.863	34.4
635.054	34.75
635.244	33.69
635.435	33.81
635.625	33.71
635.815	33.39
636.006	33.92
636.196	34
636.387	34.14
636.577	34.55
636.767	34.39
636.958	34.33
637.148	34.45
637.338	35.47
637.529	35.79
637.719	35.32
637.909	35.63
638.099	35.61
638.29	35.72
638.48	36.35
638.67	36.2
638.86	36.85
639.05	36.67
639.241	36.82
639.431	37.21
639.621	36.98
639.811	37.57
640.001	37.68
640.191	36.7
640.381	36.42
640.571	35.65
640.761	35.62
640.951	35.42
641.141	35.93
641.331	35.91
641.521	34.97
641.711	35.39
641.901	36.14
642.091	35.84
642.281	36.6
642.471	36.81
642.661	36.87
642.851	36.6
643.041	36.93
643.231	36.77
643.42	36.63
643.61	36.83
643.8	37.17
643.99	35.91
644.18	36.41
644.369	36.22
644.559	36.87
644.749	37.42
644.939	38.08
645.128	37.53
645.318	37.29
645.508	37.19
645.697	37.26
645.887	36.33
646.076	36.42
646.266	35.88
646.456	36.25
646.645	35.57
646.835	35.49
647.024	35.35
647.214	35.75
647.403	35.17
647.593	35.74
647.782	35.62
647.972	35.41
648.161	35.38
648.351	35.53
648.54	35.79
648.73	36.04
648.919	35.68
649.108	35.19
649.298	34.94
649.487	35.31
649.677	34.95
649.866	35.09
650.055	35.38
650.244	35.75
650.434	35.28
650.623	34.77
650.812	34.58
651.002	34.91
651.191	35.48
651.38	35.44
651.569	35.57
651.758	35
651.947	35.38
652.137	35.59
652.326	35.63
652.515	35.36
652.704	35.95
652.893	36.39
653.082	36.28
653.271	35.77
653.46	35.76
653.649	36.54
653.838	36.81
654.027	36.57
654.216	36.17
654.405	36.84
654.594	37.35
654.783	36.77
654.972	36.41
655.161	36.39
655.35	36.13
655.539	35.87
655.728	35.3
655.916	35.44
656.105	35.78
656.294	35.37
656.483	35.12
656.672	35.03
656.86	34.37
657.049	34.98
657.238	33.85
657.427	34.6
657.615	34.74
657.804	34.8
657.993	34.47
658.181	33.49
658.37	34.52
658.559	34.64
658.747	34.61
658.936	35.39
659.125	35.83
659.313	36.79
659.502	36.71
659.69	36.47
659.879	36.43
660.067	37.05
660.256	37.51
660.444	37.42
660.633	36.98
660.821	37.03
661.01	36.34
661.198	34.8
661.387	35.42
661.575	35.49
661.763	35.8
661.952	35.51
662.14	35.8
662.328	36.25
662.517	36
662.705	35.83
662.893	36.66
663.082	36.83
663.27	37.41
663.458	36.14
663.646	35.95
663.834	36.42
664.023	37.14
664.211	36.97
664.399	36.7
664.587	36.21
664.775	36.61
664.963	36.22
665.152	35.86
665.34	36.22
665.528	36.23
665.716	36.78
665.904	36.67
666.092	35.81
666.28	35.78
666.468	35.54
666.656	36.14
666.844	36.21
667.032	36.39
667.22	37.01
667.408	36.59
667.596	36.66
667.784	36.5
667.971	36.41
668.159	37
668.347	36.81
668.535	37.27
668.723	37.15
668.911	37.24
669.098	37.7
669.286	37.53
669.474	37.93
669.662	38.84
669.849	38.72
670.037	38.52
670.225	38.58
670.413	38.38
670.6	38.6
670.788	38.27
670.976	37.88
671.163	37.81
671.351	38.26
671.538	38.06
671.726	38.02
671.913	38.8
672.101	38.91
672.289	39.17
672.476	39.2
672.664	38.83
672.851	39.16
673.039	39.89
673.226	38.98
673.413	38.79
673.601	38.38
673.788	38.78
673.976	37.3
674.163	37.51
674.35	36.92
674.538	37.02
674.725	37.63
674.912	37.82
675.1	37.21
675.287	37.4
675.474	37.41
675.662	38.05
675.849	37.53
676.036	37.99
676.223	38.75
676.411	39.55
676.598	39.91
676.785	39.92
676.972	39.8
677.159	40.24
677.346	40.99
677.533	41.42
677.721	41.76
677.908	41.72
678.095	41.81
678.282	40.96
678.469	40.11
678.656	39.13
678.843	38.54
679.03	38.03
679.217	37.53
679.404	37.05
679.591	36.08
679.778	35.69
679.964	34.92
680.151	34.6
680.338	34.96
680.525	34.7
680.712	35.25
680.899	34.68
681.086	35.46
681.272	35.72
681.459	35.82
681.646	36.08
681.833	36.12
682.02	36.99
682.206	37.85
682.393	37.84
682.58	38.75
682.766	38.59
682.953	39.44
683.14	38.87
683.326	39.1
683.513	39.31
683.7	39.54
683.886	38.83
684.073	38.21
684.259	37.1
684.446	37.53
684.632	37.26
684.819	37.71
685.005	38.34
685.192	38.85
685.378	38.95
685.565	38.6
685.751	38.79
685.938	38.8
686.124	39.85
686.31	40.82
686.497	40.51
686.683	40.89
686.87	41.27
687.056	40.41
687.242	40.56
687.429	39.44
687.615	39.29
687.801	40.21
687.987	40.7
688.174	40.58
688.36	39.99
688.546	39.82
688.732	39.28
688.918	38.52
689.105	38.8
689.291	38.5
689.477	39.33
689.663	39.92
689.849	39.26
690.035	39.39
690.221	38.37
690.407	38.51
690.593	39.28
690.779	39.43
690.965	39.58
691.151	39.11
691.337	39
691.523	39.35
691.709	38.45
691.895	38.16
692.081	39.06
692.267	40.45
692.453	41.05
692.639	39.54
692.825	40.48
693.011	41
693.196	41.75
693.382	41.73
693.568	41.35
693.754	41.8
693.94	42.83
694.125	42.13
694.311	40.77
694.497	39.88
694.682	40.27
694.868	39.31
695.054	38.6
695.239	38.04
695.425	38.27
695.611	38.42
695.796	38.86
695.982	38.17
696.168	38.14
696.353	38.83
696.539	39.06
696.724	39.98
696.91	40.45
697.095	40.15
697.281	40.38
697.466	40.37
697.652	40.18
697.837	39.35
698.023	38.89
698.208	38.86
698.393	38.57
698.579	38.37
698.764	38.08
698.949	37.8
699.135	38.33
699.32	38.26
699.505	38.36
699.691	38.18
699.876	38.16
700.061	38.48
700.246	38.68
700.432	39.01
700.617	40.39
700.802	39.8
700.987	40.18
701.172	40.7
701.358	41.26
701.543	40.88
701.728	41.98
701.913	43.61
702.098	43.14
702.283	42.61
702.468	42.72
702.653	41.64
702.838	42.21
703.023	42.21
703.208	41.44
703.393	40.59
703.578	40.96
703.763	41.48
703.948	40.82
704.133	42.23
704.318	43.04
704.503	43.21
704.688	43.67
704.873	43.55
705.057	43.16
705.242	42.58
705.427	42.93
705.612	43.45
705.797	41.83
705.981	42.31
706.166	41.24
706.351	40.35
706.536	41.49
706.72	41.36
706.905	41.76
707.09	41.68
707.274	43.6
707.459	43.99
707.644	43.11
707.828	43.75
708.013	43.68
708.197	44.73
708.382	45.9
708.567	45.05
708.751	44.54
708.936	44.13
709.12	43.61
709.305	41.41
709.489	41.77
709.673	42.42
709.858	42.62
710.042	43.37
710.227	42.03
710.411	41.71
710.596	41.21
710.78	41.37
710.964	41.16
711.149	42.02
711.333	42.44
711.517	42.62
711.702	42.31
711.886	42.49
712.07	41.69
712.254	42.89
712.438	43.67
712.623	43.84
712.807	44.42
712.991	44.92
713.175	44.05
713.359	44.41
713.544	43.41
713.728	44.54
713.912	45.25
714.096	45.64
714.28	44.46
714.464	42.97
714.648	43.87
714.832	43.67
715.016	43.28
715.2	44.26
715.384	43.89
715.568	44.16
715.752	42.86
715.936	41.46
716.12	41.57
716.304	41.71
716.488	41.34
716.671	39.99
716.855	38.98
717.039	39.1
717.223	37.89
717.407	38.69
717.59	38.24
717.774	38.33
717.958	39.31
718.142	37.82
718.325	38.54
718.509	40.19
718.693	41.21
718.877	42.35
719.06	42.42
719.244	43.36
719.428	43.59
719.611	45.62
719.795	45.93
719.978	45.16
720.162	46.16
720.345	46.22
720.529	45.7
720.713	45.63
720.896	44.86
721.08	45.71
721.263	45.79
721.446	45.73
721.63	45.46
721.813	44.16
721.997	45.55
722.18	46.16
722.364	47.38
722.547	47.2
722.73	46.9
722.914	47.98
723.097	48.98
723.28	49.79
723.464	50.42
723.647	49.28
723.83	50.67
724.013	49.93
724.197	49.49
724.38	49.17
724.563	50.11
724.746	50.38
724.929	50.35
725.112	49.62
725.296	49.8
725.479	49.37
725.662	49.66
725.845	49.11
726.028	49.13
726.211	49.43
726.394	49.28
726.577	48.13
726.76	47.03
726.943	46.73
727.126	45.93
727.309	45.42
727.492	46.14
727.675	45.35
727.858	45.6
728.041	44.16
728.224	42.77
728.407	42.89
728.589	43.35
728.772	44.41
728.955	44.67
729.138	44.83
729.321	43.76
729.503	42.45
729.686	42.25
729.869	42.36
730.052	42.21
730.234	43.8
730.417	43.92
730.6	43.65
730.782	43.13
730.965	42.42
731.148	42.34
731.33	41.96
731.513	42.81
731.695	42.74
731.878	43.12
732.061	43.39
732.243	41.88
732.426	41.67
732.608	41.79
732.791	42.26
732.973	41.23
733.156	42.56
733.338	43.69
733.52	43.97
733.703	44.86
733.885	42.94
734.068	43.51
734.25	44.65
734.432	45.02
734.615	45.14
734.797	44.83
734.979	46.74
735.162	44.58
735.344	43.33
735.526	41.15
735.708	40.4
735.891	41.6
736.073	41.79
736.255	41.5
736.437	40.36
736.619	41.4
736.802	40.5
736.984	40.48
737.166	41.29
737.348	44.33
737.53	46.26
737.712	47.1
737.894	46.41
738.076	45.97
738.258	45.46
738.44	45.85
738.622	44.65
738.804	45.84
738.986	45.28
739.168	47.57
739.35	44.97
739.532	44.72
739.714	44.62
739.896	44.73
740.078	46.65
740.259	47.46
740.441	49.19
740.623	50.09
740.805	50.62
740.987	51.74
741.168	48.97
741.35	50.78
741.532	50.49
741.714	49.71
741.895	51.15
742.077	49.17
742.259	48.04
742.44	44.67
742.622	44.13
742.804	44.34
742.985	43.26
743.167	45.29
743.348	46.31
743.53	46.16
743.711	48.26
743.893	46.98
744.075	48.67
744.256	51.43
744.438	53.44
744.619	54.88
744.8	54.04
744.982	56.25
745.163	57.59
745.345	54.87
745.526	53.86
745.707	54.2
745.889	54.24
746.07	55.12
746.252	52.99
746.433	51.26
746.614	48.94
746.795	48.33
746.977	48.05
747.158	46.63
747.339	44.96
747.52	46.91
747.702	46.95
747.883	46.6
748.064	44.44
748.245	46.45
748.426	47.63
748.607	49.62
748.788	52.25
748.97	50.29
749.151	48.91
749.332	50.05
749.513	50.55
749.694	50.11
749.875	52.14
750.056	53.53
750.237	52.34
750.418	54.99
750.599	55.1
750.78	50.84
750.96	50.66
751.141	48.9
751.322	50.65
751.503	46.66
751.684	46.58
751.865	47.2
752.046	47.62
752.226	47.3
752.407	45.91
752.588	44.97
752.769	47.96
752.949	48.89
753.13	50.49
753.311	51.57
753.492	54.38
753.672	53.58
753.853	54.17
754.034	55.21
754.214	51.84
754.395	52.49
754.575	53.82
754.756	52.78
754.937	54.05
755.117	56.02
755.298	55.23
755.478	56.6
755.659	57.07
755.839	55.3
756.02	54.93
756.2	58.83
756.381	58.9
756.561	57.92
756.741	58.12
756.922	57.8
757.102	58.15
757.283	57.81
757.463	56.51
757.643	56.99
757.823	57.3
758.004	55.48
758.184	54.1
758.364	52.37
758.545	52.87
758.725	53.46
758.905	55.09
759.085	53.77
759.265	52.86
759.446	53.19
759.626	52.89
759.806	51.63
759.986	50.19
760.166	51.96
760.346	53.11
760.526	52.1
760.706	53.74
760.886	50.64
761.066	50.79
761.246	51.81
761.426	50.38
761.606	48.31
761.786	48.41
761.966	49.73
762.146	48.23
762.326	47.52
762.506	47.64
762.686	45.54
762.866	44.71
763.046	43.52
763.225	42.25
763.405	41.26
763.585	41.28
763.765	41.05
763.945	40.23
764.124	41.08
764.304	41.43
764.484	41.48
764.664	42.19
764.843	43.33
765.023	45.17
765.203	44.38
765.382	46.38
765.562	48.82
765.741	50.22
765.921	52.32
766.101	53.4
766.28	52.97
766.46	54.18
766.639	52.03
766.819	52.9
766.998	52.19
767.178	52.26
767.357	52.38
767.537	53.39
767.716	52.99
767.896	54.09
768.075	51.93
768.254	50.5
768.434	49.38
768.613	51.26
768.792	51.49
768.972	50.11
769.151	52.22
769.33	51.72
769.51	50.05
769.689	51.02
769.868	48.17
770.047	50.26
770.226	50
770.406	49.02
770.585	49.56
770.764	47.89
770.943	50.92
771.122	52.35
771.301	54.58
771.48	52.63
771.66	53.37
771.839	56.89
772.018	57.25
772.197	59.72
772.376	58.45
772.555	59.64
772.734	60.94
772.913	59.06
773.092	56.47
773.271	56.07
773.449	60.05
773.628	59.67
773.807	57.33
773.986	54.35
774.165	53.3
774.344	58.03
774.523	56.77
774.701	58.35
774.88	61.05
775.059	60.65
775.238	58.37
775.417	56.81
775.595	55.91
775.774	57.08
775.953	59.2
776.131	59.39
776.31	54.54
776.489	53.82
776.667	49.87
776.846	49.15
777.025	53.12
777.203	53.13
777.382	53.91
777.56	53.14
777.739	53.49
777.917	54.8
778.096	56.85
778.274	58.77
778.453	60.5
778.631	63.38
778.81	60.58
778.988	57.95
779.166	58.73
779.345	56.74
779.523	59.5
779.702	60.2
779.88	59.45
780.058	58.67
780.237	59.1
780.415	57.09
780.593	54.61
780.771	58.19
780.95	59.9
781.128	58.74
781.306	59.32
781.484	58.25
781.662	58.74
781.841	59.85
782.019	60.91
782.197	60.81
782.375	58.41
782.553	60.22
782.731	60.07
782.909	60.58
783.087	64.29
783.265	67.02
783.443	69.05
783.621	67.46
783.799	65.66
783.977	64.95
784.155	63.97
784.333	69.14
784.511	69.73
784.689	72.05
784.867	71.47
785.045	73.8
785.223	70.42
785.4	71.06
785.578	69.94
785.756	68.96
785.934	70.81
786.112	75.2
786.289	73.85
786.467	72.73
786.645	70.32
786.823	72.92
787	69.56
787.178	69.45
787.356	65.83
787.533	63.94
787.711	64.93
787.889	62.64
788.066	58.23
788.244	60.34
788.421	62.52
788.599	64.57
788.776	61.79
788.954	59.91
789.131	60.04
789.309	59.93
789.486	63.01
789.664	61.75
789.841	62.26
790.019	65.36
790.196	60.97
790.373	59.25
790.551	55.61
790.728	58.13
790.906	60.56
791.083	59.61
791.26	60.64
791.437	58.15
791.615	63.12
791.792	61.85
791.969	62.06
792.146	63.6
792.324	64.32
792.501	66.66
792.678	64.78
792.855	64.31
793.032	67.41
793.209	63.89
793.387	67.17
793.564	62.27
793.741	62.41
793.918	64.05
794.095	62.27
794.272	65.45
794.449	63.69
794.626	63.2
794.803	62.62
794.98	56.92
795.157	60.83
795.334	56.41
795.511	59.97
795.688	60.53
795.864	61.11
796.041	63.14
796.218	63.76
796.395	63.16
796.572	65.14
796.749	65.34
796.925	66.99
797.102	64.6
797.279	66.04
797.456	66.78
797.632	67.28
797.809	66.08
797.986	68.41
798.162	64.95
798.339	67.48
798.516	64.28
798.692	63.23
798.869	66.7
799.046	68.63
799.222	69.08
799.399	67.79
799.575	71.21
799.752	66.41
799.928	65.57
800.105	64.59
800.281	63.99
800.458	66.3
800.634	62.61
800.811	64.4
800.987	70.29
801.163	70.36
801.34	67.55
801.516	66.24
801.692	68.55
801.869	68.2
802.045	67.21
802.221	63.99
802.398	62.84
802.574	67.49
802.75	62.11
802.926	57.48
803.103	61.38
803.279	63.82
803.455	58.74
803.631	62.2
803.807	63.29
803.983	64.06
804.16	71.84
804.336	74.11
804.512	73.94
804.688	78.41
804.864	77.65
805.04	77
805.216	79.48
805.392	87.9
805.568	86.37
805.744	82.57
805.92	84.96
806.096	81.77
806.272	80.25
806.448	80.62
806.623	81.6
806.799	87.57
806.975	85.63
807.151	83.92
807.327	85.24
807.503	84.55
807.678	87.43
807.854	91.32
808.03	89.15
808.206	88.84
808.381	90.92
808.557	82.44
808.733	81.05
808.908	80.94
809.084	80.02
809.26	73.81
809.435	75.23
809.611	76.39
809.787	72.53
809.962	76.98
810.138	80.8
810.313	83.99
810.489	86.88
810.664	83.57
810.84	78.63
811.015	71.91
811.191	74.88
811.366	73.93
811.542	76.64
811.717	74.15
811.892	67.14
812.068	68.97
812.243	69.15
812.419	69.8
812.594	64.06
812.769	67.82
812.944	78.57
813.12	77.97
813.295	81.03
813.47	73.18
813.645	72.52
813.821	82.21
813.996	82.88
814.171	81.38
814.346	82.65
814.521	88.5
814.697	91.37
814.872	87.49
815.047	86.11
815.222	78.87
815.397	79.87
815.572	87.22
815.747	83.95
815.922	73.7
816.097	69.49
816.272	73.63
816.447	68.01
816.622	62.54
816.797	63.65
816.972	64.16
817.147	64.59
817.322	66.55
817.496	62.47
817.671	56.47
817.846	58.6
818.021	58.64
818.196	57.06
818.371	61.71
818.545	64.94
818.72	59.54
818.895	60.84
819.069	58.84
819.244	59.28
819.419	60.01
819.594	61.37
819.768	59.62
819.943	58.55
820.117	55.43
820.292	54.43
820.467	52.86
820.641	53.77
820.816	50.65
820.99	50.13
821.165	46.54
821.339	44.2
821.514	43.36
821.688	42.07
821.863	41.1
822.037	40.44
822.212	39.35
822.386	38.68
822.56	38.14
822.735	38.22
822.909	37.66
823.084	37.5
823.258	37.15
823.432	37.55
823.606	38.36
823.781	38.69
823.955	39.65
824.129	39.62
824.303	39.76
824.478	38.03
824.652	37.46
824.826	38.78
825	41.57
825.174	42.42
825.348	42.54
825.523	43.05
825.697	42.08
825.871	41.54
826.045	41.65
826.219	43.72
826.393	44.37
826.567	44.13
826.741	44.54
826.915	43.17
827.089	43.76
827.263	44.17
827.437	43.55
827.611	45.65
827.784	47.62
827.958	49.92
828.132	48.97
828.306	51.69
828.48	54.35
828.654	54.99
828.827	55.94
829.001	57.58
829.175	58.85
829.349	60.26
829.522	60.62
829.696	59.48
829.87	59.12
830.044	64.17
830.217	66
830.391	69.17
830.565	66.78
830.738	66.83
830.912	65.06
831.085	60.59
831.259	62.77
831.432	66.69
831.606	69.82
831.779	68.24
831.953	62.14
832.126	63.09
832.3	58.37
832.473	57.13
832.647	58.22
832.82	57.68
832.994	58.67
833.167	55.81
833.34	53.76
833.514	48.98
833.687	47.16
833.86	47.09
834.034	45.68
834.207	45.07
834.38	48.36
834.553	48.78
834.727	49.38
834.9	52.36
835.073	54.6
835.246	53.27
835.419	58.24
835.593	63.73
835.766	64.84
835.939	66.69
836.112	71.04
836.285	69.58
836.458	73.1
836.631	76.55
836.804	74.04
836.977	74.28
837.15	77.89
837.323	85.21
837.496	89.18
837.669	92.87
837.842	92.66
838.015	91.8
838.188	91.51
838.361	91.1
838.533	90.24
838.706	96.52
838.879	99.8
839.052	106.73
839.225	98.11
839.398	92.32
839.57	84.86
839.743	84.88
839.916	86.06
840.088	79.46
840.261	79.35
840.434	82.02
840.607	76.74
840.779	74.71
840.952	69.48
841.124	63.66
841.297	74.38
841.47	79.66
841.642	78.2
841.815	83.41
841.987	102.26
842.16	97.13
842.332	94.31
842.505	91.1
842.677	79.75
842.85	92.43
843.022	107.88
843.194	97.63
843.367	95.45
843.539	93.49
843.712	86.9
843.884	84.26
844.056	94.42
844.229	96.91
844.401	117.18
844.573	122.45
844.745	112.84
844.918	107.1
845.09	100.63
845.262	123.04
845.434	134.56
845.606	139.56
845.779	146.2
845.951	146.23
846.123	136.76
846.295	126.46
846.467	139.52
846.639	139.17
846.811	153.76
846.983	155.16
847.155	149.04
847.327	132.81
847.499	138.49
847.671	156.51
847.843	146.99
848.015	198.33
848.187	203.9
848.359	195.64
848.531	213.22
848.703	204.22
848.875	261.84
849.047	243.47
849.218	303.67
849.39	259.29
849.562	212.17
849.734	205.82
849.905	156.12
850.077	172.43
850.249	209.4
850.421	227.93
850.592	197.63
850.764	130.91
850.936	128.52
851.107	146.71
851.279	190.57
851.451	162.37
851.622	144.46
851.794	146.49
851.965	120.47
852.137	109.1
852.308	104.26
852.48	104.83
852.651	111.06
852.823	110.05
852.994	109.36
853.166	110.27
853.337	116.98
853.509	146.82
853.68	181.11
853.851	186.69
854.023	248.3
854.194	229.11
854.365	262.93
854.537	252.92
854.708	365.63
854.879	601.03
855.05	510.14
855.222	445.45
855.393	257.61
855.564	287.63
855.735	257.27
855.906	194.64
856.078	236.61
856.249	276.2
856.42	270.88
856.591	252.15
856.762	233.03
856.933	280.07
857.104	311.11
857.275	324.08
857.446	204.85
857.617	215.86
857.788	212.7
857.959	183.17
858.13	144.24
858.301	167.53
858.472	189.71
858.643	194.24
858.814	229.08
858.985	225.83
859.155	232.95
859.326	314.67
859.497	304.19
859.668	267.32
859.839	422.59
860.009	309.84
860.18	222.51
860.351	167.02
860.522	180.58
860.692	150.7
860.863	148.6
861.034	149.64
861.204	123.96
861.375	121.25
861.546	138.11
861.716	119.89
861.887	128.13
862.057	161.2
862.228	151.61
862.398	154.63
862.569	147.21
862.739	131.07
862.91	126.37
863.08	142.36
863.251	147.5
863.421	144.69
863.592	156.9
863.762	152.59
863.932	132.49
864.103	159.57
864.273	135.85
864.443	148.43
864.614	137.41
864.784	159.83
864.954	178.13
865.125	178.5
865.295	179.24
865.465	174.73
865.635	202.83
865.805	182.33
865.976	172.23
866.146	185.95
866.316	213.19
866.486	341.38
866.656	223.87
866.826	239.14
866.996	224.67
867.166	213.31
867.336	205.5
867.506	164.8
867.676	170.86
867.846	165.21
868.016	158.73
868.186	155.57
868.356	136.04
868.526	146.01
868.696	145.94
868.866	151.3
869.036	135.8
869.206	138.62
869.376	158.65
869.545	153.3
869.715	164.62
869.885	175.32
870.055	167.42
870.224	186.69
870.394	301.76
870.564	234.95
870.734	254.91
870.903	250.51
871.073	270.22
871.243	218.25
871.412	238.29
871.582	209.17
871.751	211.49
871.921	190.22
872.091	165.49
872.26	151.87
872.43	115.32
872.599	117.87
872.769	131.49
872.938	140.25
873.108	188.51
873.277	203.06
873.446	239.58
873.616	222.54
873.785	287.76
873.955	392.21
874.124	269.18
874.293	762.56
874.463	885.03
874.632	1066.67
874.801	1066.39
874.971	321.68
875.14	313.14
875.309	199.35
875.478	183.63
875.647	148.38
875.817	123.5
875.986	142.38
876.155	113.74
876.324	105.08
876.493	110.89
876.662	106.82
876.831	128.13
877	123.21
877.17	141.2
877.339	162.46
877.508	132.45
877.677	147.38
877.846	162.81
878.015	154.31
878.184	137.96
878.352	116.13
878.521	112.78
878.69	113.4
878.859	101.44
879.028	123.97
879.197	119.48
879.366	141.38
879.534	134.41
879.703	128.28
879.872	131.26
880.041	128.92
880.21	126.58
880.378	125.49
880.547	116.29
880.716	111.86
880.884	90.89
881.053	82.3
881.222	74.95
881.39	69.95
881.559	61.88
881.727	57.63
881.896	56.83
882.065	54.09
882.233	52.95
882.402	52.08
882.57	49.59
882.739	53.13
882.907	52.61
883.076	56.27
883.244	57.58
883.412	58.15
883.581	58.19
883.749	59.4
883.918	61.95
884.086	64.81
884.254	66.34
884.423	69.13
884.591	71.49
884.759	75.63
884.927	73.79
885.096	73.83
885.264	79.87
885.432	86.68
885.6	89.1
885.769	94.18
885.937	98.82
886.105	104.46
886.273	104.88
886.441	98.52
886.609	105.59
886.777	114.73
886.945	124.24
887.113	126.85
887.281	123.79
887.449	120.81
887.617	121.07
887.785	129.06
887.953	126.34
888.121	128.17
888.289	150
888.457	164.96
888.625	182.6
888.793	160.35
888.961	164.32
889.129	131.59
889.296	142.84
889.464	152.79
889.632	128.98
889.8	132.49
889.967	136.99
890.135	133.77
