Data from JASIL_2989_Reflection_01.txt Node
Date: Mon Nov 09 09:38:30 EST 2015
User: Geneva
Spectrometer: USB4E03002
Autoset integration time: false
Trigger mode: 4
Integration Time (sec): 1.000000E-1
Scans to average: 10
Electric dark correction enabled: false
Nonlinearity correction enabled: false
Boxcar width: 5
Stray light correction enabled: false
XAxis mode: Wavelengths
Stop averaging: false
Number of Pixels in Spectrum: 3648
>>>>>Begin Spectral Data<<<<<
177.575	-219.91
177.794	-259.64
178.014	-1274.36
178.233	-2138.89
178.452	954.49
178.672	3586.36
178.891	998.93
179.11	552.23
179.33	641.53
179.549	655.59
179.768	503.54
179.987	601.56
180.207	715.25
180.426	1142.22
180.645	1325.5
180.864	-1734.26
181.084	9794.74
181.303	-1403.28
181.522	-889.62
181.741	-1703.06
181.96	-792.24
182.179	-783.91
182.398	-3038.71
182.618	829.3
182.837	999.53
183.056	1784.92
183.275	1760.83
183.494	1460.53
183.713	1086.12
183.932	1118.89
184.151	962.25
184.37	444.58
184.589	800.95
184.808	793.11
185.027	1850
185.246	3595
185.465	989.33
185.684	1075.49
185.903	914.77
186.122	601.89
186.341	960.11
186.56	727.46
186.779	-3695
186.998	952.53
187.216	-10126.67
187.435	1957.32
187.654	1002
187.873	-1520.99
188.092	-8337.5
188.311	-1693.42
188.53	-981.38
188.748	-1002.61
188.967	-876.92
189.186	-1070.39
189.405	-1939.53
189.623	-2375
189.842	-713.02
190.061	-493.81
190.28	-394.39
190.498	-543.62
190.717	-824.3
190.936	-646.64
191.154	-554.98
191.373	-502.86
191.592	-366.83
191.81	-318.81
192.029	-351.66
192.248	-549.51
192.466	-1171.78
192.685	1447.68
192.904	1657.26
193.122	1510.92
193.341	4120
193.559	4800
193.778	-1430.36
193.996	1592.59
194.215	1750
194.433	1107.52
194.652	-3271.79
194.87	-4588.89
195.089	-1085.83
195.307	-635.17
195.526	-297.12
195.744	-615.93
195.963	-1363.36
196.181	-2261.25
196.399	-490.42
196.618	-643.82
196.836	17391.67
197.055	3097.1
197.273	-4175.56
197.491	3813.04
197.71	1647.06
197.928	591.88
198.146	801.86
198.365	617.95
198.583	582.3
198.801	371.35
199.019	472.25
199.238	700
199.456	664.71
199.674	973.62
199.892	914.55
200.111	1047.48
200.329	1237.95
200.547	1638.71
200.765	-20754.55
200.983	3608.2
201.202	-12255.56
201.42	2131.63
201.638	-1138.15
201.856	-1086.21
202.074	7638.46
202.292	-1913.64
202.51	6131.03
202.728	-3636.17
202.946	1220.59
203.165	1291.6
203.383	774.42
203.601	541.75
203.819	5812
204.037	1114.39
204.255	809.95
204.473	1768.24
204.691	4094.59
204.909	-4279.41
205.127	-2365.08
205.345	-4809.09
205.562	-4860
205.78	-662.04
205.998	-719.5
206.216	-1657.28
206.434	-1839.8
206.652	-728.4
206.87	-661.72
207.088	-565.6
207.306	-954.07
207.523	-1082.68
207.741	-661.89
207.959	-2234.62
208.177	-1593.81
208.395	-604.85
208.612	-475.07
208.83	-585.51
209.048	-1853.49
209.266	-4787.1
209.483	4485.71
209.701	-7357.14
209.919	1348.85
210.136	-29033.33
210.354	-1474.19
210.572	-4750
210.79	1046.51
211.007	701.21
211.225	557.51
211.442	947.03
211.66	623.68
211.878	875.71
212.095	1227.78
212.313	2192.21
212.53	1320.31
212.748	2653.45
212.966	567.47
213.183	1406.5
213.401	1826.04
213.618	-2365.28
213.836	-1423.64
214.053	-476.79
214.271	-888.61
214.488	-762.9
214.705	-440.4
214.923	-912.64
215.14	2436.49
215.358	-1118.06
215.575	-4500
215.793	-1929.21
216.01	3736.17
216.227	834.42
216.445	539.72
216.662	535.87
216.879	593.87
217.097	486.22
217.314	527.09
217.531	512.19
217.749	503.93
217.966	615.15
218.183	396.54
218.4	400.82
218.618	528.84
218.835	780.25
219.052	706.79
219.269	438.95
219.487	392.64
219.704	504.68
219.921	619.38
220.138	495.7
220.355	393.71
220.572	444.12
220.79	417.26
221.007	343.43
221.224	315.36
221.441	289.35
221.658	471.35
221.875	732.5
222.092	425.42
222.309	526.24
222.526	693.96
222.743	5160.53
222.96	6029.03
223.177	-2832.81
223.394	-899.5
223.611	-1255.92
223.828	-739.85
224.045	-1540.98
224.262	1837.96
224.479	-5293.75
224.696	-3356.25
224.913	-37650
225.13	930.81
225.347	787.14
225.564	580.08
225.781	401.26
225.997	272.06
226.214	217.29
226.431	188.14
226.648	175.92
226.865	156.41
227.082	134.62
227.298	119.69
227.515	115.09
227.732	108.5
227.949	108.67
228.165	111.53
228.382	121.76
228.599	123.88
228.816	123.69
229.032	135.6
229.249	147.18
229.466	165.45
229.682	192.12
229.899	182.96
230.116	218.79
230.332	274.81
230.549	319.05
230.765	363.34
230.982	277.98
231.199	404.53
231.415	282.52
231.632	282.56
231.848	321.73
232.065	274.58
232.281	261.78
232.498	222.61
232.714	193.41
232.931	198.99
233.147	192.05
233.364	196.91
233.58	167.65
233.797	194.9
234.013	213.15
234.23	206.33
234.446	209.18
234.662	241.55
234.879	301.85
235.095	294.02
235.312	264.94
235.528	240.06
235.744	250.12
235.961	219.53
236.177	169.93
236.393	155.84
236.61	156.73
236.826	162.62
237.042	152.8
237.258	141.76
237.475	142.85
237.691	142.02
237.907	158.17
238.123	165.24
238.339	185.02
238.556	200.83
238.772	189.75
238.988	162.47
239.204	142.35
239.42	131.44
239.636	131.12
239.853	117.48
240.069	96.57
240.285	89.78
240.501	78.34
240.717	74.41
240.933	69.27
241.149	69.82
241.365	70.61
241.581	75.5
241.797	75.8
242.013	67.28
242.229	73.7
242.445	73.64
242.661	72.1
242.877	75.48
243.093	76.42
243.309	86.96
243.525	86.57
243.741	88.46
243.957	84.43
244.173	73.98
244.388	72.74
244.604	63.82
244.82	62.31
245.036	57.27
245.252	54.65
245.468	52.4
245.683	48.23
245.899	46.16
246.115	44.71
246.331	43.27
246.547	43.73
246.762	45.37
246.978	44.9
247.194	46.93
247.409	51.45
247.625	54.79
247.841	57.77
248.057	57.24
248.272	60.48
248.488	65.55
248.703	72.21
248.919	81.18
249.135	85.24
249.35	91.48
249.566	88.85
249.782	77.45
249.997	74.97
250.213	64.73
250.428	71.74
250.644	78.07
250.859	73.39
251.075	72.48
251.29	75.47
251.506	79.46
251.721	79.57
251.937	82.75
252.152	86.17
252.368	85.98
252.583	103.16
252.798	109.41
253.014	113.36
253.229	123.87
253.445	125.13
253.66	110.13
253.875	113.65
254.091	110.27
254.306	108.38
254.521	110.25
254.737	109.64
254.952	105.71
255.167	110.6
255.383	102.66
255.598	98.59
255.813	91.53
256.028	92.64
256.244	77.83
256.459	75.45
256.674	71.47
256.889	62.67
257.104	59.96
257.32	58.4
257.535	46.89
257.75	42.52
257.965	37.92
258.18	36.12
258.395	34.19
258.61	34.04
258.826	30.81
259.041	28.64
259.256	32
259.471	31.17
259.686	31.38
259.901	35.84
260.116	37.86
260.331	39.81
260.546	43.78
260.761	45.94
260.976	46.86
261.191	54.71
261.406	60.34
261.621	57.61
261.836	60.79
262.05	63.1
262.265	59.9
262.48	65.6
262.695	75.04
262.91	75.26
263.125	78.28
263.34	84.97
263.555	77.85
263.769	73.18
263.984	76.81
264.199	74.94
264.414	70.98
264.629	73.47
264.843	68.38
265.058	61.64
265.273	60.91
265.488	60.1
265.702	60.34
265.917	59.14
266.132	59.11
266.346	59.35
266.561	57.66
266.776	57.68
266.99	56.26
267.205	60.46
267.42	61.46
267.634	63.34
267.849	56.65
268.063	54.99
268.278	55.58
268.492	56.23
268.707	53.73
268.922	51.96
269.136	51.43
269.351	49.84
269.565	44.87
269.78	43.15
269.994	39.96
270.209	42.38
270.423	41.08
270.637	39.28
270.852	38.37
271.066	39.76
271.281	41.75
271.495	45.31
271.709	47.33
271.924	48.92
272.138	48.32
272.353	49.48
272.567	50.63
272.781	51.71
272.996	52.4
273.21	56.08
273.424	52.7
273.638	52.72
273.853	51.82
274.067	50.93
274.281	47.25
274.495	50.07
274.71	49.35
274.924	49.2
275.138	48.55
275.352	46.86
275.566	46.92
275.781	47.88
275.995	45.76
276.209	43.94
276.423	44.4
276.637	47.83
276.851	48.28
277.065	49.63
277.279	49.23
277.493	49.55
277.707	53.08
277.921	46.6
278.135	48.05
278.349	52.17
278.563	52.37
278.777	49.84
278.991	48.98
279.205	49.98
279.419	48.56
279.633	47.58
279.847	47.92
280.061	46.04
280.275	47.38
280.489	47.67
280.703	46.83
280.917	46.65
281.131	46.04
281.344	42.89
281.558	40.58
281.772	39.6
281.986	38.38
282.2	38.07
282.414	41.48
282.627	41.32
282.841	37.73
283.055	37.22
283.269	36.13
283.482	35.2
283.696	36.98
283.91	37
284.123	35.43
284.337	35.43
284.551	34.76
284.764	32.07
284.978	33.76
285.192	36.69
285.405	37.32
285.619	36.41
285.833	38.26
286.046	38.18
286.26	36.55
286.473	38.64
286.687	42
286.9	41.5
287.114	40.34
287.327	40.01
287.541	35.35
287.754	33.82
287.968	32.08
288.181	31.84
288.395	34.03
288.608	37.33
288.822	35.86
289.035	34.05
289.248	36.1
289.462	36.58
289.675	34.98
289.889	36.93
290.102	37.73
290.315	39.58
290.529	40.94
290.742	40.53
290.955	40.82
291.169	41.4
291.382	43.38
291.595	43.11
291.808	45.94
292.022	46.16
292.235	46.6
292.448	45.18
292.661	48.11
292.875	47.48
293.088	46.77
293.301	42.46
293.514	43.24
293.727	42.16
293.94	41.5
294.153	38.62
294.367	36.68
294.58	35.88
294.793	32.79
295.006	29.78
295.219	28.47
295.432	26.88
295.645	26.09
295.858	23.53
296.071	20.92
296.284	19.87
296.497	20.35
296.71	22.78
296.923	22.42
297.136	23.86
297.349	26.53
297.562	24.45
297.775	25.25
297.988	27.19
298.201	28.36
298.414	31.55
298.626	32.07
298.839	33.08
299.052	32.75
299.265	31.23
299.478	30.7
299.691	31.02
299.903	34.14
300.116	34.2
300.329	34.83
300.542	36.9
300.755	38.58
300.967	43.02
301.18	42
301.393	42.04
301.605	46.3
301.818	47.2
302.031	45.2
302.243	45.82
302.456	46.32
302.669	46.1
302.881	45.81
303.094	44.66
303.307	41.16
303.519	42.36
303.732	44.34
303.944	41.27
304.157	42.74
304.37	43.34
304.582	41.45
304.795	41.59
305.007	42.49
305.22	41.96
305.432	40.48
305.645	39.33
305.857	37.87
306.069	34.95
306.282	37.04
306.494	34.16
306.707	34.49
306.919	36.92
307.132	35.3
307.344	35.68
307.556	35.76
307.769	34.95
307.981	34.08
308.193	31.89
308.406	31.57
308.618	29.37
308.83	29.45
309.043	31.44
309.255	30.61
309.467	29.74
309.679	28.8
309.892	28.33
310.104	28.29
310.316	30.66
310.528	33.82
310.74	32.67
310.953	35.04
311.165	36.65
311.377	36.77
311.589	35.11
311.801	38.74
312.013	40.23
312.225	41.92
312.437	43.02
312.649	43.92
312.862	43.72
313.074	46.15
313.286	45.58
313.498	42.69
313.71	38.09
313.922	38.9
314.134	35.28
314.346	34.09
314.558	35.89
314.77	34.43
314.982	35.08
315.193	33.52
315.405	32.88
315.617	33.2
315.829	34.29
316.041	38.91
316.253	40.13
316.465	40.15
316.677	42.21
316.888	41.99
317.1	41.7
317.312	38.74
317.524	40.28
317.736	39.59
317.947	41.62
318.159	43.82
318.371	42.94
318.583	41.86
318.794	44.99
319.006	43.61
319.218	40.06
319.43	39.32
319.641	41.8
319.853	44.1
320.064	44.5
320.276	43.58
320.488	44.35
320.699	46.93
320.911	44.7
321.123	44.35
321.334	45.33
321.546	47.46
321.757	50.01
321.969	46.61
322.18	44.22
322.392	44.02
322.603	43.58
322.815	45.87
323.026	40.7
323.238	42.45
323.449	41.93
323.661	41.18
323.872	41.08
324.083	40.47
324.295	40.88
324.506	40.92
324.718	40.26
324.929	40.07
325.14	36.99
325.352	37.27
325.563	37.69
325.774	38.14
325.986	39.13
326.197	38.27
326.408	36.51
326.62	36.14
326.831	36.25
327.042	38.3
327.253	37.44
327.464	39.82
327.676	41.36
327.887	41.78
328.098	40.74
328.309	38.11
328.52	37.69
328.732	39.07
328.943	40.02
329.154	42.12
329.365	41.73
329.576	41.72
329.787	41.43
329.998	44.43
330.209	45.56
330.42	46.4
330.631	48.7
330.842	47.8
331.053	48.65
331.264	49.72
331.475	48.08
331.686	46.46
331.897	47.39
332.108	42.16
332.319	39.31
332.53	37.25
332.741	38.61
332.952	40.17
333.163	42.3
333.374	44.26
333.585	44.42
333.795	44.46
334.006	43.71
334.217	41.64
334.428	44.17
334.639	42.61
334.849	44.33
335.06	43.56
335.271	39.61
335.482	40.41
335.692	36.8
335.903	35.95
336.114	36.08
336.325	37.39
336.535	38.91
336.746	40.87
336.957	44.18
337.167	43.52
337.378	42.57
337.589	42.82
337.799	41.79
338.01	46.16
338.22	47.43
338.431	48.62
338.642	49.82
338.852	50.52
339.063	47.91
339.273	46.33
339.484	44.61
339.694	45.82
339.905	45.66
340.115	46.28
340.326	42.05
340.536	41.92
340.746	41.08
340.957	40.09
341.167	38.35
341.378	37.87
341.588	35.93
341.799	36.26
342.009	33.35
342.219	33.85
342.43	33.04
342.64	33.08
342.85	31.92
343.061	30.3
343.271	30.02
343.481	30.39
343.691	29.44
343.902	30.33
344.112	30.28
344.322	32.27
344.532	30.8
344.743	29.88
344.953	30.67
345.163	30.56
345.373	29.62
345.583	30.09
345.793	31.84
346.004	34.3
346.214	35.27
346.424	36.71
346.634	38.16
346.844	39.61
347.054	39.42
347.264	40.46
347.474	42.17
347.684	44.02
347.894	40.29
348.104	38.46
348.314	38.43
348.524	37.58
348.734	35.83
348.944	32.79
349.154	31.6
349.364	33.4
349.574	32.37
349.784	31.31
349.994	31.56
350.204	36.6
350.413	35.54
350.623	36.48
350.833	37.63
351.043	35.99
351.253	37.83
351.463	38.88
351.672	38.25
351.882	38.41
352.092	37.51
352.302	37.79
352.511	36.44
352.721	35.3
352.931	32.45
353.141	31.67
353.35	34.79
353.56	34.64
353.77	32.23
353.979	32.28
354.189	31.15
354.399	29.82
354.608	27.64
354.818	27.03
355.027	26.21
355.237	27.38
355.447	26.85
355.656	24.89
355.866	22.64
356.075	26.23
356.285	25.82
356.494	26.65
356.704	27.94
356.913	29.12
357.123	29.42
357.332	30.34
357.542	29.79
357.751	30.08
357.96	30.26
358.17	30.76
358.379	28.51
358.589	28.19
358.798	28.67
359.007	27.9
359.217	26.3
359.426	24.19
359.635	23.82
359.845	21.26
360.054	19.88
360.263	19.52
360.472	20.33
360.682	20.24
360.891	19.63
361.1	18.63
361.309	18.74
361.519	19.17
361.728	21.07
361.937	21.79
362.146	23.43
362.355	24.56
362.564	24.36
362.774	22.75
362.983	22.63
363.192	21.8
363.401	21.75
363.61	20.58
363.819	20.83
364.028	19.72
364.237	18.53
364.446	18.01
364.655	17.72
364.864	19.89
365.073	21.41
365.282	21.58
365.491	22.18
365.7	23.65
365.909	26.54
366.118	27.99
366.327	28.14
366.536	27.99
366.745	28.95
366.954	29.37
367.162	28.38
367.371	29.05
367.58	29.55
367.789	29.34
367.998	27.75
368.207	26.58
368.415	25.23
368.624	25.64
368.833	26.56
369.042	25.41
369.25	24.35
369.459	24.4
369.668	23.85
369.877	22.76
370.085	22.71
370.294	23.52
370.503	23.06
370.711	23.32
370.92	22.51
371.129	22.88
371.337	22.69
371.546	24.32
371.754	25.78
371.963	25.41
372.171	26.89
372.38	28.89
372.589	28.33
372.797	28.96
373.006	28.7
373.214	28.58
373.423	29.29
373.631	30.47
373.84	28.79
374.048	27.18
374.256	27.21
374.465	26.66
374.673	24.58
374.882	22.89
375.09	23.9
375.298	22.7
375.507	22.49
375.715	21.19
375.923	20.33
376.132	19.26
376.34	18.18
376.548	16.96
376.757	15.27
376.965	15.02
377.173	17.02
377.381	15.96
377.59	18.2
377.798	18.89
378.006	20.41
378.214	20.32
378.423	20.96
378.631	21.75
378.839	20.99
379.047	21.44
379.255	21.87
379.463	21.58
379.671	21.91
379.879	21.4
380.088	21.91
380.296	21.44
380.504	20.75
380.712	22.36
380.92	21.33
381.128	22.86
381.336	24.57
381.544	25.38
381.752	25.37
381.96	22.93
382.168	21.92
382.376	21.34
382.584	21.61
382.791	23.51
382.999	22.49
383.207	21.78
383.415	22.07
383.623	22.19
383.831	20.46
384.039	19.56
384.247	20.26
384.454	20.06
384.662	18.6
384.87	16.77
385.078	14.58
385.285	12.39
385.493	14.04
385.701	13.83
385.909	12.02
386.116	11.82
386.324	12.3
386.532	13.72
386.739	13.31
386.947	14.14
387.155	14.72
387.362	15.58
387.57	17.47
387.778	18.21
387.985	18.37
388.193	19.11
388.4	20.84
388.608	21.74
388.816	22.02
389.023	22.7
389.231	21.7
389.438	22.08
389.646	21.5
389.853	21.37
390.061	20.46
390.268	20.74
390.475	21.17
390.683	20.16
390.89	19.28
391.098	18.46
391.305	18.48
391.512	18.78
391.72	18.66
391.927	19.05
392.135	17.17
392.342	17.62
392.549	18.17
392.756	18.3
392.964	18.67
393.171	18.46
393.378	18.82
393.586	18.2
393.793	19.31
394	18.68
394.207	19.09
394.414	21.44
394.622	22.3
394.829	22.18
395.036	21.26
395.243	20.43
395.45	20.63
395.657	20.39
395.864	21.32
396.072	20.58
396.279	20.13
396.486	20.07
396.693	19.48
396.9	17.9
397.107	17.19
397.314	16.64
397.521	17.48
397.728	18.3
397.935	18.42
398.142	17.48
398.349	17.4
398.556	18.08
398.763	17.79
398.97	18.29
399.177	19.14
399.383	19.56
399.59	20.46
399.797	21.04
400.004	19.99
400.211	19.93
400.418	19.91
400.625	20.02
400.831	19.75
401.038	19.16
401.245	19.62
401.452	19.38
401.658	18.67
401.865	18.63
402.072	18.58
402.279	18.81
402.485	18.23
402.692	17.18
402.899	17.18
403.105	17.26
403.312	18.78
403.519	18.28
403.725	18.15
403.932	18.36
404.138	17.64
404.345	17.96
404.552	17.15
404.758	17.97
404.965	19.19
405.171	17.95
405.378	18.07
405.584	16.91
405.791	16.65
405.997	16.44
406.204	16.51
406.41	16.64
406.617	16.77
406.823	16.66
407.029	16.22
407.236	16.06
407.442	16.55
407.649	17.15
407.855	17.01
408.061	17.09
408.268	16.08
408.474	15.54
408.68	15.47
408.887	14.29
409.093	15.92
409.299	16.09
409.505	16.35
409.712	16.41
409.918	15.63
410.124	15.42
410.33	16.04
410.537	16.38
410.743	16.07
410.949	18.19
411.155	19.2
411.361	17.52
411.567	17.9
411.773	18.21
411.98	18.67
412.186	19.4
412.392	20.14
412.598	19.72
412.804	20.54
413.01	20.77
413.216	20
413.422	19.07
413.628	19.95
413.834	19.63
414.04	18.08
414.246	17.87
414.452	17.89
414.658	17.46
414.864	15.41
415.07	15.64
415.275	15.39
415.481	13.9
415.687	14.4
415.893	13.97
416.099	12.59
416.305	11.82
416.511	11.23
416.716	10.53
416.922	10.76
417.128	12.39
417.334	11.88
417.539	11.26
417.745	11.16
417.951	10.49
418.157	10.68
418.362	10.78
418.568	11.29
418.774	11.08
418.979	11.13
419.185	10.58
419.391	10.11
419.596	9.55
419.802	9.92
420.008	10.33
420.213	14.4
420.419	14.02
420.624	14.6
420.83	15.03
421.035	15.47
421.241	15.7
421.446	15.52
421.652	15.35
421.857	15.27
422.063	15.12
422.268	14.59
422.474	10.42
422.679	9.84
422.885	9.44
423.09	9.22
423.295	8.56
423.501	8.06
423.706	8.47
423.911	8.52
424.117	8.23
424.322	7.89
424.527	8.14
424.733	8.03
424.938	8.36
425.143	8.16
425.349	8.44
425.554	9.22
425.759	10.09
425.964	9.98
426.169	9.81
426.375	10.67
426.58	11.58
426.785	11.9
426.99	12.14
427.195	12.23
427.4	12.37
427.605	11.61
427.811	11.66
428.016	10.63
428.221	11.2
428.426	11.01
428.631	10.81
428.836	9.83
429.041	9.45
429.246	9.76
429.451	9.39
429.656	9.98
429.861	9.99
430.066	10.04
430.271	10.36
430.476	9.5
430.681	9.45
430.886	10.06
431.09	10.79
431.295	10.65
431.5	10.38
431.705	10.55
431.91	10.1
432.115	10.51
432.32	10.32
432.524	9.66
432.729	9.75
432.934	9.91
433.139	9.6
433.343	10.17
433.548	10.38
433.753	10.3
433.958	10.26
434.162	10.65
434.367	11.01
434.572	10.66
434.776	11.08
434.981	11.3
435.186	11.6
435.39	11.41
435.595	10.58
435.799	11.34
436.004	11.06
436.209	11.39
436.413	11.07
436.618	10.51
436.822	11.23
437.027	11.13
437.231	10.71
437.436	11.09
437.64	10.77
437.845	10.96
438.049	9.72
438.253	10.38
438.458	10.58
438.662	10.47
438.867	10.57
439.071	10.08
439.275	9.8
439.48	9.83
439.684	9.07
439.888	9.12
440.093	8.95
440.297	9.4
440.501	9.03
440.706	8.68
440.91	8.57
441.114	8.75
441.318	8.4
441.523	9.1
441.727	9.55
441.931	10.17
442.135	10.2
442.339	10.21
442.543	10.27
442.748	10.59
442.952	10.19
443.156	10.2
443.36	9.18
443.564	9.67
443.768	9.16
443.972	9.33
444.176	9.2
444.38	9.28
444.584	9.36
444.788	9.33
444.992	8.32
445.196	8.47
445.4	8.53
445.604	8.75
445.808	8.63
446.012	8.76
446.216	7.92
446.42	7.73
446.624	8.1
446.828	8.12
447.032	7.95
447.235	8.75
447.439	8.75
447.643	8.87
447.847	9.87
448.051	10.05
448.254	10.04
448.458	10.44
448.662	10.24
448.866	9.84
449.069	9.72
449.273	9.86
449.477	9.6
449.681	10.14
449.884	10.52
450.088	9.96
450.292	10.42
450.495	10.8
450.699	11.41
450.902	11.11
451.106	11.06
451.31	10.65
451.513	10.84
451.717	11.08
451.92	11.06
452.124	10.72
452.327	10.58
452.531	11.02
452.734	11.14
452.938	10.29
453.141	11.24
453.345	11.74
453.548	11.89
453.752	11.88
453.955	11.8
454.158	11.61
454.362	11.71
454.565	11.41
454.769	10.87
454.972	10.86
455.175	11.61
455.379	10.87
455.582	10.85
455.785	11.67
455.988	11.17
456.192	11.52
456.395	11.35
456.598	11.53
456.801	11.51
457.005	11.24
457.208	10.74
457.411	10.06
457.614	9.86
457.817	9.19
458.021	8.19
458.224	8.38
458.427	7.91
458.63	8.03
458.833	7.81
459.036	7.49
459.239	7.79
459.442	7.99
459.645	8.29
459.848	8.47
460.051	9
460.254	9.29
460.457	8.92
460.66	9.14
460.863	9.15
461.066	9.02
461.269	9.81
461.472	9.79
461.675	9.49
461.878	9.66
462.081	9.88
462.284	9.85
462.486	10.11
462.689	10.63
462.892	11.05
463.095	11
463.298	11.33
463.5	11.2
463.703	11.33
463.906	11.14
464.109	11.35
464.311	11.71
464.514	11.59
464.717	11.71
464.92	11.89
465.122	11.53
465.325	11.97
465.528	11.55
465.73	11.41
465.933	10.22
466.135	10.99
466.338	11.01
466.541	10.7
466.743	10.52
466.946	10.29
467.148	10.45
467.351	10.39
467.553	10.39
467.756	10.19
467.958	10.52
468.161	11.48
468.363	10.77
468.566	10.65
468.768	10.24
468.971	10.2
469.173	11.14
469.375	10.58
469.578	10.16
469.78	10.33
469.983	10.74
470.185	10.6
470.387	10.44
470.59	10.43
470.792	9.64
470.994	10.05
471.196	9.93
471.399	9.55
471.601	10.2
471.803	9.96
472.005	8.89
472.208	8.87
472.41	8.76
472.612	8.85
472.814	9.35
473.016	9.97
473.218	9.72
473.421	10.32
473.623	10.03
473.825	10.19
474.027	10.36
474.229	10.6
474.431	11.01
474.633	10.82
474.835	10.37
475.037	9.86
475.239	10.14
475.441	10.23
475.643	10.18
475.845	10.05
476.047	9.26
476.249	9.81
476.451	10.28
476.653	10.06
476.855	10.83
477.057	9.94
477.258	9.74
477.46	9.5
477.662	9.62
477.864	9.35
478.066	9.73
478.268	10.16
478.469	9.99
478.671	9.73
478.873	9.62
479.075	8.64
479.276	9.27
479.478	8.88
479.68	8.88
479.882	8.84
480.083	8.38
480.285	7.57
480.487	7.09
480.688	6.8
480.89	6.94
481.091	6.26
481.293	6.02
481.495	5.76
481.696	5.96
481.898	5.7
482.099	5.42
482.301	5.33
482.502	5.26
482.704	5.1
482.905	5.01
483.107	4.72
483.308	4.89
483.51	4.97
483.711	4.91
483.913	4.95
484.114	5.06
484.315	5.13
484.517	5.32
484.718	5.44
484.92	5.69
485.121	5.97
485.322	5.98
485.524	5.99
485.725	5.81
485.926	5.75
486.127	5.43
486.329	5.11
486.53	5.36
486.731	5.17
486.932	5.13
487.134	5.2
487.335	5.08
487.536	5.18
487.737	5.27
487.938	5.63
488.139	5.71
488.341	5.99
488.542	5.94
488.743	5.86
488.944	6.04
489.145	6.18
489.346	5.74
489.547	5.59
489.748	5.45
489.949	5.13
490.15	4.74
490.351	4.84
490.552	4.97
490.753	5.22
490.954	5.23
491.155	5.15
491.356	5.27
491.557	5.64
491.758	5.86
491.959	5.85
492.159	6.15
492.36	6.35
492.561	6.74
492.762	6.71
492.963	6.96
493.164	6.88
493.364	6.97
493.565	7.02
493.766	7.1
493.967	7.09
494.167	6.89
494.368	6.61
494.569	6.94
494.769	7.13
494.97	7.02
495.171	6.92
495.371	6.49
495.572	6.69
495.773	6.68
495.973	6.58
496.174	6.6
496.375	6.9
496.575	7.23
496.776	7.42
496.976	7.02
497.177	7.06
497.377	7.62
497.578	7.79
497.778	8.02
497.979	8.3
498.179	8.65
498.38	8.94
498.58	9.17
498.78	9.38
498.981	9.12
499.181	9.5
499.382	10.18
499.582	9.78
499.782	9.86
499.983	9.87
500.183	9.77
500.383	10.24
500.584	9.94
500.784	10.19
500.984	9.85
501.184	10.22
501.385	9.66
501.585	9.24
501.785	9.61
501.985	9.83
502.185	9.24
502.386	9.12
502.586	8.68
502.786	8.66
502.986	8.74
503.186	9.12
503.386	8.9
503.586	9.4
503.786	9.58
503.987	9.12
504.187	9.27
504.387	9.55
504.587	9.59
504.787	9.86
504.987	10.05
505.187	10.43
505.387	10.38
505.587	10.4
505.786	10.52
505.986	10.38
506.186	10.83
506.386	10.92
506.586	11.15
506.786	10.82
506.986	10.23
507.186	10.48
507.386	10.01
507.585	9.96
507.785	9.9
507.985	9.55
508.185	9.43
508.384	8.77
508.584	8.58
508.784	8.11
508.984	8.41
509.183	8.7
509.383	8.43
509.583	8.4
509.782	8.37
509.982	8.51
510.182	8.45
510.381	8.65
510.581	8.74
510.781	8.47
510.98	8.63
511.18	8.57
511.379	8.57
511.579	8.17
511.778	8.11
511.978	8.08
512.177	8.01
512.377	8.59
512.576	8.95
512.776	9.34
512.975	9.32
513.175	9.79
513.374	9.89
513.573	10.44
513.773	11.09
513.972	11.38
514.172	11.44
514.371	11.96
514.57	11.55
514.77	11.09
514.969	10.95
515.168	11.24
515.367	10.63
515.567	10.12
515.766	8.94
515.965	8.56
516.164	8.57
516.364	8.43
516.563	7.99
516.762	7.63
516.961	7.42
517.16	7.44
517.359	7.31
517.559	7.68
517.758	8.02
517.957	8.31
518.156	8.83
518.355	8.48
518.554	8.63
518.753	8.74
518.952	9.4
519.151	9.86
519.35	9.81
519.549	9.81
519.748	9.85
519.947	9.8
520.146	9.91
520.345	9.74
520.544	10.01
520.743	10.26
520.942	10.29
521.141	10.16
521.339	9.91
521.538	9.64
521.737	9.83
521.936	9.86
522.135	9.88
522.333	10.38
522.532	10.13
522.731	10.5
522.93	10.3
523.129	10.43
523.327	10.17
523.526	10.23
523.725	10.38
523.923	10.24
524.122	9.88
524.321	9.75
524.519	9.34
524.718	9.52
524.917	9.4
525.115	9.43
525.314	9.24
525.512	9.14
525.711	9.2
525.909	9.1
526.108	9.18
526.306	9.14
526.505	9.05
526.703	9.07
526.902	8.76
527.1	8.58
527.299	8.45
527.497	8.34
527.696	8.42
527.894	8.3
528.092	8.49
528.291	8.3
528.489	8.36
528.688	8.37
528.886	8.34
529.084	8.66
529.283	8.9
529.481	9.05
529.679	9.23
529.877	9.02
530.076	9.2
530.274	9.3
530.472	9.32
530.67	9.6
530.869	9.89
531.067	9.92
531.265	9.67
531.463	9.66
531.661	9.54
531.859	9.57
532.057	9.68
532.255	9.56
532.454	9.47
532.652	9.8
532.85	9.75
533.048	9.74
533.246	9.83
533.444	9.81
533.642	9.78
533.84	9.78
534.038	9.89
534.236	9.83
534.434	9.87
534.632	10.06
534.83	10.35
535.027	10.42
535.225	10.42
535.423	10.43
535.621	10.81
535.819	10.79
536.017	11.23
536.215	11.46
536.412	11.66
536.61	12.16
536.808	11.87
537.006	11.68
537.203	11.71
537.401	11.93
537.599	11.99
537.797	11.6
537.994	11.94
538.192	12.06
538.39	11.82
538.587	11.77
538.785	11.61
538.983	11.77
539.18	11.38
539.378	11.21
539.575	11.2
539.773	11.01
539.97	11.08
540.168	10.67
540.366	10.43
540.563	10.52
540.761	10.67
540.958	10.6
541.155	10.68
541.353	11.05
541.55	11.14
541.748	11.12
541.945	11.35
542.143	11.71
542.34	12.07
542.537	11.88
542.735	11.93
542.932	12.1
543.129	12.09
543.327	12.18
543.524	12.15
543.721	12.16
543.919	12.19
544.116	12.2
544.313	11.84
544.51	11.67
544.708	11.82
544.905	11.49
545.102	11.77
545.299	11.86
545.496	11.92
545.693	12.47
545.891	12.45
546.088	12.65
546.285	12.38
546.482	12.28
546.679	12.74
546.876	13.59
547.073	14.23
547.27	14.18
547.467	14.16
547.664	13.9
547.861	13.28
548.058	13.57
548.255	13.88
548.452	14.64
548.649	15.42
548.846	14.81
549.043	14.47
549.24	14.34
549.437	14.24
549.633	14.2
549.83	15.04
550.027	15.67
550.224	15.67
550.421	15.53
550.618	15.77
550.814	15.84
551.011	16.08
551.208	15.5
551.405	15.93
551.601	16.1
551.798	16.89
551.995	16.35
552.191	16.61
552.388	16.94
552.585	16.74
552.781	16.62
552.978	16.79
553.175	17.06
553.371	18.19
553.568	18.37
553.764	18.35
553.961	18.29
554.157	18.59
554.354	17.87
554.55	17.55
554.747	16.88
554.943	17.02
555.14	16.75
555.336	16.93
555.533	17.14
555.729	16.96
555.926	16.6
556.122	16.38
556.318	16.36
556.515	17.36
556.711	17.9
556.907	19.52
557.104	19.62
557.3	19.56
557.496	20.48
557.693	20.44
557.889	19.91
558.085	19.99
558.281	20.2
558.478	20.28
558.674	19.62
558.87	20.34
559.066	19.67
559.262	20.05
559.459	19.87
559.655	19.55
559.851	19.2
560.047	19.66
560.243	20.48
560.439	20.96
560.635	20.34
560.831	20.34
561.027	19.7
561.223	19.98
561.419	19.31
561.615	19.47
561.811	18.64
562.007	18.77
562.203	19.14
562.399	18.92
562.595	17.91
562.791	19.22
562.987	19.78
563.183	19.57
563.379	19.49
563.575	19.99
563.771	20.37
563.966	20.64
564.162	20.15
564.358	19.88
564.554	19.8
564.75	19.88
564.945	19.55
565.141	19.36
565.337	19.68
565.533	19.86
565.728	19.78
565.924	19.71
566.12	20.18
566.315	20.29
566.511	19.69
566.707	19.58
566.902	20.09
567.098	20.09
567.293	19.85
567.489	20.01
567.684	20.25
567.88	19.93
568.076	20.24
568.271	20.41
568.467	21.08
568.662	21.79
568.858	21.63
569.053	21.72
569.248	21.36
569.444	21.21
569.639	20.94
569.835	20.9
570.03	21.33
570.225	21.66
570.421	21.6
570.616	21.07
570.812	21.25
571.007	21.24
571.202	21.05
571.397	21.04
571.593	21.23
571.788	21.3
571.983	20.83
572.178	20.56
572.374	20.04
572.569	19.57
572.764	20.13
572.959	20.01
573.154	19.82
573.35	19.45
573.545	19.72
573.74	19.8
573.935	19.95
574.13	20.32
574.325	20.26
574.52	20.77
574.715	20.84
574.91	20.37
575.105	20.96
575.3	21.7
575.495	22.48
575.69	23.37
575.885	24.06
576.08	24.21
576.275	23.98
576.47	24.31
576.665	24.26
576.86	24.81
577.055	25.23
577.25	25.21
577.444	25.07
577.639	25.44
577.834	24.87
578.029	24.05
578.224	24.15
578.418	24.86
578.613	25.39
578.808	25.11
579.003	25.33
579.197	25.2
579.392	25.33
579.587	26.18
579.781	25.97
579.976	26.36
580.171	26.82
580.365	27.07
580.56	25.99
580.755	25.7
580.949	25.66
581.144	25.46
581.338	25.71
581.533	25.22
581.727	23.97
581.922	23.29
582.116	23.56
582.311	23.36
582.505	23.47
582.7	24.66
582.894	24.99
583.089	24.62
583.283	24.45
583.478	23.73
583.672	23.14
583.866	23.38
584.061	23.81
584.255	23.05
584.449	23.77
584.644	23.32
584.838	21.77
585.032	22.4
585.226	22.96
585.421	23.11
585.615	23.2
585.809	23.46
586.003	24.18
586.198	24.41
586.392	25.05
586.586	24.23
586.78	24.78
586.974	25.62
587.168	24.72
587.363	24.38
587.557	24.66
587.751	24.69
587.945	25.47
588.139	24.93
588.333	25.7
588.527	25.56
588.721	25.03
588.915	24.85
589.109	25.1
589.303	24.89
589.497	24.85
589.691	25.01
589.885	26.03
590.079	25.86
590.273	26.19
590.466	24.65
590.66	24.27
590.854	24.3
591.048	24.46
591.242	24.72
591.436	25.04
591.629	25.43
591.823	25.94
592.017	25.49
592.211	24.37
592.404	25.04
592.598	25.77
592.792	25.47
592.986	26.62
593.179	26.3
593.373	26.03
593.567	25.91
593.76	25.87
593.954	25.8
594.147	26.18
594.341	26.26
594.535	26.3
594.728	26.48
594.922	27.35
595.115	26.9
595.309	26.65
595.502	26.24
595.696	26.57
595.889	26.5
596.083	25.76
596.276	24.65
596.47	25.19
596.663	24.93
596.856	24.36
597.05	23.51
597.243	23.72
597.437	24.33
597.63	24.64
597.823	24.46
598.017	24.33
598.21	24.86
598.403	25.23
598.596	25.82
598.79	25.91
598.983	26.11
599.176	26.5
599.369	26.38
599.563	25.96
599.756	26.02
599.949	26.37
600.142	27.06
600.335	27.41
600.528	28.16
600.722	28.22
600.915	28.26
601.108	28.85
601.301	28.8
601.494	28.28
601.687	28.4
601.88	28.67
602.073	27.86
602.266	26.94
602.459	25.59
602.652	25.45
602.845	25.05
603.038	24.18
603.231	23.96
603.424	23.79
603.617	24.18
603.809	23.91
604.002	24.43
604.195	24.79
604.388	25.48
604.581	26.37
604.774	26.38
604.966	27.05
605.159	28.12
605.352	28.15
605.545	29.13
605.737	29.31
605.93	29.7
606.123	29.45
606.316	29.7
606.508	29.51
606.701	29.57
606.894	30.04
607.086	29.38
607.279	28.61
607.471	28.57
607.664	28.09
607.857	27.67
608.049	28.09
608.242	28.1
608.434	27.58
608.627	27.55
608.819	27.06
609.012	26.46
609.204	26.56
609.397	27.14
609.589	27.1
609.782	26.85
609.974	27.72
610.166	26.56
610.359	26.18
610.551	27.72
610.743	27.41
610.936	27.8
611.128	28.25
611.32	28.37
611.513	28.31
611.705	28.9
611.897	29.1
612.09	28.51
612.282	29.8
612.474	31.04
612.666	29.73
612.858	29.83
613.051	30.06
613.243	31.16
613.435	31.54
613.627	30.83
613.819	31.01
614.011	32.73
614.203	32.57
614.395	32.82
614.588	31.92
614.78	31.96
614.972	32.66
615.164	32.93
615.356	32.36
615.548	30.93
615.74	31.29
615.932	31.02
616.124	29.26
616.315	29.79
616.507	28.93
616.699	28.04
616.891	28.11
617.083	27.67
617.275	27.71
617.467	28.36
617.659	29.58
617.85	30.5
618.042	30.1
618.234	30.64
618.426	30.3
618.618	30.83
618.809	31.15
619.001	30.46
619.193	30.87
619.384	31.16
619.576	30.28
619.768	29.99
619.959	29.5
620.151	30.17
620.343	30.02
620.534	30.39
620.726	30.86
620.917	31.82
621.109	32.67
621.301	32.83
621.492	32.05
621.684	30.94
621.875	30.57
622.067	30.63
622.258	30.5
622.45	30.53
622.641	30.57
622.832	31.17
623.024	30.58
623.215	31.01
623.407	29.88
623.598	30.11
623.789	31.61
623.981	31.87
624.172	30.77
624.363	29.25
624.555	29.69
624.746	29.17
624.937	27.24
625.129	28
625.32	27.09
625.511	27.39
625.702	27.06
625.893	26.58
626.085	26.18
626.276	26.53
626.467	27.23
626.658	26.84
626.849	27.1
627.04	27.63
627.231	26.35
627.422	26.89
627.614	26.81
627.805	26.62
627.996	26.5
628.187	26.86
628.378	26.89
628.569	27.75
628.76	28.38
628.951	27.82
629.142	28.02
629.332	28.7
629.523	28.2
629.714	28.74
629.905	29.53
630.096	29.24
630.287	29.96
630.478	30.69
630.669	29.8
630.859	28.28
631.05	28.56
631.241	28.57
631.432	28.71
631.623	29.46
631.813	29.59
632.004	28.92
632.195	28.94
632.385	28.43
632.576	28.35
632.767	28.31
632.957	29.49
633.148	30.63
633.339	30.72
633.529	31.1
633.72	30.66
633.91	30.06
634.101	30.37
634.292	30.98
634.482	30.81
634.673	30.74
634.863	31.08
635.054	30.96
635.244	30.37
635.435	30.3
635.625	30.19
635.815	29.75
636.006	30.87
636.196	31.05
636.387	30.49
636.577	31.25
636.767	31.67
636.958	32.89
637.148	31.94
637.338	31.71
637.529	32.05
637.719	31.61
637.909	32.75
638.099	32.56
638.29	31.74
638.48	31.15
638.67	30.39
638.86	30.96
639.05	30
639.241	31.65
639.431	31.73
639.621	31.04
639.811	31.43
640.001	32.62
640.191	32.42
640.381	33.3
640.571	35
640.761	35.22
640.951	33.1
641.141	33.1
641.331	32.27
641.521	32.77
641.711	34.29
641.901	35.01
642.091	34.21
642.281	34.15
642.471	33.81
642.661	33.34
642.851	33.12
643.041	35.19
643.231	35.48
643.42	35.31
643.61	35.9
643.8	35.23
643.99	32.97
644.18	33.25
644.369	32.77
644.559	33.5
644.749	33.02
644.939	34
645.128	33.42
645.318	32.7
645.508	32.89
645.697	31.32
645.887	31.42
646.076	33.4
646.266	31.65
646.456	32.19
646.645	32.77
646.835	32.86
647.024	32.28
647.214	32.91
647.403	33.4
647.593	33.48
647.782	34.41
647.972	33.26
648.161	33.25
648.351	34.33
648.54	34.15
648.73	33.23
648.919	34.23
649.108	34.43
649.298	33.67
649.487	33.41
649.677	34.07
649.866	34.72
650.055	34.26
650.244	33.7
650.434	33.18
650.623	32.78
650.812	32.4
651.002	32.07
651.191	32.18
651.38	31.25
651.569	32.31
651.758	31.11
651.947	30.14
652.137	31.31
652.326	31.64
652.515	31.91
652.704	31.25
652.893	31.71
653.082	31.62
653.271	31.47
653.46	31.91
653.649	31.65
653.838	31.47
654.027	30.61
654.216	30.72
654.405	30.46
654.594	30.53
654.783	32.48
654.972	32.55
655.161	33.18
655.35	33.26
655.539	33.48
655.728	32.82
655.916	33.57
656.105	34.51
656.294	34.1
656.483	34.39
656.672	33.62
656.86	32.71
657.049	32.4
657.238	31.62
657.427	31.58
657.615	31.07
657.804	30.46
657.993	28.95
658.181	29.31
658.37	29.89
658.559	28.76
658.747	29.45
658.936	30.01
659.125	31.27
659.313	31.18
659.502	30.89
659.69	31.71
659.879	31.93
660.067	33.51
660.256	33.46
660.444	33.08
660.633	33.96
660.821	34.12
661.01	33.58
661.198	32.98
661.387	32.74
661.575	34.16
661.763	35.47
661.952	37.07
662.14	38.53
662.328	38.12
662.517	37.65
662.705	38.62
662.893	38.53
663.082	39.65
663.27	37.83
663.458	37.96
663.646	36.55
663.834	35.14
664.023	34.97
664.211	35.19
664.399	37.21
664.587	38.49
664.775	37.98
664.963	37.83
665.152	37.86
665.34	39.16
665.528	40.05
665.716	40.89
665.904	40.87
666.092	39.76
666.28	39.64
666.468	38.81
666.656	38.1
666.844	38.08
667.032	37.26
667.22	35.9
667.408	36.06
667.596	36.71
667.784	36.13
667.971	35.92
668.159	35.92
668.347	35.09
668.535	34.5
668.723	35.28
668.911	35.49
669.098	36.56
669.286	38.36
669.474	38.18
669.662	36.33
669.849	36.89
670.037	38.05
670.225	39.39
670.413	39.4
670.6	40.02
670.788	39.39
670.976	38.42
671.163	39.44
671.351	37.5
671.538	38.29
671.726	38.84
671.913	38.74
672.101	37.53
672.289	35.67
672.476	35.31
672.664	34.75
672.851	34.14
673.039	35
673.226	35.32
673.413	36.47
673.601	36.49
673.788	37.46
673.976	37.08
674.163	39.15
674.35	41.04
674.538	42.26
674.725	41.93
674.912	43.15
675.1	43.78
675.287	43.25
675.474	42.8
675.662	42.17
675.849	41.58
676.036	40.66
676.223	40.32
676.411	40.73
676.598	39.07
676.785	39.28
676.972	38.03
677.159	37.2
677.346	35.78
677.533	37.64
677.721	37.12
677.908	36.8
678.095	39.01
678.282	37.2
678.469	36.39
678.656	36.27
678.843	36.62
679.03	37.09
679.217	37.36
679.404	37.05
679.591	36.14
679.778	36.34
679.964	35.94
680.151	34.95
680.338	36.11
680.525	35.91
680.712	36.48
680.899	37.42
681.086	37.18
681.272	37.17
681.459	38.71
681.646	37.98
681.833	38.69
682.02	39.26
682.206	40.18
682.393	40.41
682.58	41.41
682.766	41.94
682.953	40.54
683.14	41.42
683.326	42.9
683.513	42.75
683.7	46.1
683.886	46.16
684.073	46.23
684.259	46
684.446	45.66
684.632	44.52
684.819	45.04
685.005	44.93
685.192	45.17
685.378	43.18
685.565	42.28
685.751	39.83
685.938	39.07
686.124	39.98
686.31	37.89
686.497	36.26
686.683	37.01
686.87	35.75
687.056	35.5
687.242	35.58
687.429	36.14
687.615	36.15
687.801	36.42
687.987	36.61
688.174	36.4
688.36	37.75
688.546	39.6
688.732	38.96
688.918	38.76
689.105	39.11
689.291	39.16
689.477	39.33
689.663	39.9
689.849	39.06
690.035	40.48
690.221	40.59
690.407	40.84
690.593	41.08
690.779	41.23
690.965	43.39
691.151	43.42
691.337	42.68
691.523	42.86
691.709	42.5
691.895	44.72
692.081	44.28
692.267	45.29
692.453	45.84
692.639	46.35
692.825	47.48
693.011	45.23
693.196	46.97
693.382	47.2
693.568	47.12
693.754	47.84
693.94	45.74
694.125	43.89
694.311	43.28
694.497	43.64
694.682	43.75
694.868	43.58
695.054	43.28
695.239	40.77
695.425	39.68
695.611	38.52
695.796	38.47
695.982	38.08
696.168	38.51
696.353	38.6
696.539	35.84
696.724	34.24
696.91	32.84
697.095	32.55
697.281	32.92
697.466	33.17
697.652	34.1
697.837	33.71
698.023	32.33
698.208	31.91
698.393	30.9
698.579	31.99
698.764	32.4
698.949	34.04
699.135	34.85
699.32	35.81
699.505	36.1
699.691	35.62
699.876	35.95
700.061	39.01
700.246	39.1
700.432	40.21
700.617	38.93
700.802	40.01
700.987	40.02
701.172	37.79
701.358	36.91
701.543	36.79
701.728	36.2
701.913	34.18
702.098	33.74
702.283	35.49
702.468	35.78
702.653	38.81
702.838	38.65
703.023	37.29
703.208	40.57
703.393	41.52
703.578	41.34
703.763	43.27
703.948	45.96
704.133	47.64
704.318	46.79
704.503	48.04
704.688	48.74
704.873	48.82
705.057	50.71
705.242	52.19
705.427	53.46
705.612	52.42
705.797	53.3
705.981	52.78
706.166	51.32
706.351	49.98
706.536	48.11
706.72	47.15
706.905	47.34
707.09	44.34
707.274	43.08
707.459	40.87
707.644	45.27
707.828	43.63
708.013	44.07
708.197	43.11
708.382	45.32
708.567	45.4
708.751	45.38
708.936	44.01
709.12	44.16
709.305	42.77
709.489	43.88
709.673	40.36
709.858	41.47
710.042	41.95
710.227	41.09
710.411	39.98
710.596	41.24
710.78	40.67
710.964	41.15
711.149	43.27
711.333	43.57
711.517	44.22
711.702	47.83
711.886	44.67
712.07	44.1
712.254	43.25
712.438	43.11
712.623	43.24
712.807	44.41
712.991	45.05
713.175	42.66
713.359	43.44
713.544	42.51
713.728	40.46
713.912	42.67
714.096	42.91
714.28	46.05
714.464	46.67
714.648	45.77
714.832	44.98
715.016	44.93
715.2	45.5
715.384	45.47
715.568	44.67
715.752	44.33
715.936	44.47
716.12	44.4
716.304	44.07
716.488	42.75
716.671	42.93
716.855	43.48
717.039	42.38
717.223	43.56
717.407	44.87
717.59	47.27
717.774	48.41
717.958	48.95
718.142	50.28
718.325	50.2
718.509	54.38
718.693	52.76
718.877	52.7
719.06	55.62
719.244	56.79
719.428	56.06
719.611	56.1
719.795	58.39
719.978	58.44
720.162	55.98
720.345	54.1
720.529	53.6
720.713	56.75
720.896	56
721.08	54.12
721.263	54.22
721.446	55.24
721.63	54.04
721.813	53.27
721.997	52.95
722.18	56.56
722.364	59.65
722.547	58.75
722.73	58.91
722.914	60.99
723.097	61.18
723.28	60.44
723.464	59.19
723.647	60.32
723.83	59.04
724.013	59.78
724.197	58.19
724.38	56.65
724.563	54.73
724.746	52.73
724.929	52.67
725.112	54.21
725.296	53.79
725.479	52.8
725.662	50.47
725.845	49.04
726.028	48.24
726.211	46.62
726.394	47.49
726.577	47.86
726.76	47.99
726.943	45.74
727.126	43.61
727.309	44.41
727.492	45.41
727.675	47.58
727.858	48.28
728.041	48.56
728.224	49.4
728.407	49.98
728.589	51.33
728.772	52.33
728.955	53.33
729.138	52.31
729.321	48.41
729.503	47.73
729.686	47.84
729.869	46.86
730.052	47.96
730.234	49.98
730.417	50.18
730.6	49.1
730.782	46.45
730.965	49.44
731.148	47.85
731.33	51.5
731.513	50.45
731.695	50.38
731.878	50.29
732.061	50.46
732.243	50.82
732.426	50.38
732.608	52.06
732.791	52.97
732.973	50.89
733.156	53.88
733.338	53.14
733.52	55.42
733.703	55.04
733.885	57.09
734.068	54.96
734.25	52.89
734.432	51.53
734.615	51.75
734.797	54.09
734.979	52.76
735.162	55.79
735.344	56.3
735.526	57.06
735.708	55.73
735.891	55.2
736.073	55.99
736.255	57.7
736.437	57.58
736.619	57.72
736.802	55.59
736.984	57.91
737.166	56.08
737.348	55.69
737.53	55.19
737.712	58.08
737.894	57.79
738.076	58.71
738.258	56.04
738.44	58.26
738.622	57.56
738.804	59.79
738.986	57.88
739.168	57.99
739.35	60.47
739.532	60.74
739.714	61.34
739.896	61.68
740.078	62.68
740.259	66.72
740.441	65.18
740.623	62.27
740.805	59.7
740.987	62.74
741.168	65.07
741.35	63.16
741.532	62.5
741.714	62.91
741.895	64.77
742.077	64.37
742.259	60.45
742.44	60.8
742.622	63.45
742.804	65.09
742.985	66.69
743.167	66.3
743.348	64.43
743.53	67.73
743.711	65.24
743.893	67.05
744.075	65.91
744.256	68.7
744.438	72.41
744.619	73.45
744.8	73.84
744.982	71.74
745.163	70.05
745.345	73.05
745.526	71.7
745.707	71.23
745.889	69.4
746.07	67.68
746.252	67.54
746.433	65.01
746.614	64.28
746.795	64.61
746.977	62.39
747.158	61.74
747.339	61.97
747.52	60.65
747.702	62.95
747.883	63.18
748.064	67.63
748.245	68.2
748.426	68.61
748.607	67.98
748.788	67.5
748.97	70.85
749.151	74.57
749.332	73.33
749.513	71.24
749.694	70.68
749.875	69.86
750.056	68.75
750.237	70.09
750.418	69.5
750.599	69.38
750.78	66.92
750.96	65.98
751.141	64.63
751.322	65.07
751.503	66.87
751.684	65.45
751.865	65.6
752.046	64.91
752.226	62.06
752.407	65.52
752.588	66.1
752.769	70.86
752.949	73.19
753.13	69.66
753.311	73.82
753.492	73.47
753.672	74.41
753.853	74.15
754.034	77.43
754.214	77.04
754.395	76.77
754.575	77.35
754.756	74.57
754.937	72
755.117	72.88
755.298	72.42
755.478	73.66
755.659	73.85
755.839	77.41
756.02	77.16
756.2	80.24
756.381	76.54
756.561	79.78
756.741	82.03
756.922	81.83
757.102	83.34
757.283	82.1
757.463	83.38
757.643	81.91
757.823	79.2
758.004	77.97
758.184	78.7
758.364	77.86
758.545	75.94
758.725	75.46
758.905	72.37
759.085	71.72
759.265	70.4
759.446	70.68
759.626	72.59
759.806	72.11
759.986	65.49
760.166	67.08
760.346	68.94
760.526	68.06
760.706	63.4
760.886	63.54
761.066	62.43
761.246	60.79
761.426	59.19
761.606	54.75
761.786	51.7
761.966	51.43
762.146	44.96
762.326	43.64
762.506	41.53
762.686	42.62
762.866	43.22
763.046	43.4
763.225	44.88
763.405	44.04
763.585	47.59
763.765	50.09
763.945	53.37
764.124	62.24
764.304	64.69
764.484	72.04
764.664	73.31
764.843	76.9
765.023	79.94
765.203	76.76
765.382	76.29
765.562	77.76
765.741	78.83
765.921	78.87
766.101	73.03
766.28	73.51
766.46	68.07
766.639	71.22
766.819	70.27
766.998	72.39
767.178	76.38
767.357	79.59
767.537	74.55
767.716	76.85
767.896	80.53
768.075	83.49
768.254	82.25
768.434	87.86
768.613	94.07
768.792	90.85
768.972	88.2
769.151	87.24
769.33	83.54
769.51	91.43
769.689	87.61
769.868	85.57
770.047	87.74
770.226	81.02
770.406	80.29
770.585	73.54
770.764	78.51
770.943	78.15
771.122	78.32
771.301	82.76
771.48	83.17
771.66	84.55
771.839	82.8
772.018	77.57
772.197	90.93
772.376	92.21
772.555	99.3
772.734	95.43
772.913	95.66
773.092	98.41
773.271	91.33
773.449	86.9
773.628	90.85
773.807	85.4
773.986	89.28
774.165	86.25
774.344	84.9
774.523	86.6
774.701	87.49
774.88	91.65
775.059	90.93
775.238	101.41
775.417	104.9
775.595	99.53
775.774	108.66
775.953	105.25
776.131	108.5
776.31	109.16
776.489	103.01
776.667	103.08
776.846	98.1
777.025	99.32
777.203	98.17
777.382	96.75
777.56	99.28
777.739	98.75
777.917	103.92
778.096	99.5
778.274	101.77
778.453	102.61
778.631	106.13
778.81	103.16
778.988	99.88
779.166	90.23
779.345	86.78
779.523	89.76
779.702	86.14
779.88	84.55
780.058	85.6
780.237	86.6
780.415	80.25
780.593	79.97
780.771	79.22
780.95	86.14
781.128	89.73
781.306	90.82
781.484	89.8
781.662	89.12
781.841	90.43
782.019	94.46
782.197	88.75
782.375	97.32
782.553	110.72
782.731	116.72
782.909	116.03
783.087	119.21
783.265	133.89
783.443	129.42
783.621	142.55
783.799	139.17
783.977	135.8
784.155	136.36
784.333	139.07
784.511	118.25
784.689	113.25
784.867	108.16
785.045	106.13
785.223	98.03
785.4	95.42
785.578	87.45
785.756	83.57
785.934	84.97
786.112	86.24
786.289	76.7
786.467	76.66
786.645	73.5
786.823	73.54
787	75.86
787.178	72.75
787.356	76.42
787.533	81.06
787.711	85.02
787.889	81.03
788.066	84.44
788.244	92.42
788.421	96.76
788.599	94.01
788.776	96.06
788.954	86.64
789.131	87.46
789.309	84.58
789.486	84.69
789.664	83.33
789.841	93.59
790.019	90.06
790.196	93.32
790.373	98.82
790.551	112.45
790.728	110.56
790.906	119.7
791.083	127.61
791.26	131.54
791.437	134.28
791.615	145.12
791.792	141.92
791.969	161.74
792.146	155.74
792.324	140.71
792.501	133.72
792.678	134.58
792.855	130.08
793.032	121.1
793.209	131.26
793.387	135.71
793.564	120.96
793.741	113.58
793.918	103.43
794.095	106.05
794.272	110
794.449	112.29
794.626	119.32
794.803	126.59
794.98	132.95
795.157	119.17
795.334	115.38
795.511	120.5
795.688	129.21
795.864	133.1
796.041	132.12
796.218	135.9
796.395	135.78
796.572	145.7
796.749	158.94
796.925	160.99
797.102	161.59
797.279	162.47
797.456	167.36
797.632	160.93
797.809	154.34
797.986	158.71
798.162	158.09
798.339	150.55
798.516	125.46
798.692	113.35
798.869	112.85
799.046	114.78
799.222	117.28
799.399	113.98
799.575	114.74
799.752	120.29
799.928	126.1
800.105	127.35
800.281	139.74
800.458	162.55
800.634	188.51
800.811	194.02
800.987	198.75
801.163	188.93
801.34	208.03
801.516	204.56
801.692	191.93
801.869	194.06
802.045	181.46
802.221	151.28
802.398	153.87
802.574	136.6
802.75	136.94
802.926	128.32
803.103	125.24
803.279	116.28
803.455	118.49
803.631	115.75
803.807	119.25
803.983	123.71
804.16	151.87
804.336	146.8
804.512	140.94
804.688	126.96
804.864	126.29
805.04	126.17
805.216	133.15
805.392	137.84
805.568	145.34
805.744	127.65
805.92	123.44
806.096	102.96
806.272	110.12
806.448	106.81
806.623	122.05
806.799	126.39
806.975	132.04
807.151	133.5
807.327	131.51
807.503	137.94
807.678	144.67
807.854	149.9
808.03	170.85
808.206	146.88
808.381	151.58
808.557	132.38
808.733	132.52
808.908	132.42
809.084	132.28
809.26	136.23
809.435	139.08
809.611	132.26
809.787	140.88
809.962	141.54
810.138	152.05
810.313	155.33
810.489	165.32
810.664	159.18
810.84	158.62
811.015	157.7
811.191	145.73
811.366	150.9
811.542	172.52
811.717	191.51
811.892	184.96
812.068	186.5
812.243	186.41
812.419	201.6
812.594	222.85
812.769	204.78
812.944	202.2
813.12	201.39
813.295	159.41
813.47	147.76
813.645	146.14
813.821	131.24
813.996	127.93
814.171	125.21
814.346	122.3
814.521	119.94
814.697	152.25
814.872	169.38
815.047	178.26
815.222	191.04
815.397	193.31
815.572	194.84
815.747	201.33
815.922	186.25
816.097	206.26
816.272	192.04
816.447	207.01
816.622	176.15
816.797	161.9
816.972	160.81
817.147	164.43
817.322	154.34
817.496	146.08
817.671	157.29
817.846	171
818.021	152.87
818.196	150.16
818.371	145.3
818.545	134.39
818.72	134.56
818.895	122.89
819.069	124.66
819.244	116.32
819.419	104.47
819.594	96.05
819.768	80.04
819.943	69.2
820.117	59.32
820.292	51.49
820.467	50.13
820.641	44.63
820.816	41.93
820.99	37.42
821.165	37.22
821.339	37.79
821.514	37.04
821.688	36.94
821.863	37.64
822.037	38.42
822.212	41.7
822.386	40.35
822.56	42.33
822.735	43.71
822.909	48.34
823.084	52.94
823.258	54.05
823.432	56.35
823.606	60.89
823.781	64.57
823.955	68.76
824.129	71.27
824.303	78.2
824.478	76.8
824.652	77.25
824.826	75.07
825	72.1
825.174	72.39
825.348	68.42
825.523	65.95
825.697	63.61
825.871	61.93
826.045	59.04
826.219	56.59
826.393	55.27
826.567	55.7
826.741	57.2
826.915	57.53
827.089	61.35
827.263	69.67
827.437	73.8
827.611	79.6
827.784	83.38
827.958	97.51
828.132	106.86
828.306	114.03
828.48	126.09
828.654	129.12
828.827	140.16
829.001	139.3
829.175	137.61
829.349	139
829.522	139.39
829.696	147.21
829.87	131.77
830.044	124.39
830.217	141.53
830.391	153.57
830.565	153.28
830.738	141.7
830.912	134.03
831.085	127.11
831.259	121.33
831.432	112.45
831.606	105.82
831.779	87.77
831.953	87.61
832.126	75.2
832.3	65.92
832.473	64.58
832.647	69.43
832.82	68.8
832.994	67.78
833.167	70.05
833.34	73.56
833.514	79.46
833.687	83.14
833.86	87.96
834.034	94.6
834.207	98.33
834.38	105.1
834.553	109.3
834.727	120.01
834.9	124.41
835.073	128.52
835.246	141.81
835.419	128.74
835.593	149.34
835.766	150.68
835.939	147.67
836.112	141.02
836.285	134.96
836.458	134.73
836.631	151.47
836.804	154.09
836.977	145.01
837.15	155.44
837.323	166.39
837.496	157.45
837.669	158.53
837.842	166.73
838.015	202.43
838.188	198.08
838.361	188.94
838.533	162.11
838.706	173.77
838.879	191.67
839.052	185.98
839.225	188.37
839.398	182.89
839.57	175.25
839.743	180.5
839.916	174.29
840.088	175.44
840.261	187.25
840.434	201.21
840.607	186.36
840.779	197.02
840.952	177.93
841.124	189.4
841.297	192.51
841.47	187.67
841.642	190.3
841.815	243.97
841.987	255.44
842.16	245.29
842.332	247.59
842.505	281.11
842.677	298.02
842.85	267.34
843.022	256.24
843.194	321.09
843.367	348.41
843.539	309.7
843.712	303.32
843.884	320.6
844.056	385.38
844.229	468.88
844.401	432.75
844.573	472.37
844.745	862.77
844.918	871.88
845.09	1161.03
845.262	10160
845.434	-6308.33
845.606	3211.32
845.779	7513.04
845.951	1208.21
846.123	1029.63
846.295	709.54
846.467	404.17
846.639	460.9
846.811	376.73
846.983	333.12
847.155	342.74
847.327	350.23
847.499	306.45
847.671	289.31
847.843	369.36
848.015	302.71
848.187	397.09
848.359	572.53
848.531	1183.89
848.703	1544.64
848.875	734.36
849.047	458.27
849.218	661.3
849.39	747.08
849.562	467.92
849.734	461.96
849.905	590.55
850.077	728.05
850.249	373.36
850.421	263.71
850.592	300.99
850.764	408.68
850.936	419.27
851.107	378.85
851.279	318.21
851.451	439.53
851.622	308.05
851.794	280.54
851.965	270.52
852.137	328.48
852.308	361.82
852.48	423.37
852.651	321
852.823	396.11
852.994	392.94
853.166	416.55
853.337	351.82
853.509	348.22
853.68	367.47
853.851	429.36
854.023	464.69
854.194	529.24
854.365	371.29
854.537	393.1
854.708	265.93
854.879	248.42
855.05	221.53
855.222	232.15
855.393	307.32
855.564	269.05
855.735	235.27
855.906	275.69
856.078	278.85
856.249	274.65
856.42	325.85
856.591	516.07
856.762	512.23
856.933	1088.27
857.104	844.74
857.275	667.88
857.446	791.07
857.617	672.63
857.788	307.59
857.959	348.6
858.13	400.21
858.301	327.12
858.472	348.56
858.643	376.99
858.814	387.42
858.985	396.76
859.155	333.44
859.326	356.2
859.497	479.1
859.668	770.24
859.839	576.23
860.009	721.97
860.18	911.06
860.351	678.8
860.522	852.32
860.692	934.63
860.863	1315.65
861.034	4734.21
861.204	2350.67
861.375	1239.69
861.546	11064.29
861.716	3197.96
861.887	741.4
862.057	515.63
862.228	539.3
862.398	472.75
862.569	347.18
862.739	345.86
862.91	477.98
863.08	624.22
863.251	855.22
863.421	774.26
863.592	539.78
863.762	1540.15
863.932	14707.69
864.103	1374.34
864.273	2007.92
864.443	-1219.51
864.614	-977.53
864.784	-2638.71
864.954	7709.09
865.125	851.69
865.295	509.46
865.465	753.49
865.635	705.66
865.805	712.2
865.976	37260
866.146	1284.83
866.316	545.11
866.486	506.4
866.656	674.42
866.826	865.27
866.996	787.36
867.166	778.4
867.336	963.24
867.506	705.69
867.676	620.25
867.846	586.71
868.016	744.31
868.186	1051.05
868.356	1458.27
868.526	909.72
868.696	547.38
868.866	676.76
869.036	1360.93
869.206	1055.07
869.376	756.95
869.545	943.1
869.715	738.11
869.885	562.29
870.055	479.13
870.224	590.65
870.394	905.51
870.564	1092.63
870.734	658.57
870.903	613.92
871.073	473.54
871.243	540.98
871.412	478.27
871.582	491.89
871.751	574.78
871.921	429.62
872.091	518.2
872.26	340.77
872.43	355.28
872.599	484.31
872.769	382.82
872.938	560.7
873.108	638.89
873.277	568.21
873.446	457.67
873.616	437.55
873.785	578.72
873.955	404.81
874.124	631.16
874.293	527.1
874.463	572.04
874.632	720.23
874.801	733.44
874.971	522.48
875.14	627.88
875.309	461.71
875.478	483.06
875.647	420.56
875.817	324.31
875.986	313.39
876.155	275.11
876.324	305.48
876.493	267.19
876.662	210.6
876.831	248.76
877	198.69
877.17	230.37
877.339	243.81
877.508	258.05
877.677	363.46
877.846	307.01
878.015	316.17
878.184	267.82
878.352	244.12
878.521	272.5
878.69	246.07
878.859	369.15
879.028	273.34
879.197	254.67
879.366	233.43
879.534	176.23
879.703	158.62
879.872	158.65
880.041	143.05
880.21	133.37
880.378	117.46
880.547	108.61
880.716	97.62
880.884	93.43
881.053	91.15
881.222	89
881.39	85.91
881.559	85.73
881.727	85.71
881.896	89.06
882.065	88.89
882.233	95.53
882.402	96.73
882.57	102.9
882.739	109.92
882.907	116.75
883.076	127.35
883.244	152.34
883.412	184.3
883.581	196.98
883.749	242.12
883.918	332.2
884.086	430.32
884.254	703.03
884.423	697.6
884.591	714.68
884.759	1828.57
884.927	8409.09
885.096	-4794.59
885.264	-2978.57
885.432	1409.37
885.6	1100
885.769	746.56
885.937	1394.03
886.105	514.55
886.273	554.12
886.441	457.24
886.609	346.24
886.777	290.63
886.945	318.73
887.113	375.98
887.281	524.37
887.449	439.5
887.617	716.03
887.785	498.18
887.953	549.14
888.121	488.66
888.289	1220.56
888.457	6061.9
888.625	-2663.64
888.793	-4370.83
888.961	763.06
889.129	1050.83
889.296	2350
889.464	520.11
889.632	560.93
889.8	736.36
889.967	2529.03
890.135	828.57
