Data from JASIL_2906_Reflection_2.txt Node
Date: Sat Nov 07 20:20:29 EST 2015
User: Geneva
Spectrometer: USB4E03002
Autoset integration time: false
Trigger mode: 4
Integration Time (sec): 1.000000E-1
Scans to average: 10
Electric dark correction enabled: true
Nonlinearity correction enabled: false
Boxcar width: 5
Stray light correction enabled: false
XAxis mode: Wavelengths
Stop averaging: false
Number of Pixels in Spectrum: 3648
>>>>>Begin Spectral Data<<<<<
177.575	182.51
177.794	184.97
178.014	109.73
178.233	89.88
178.452	30.78
178.672	27.76
178.891	-1301.16
179.11	242.33
179.33	163.97
179.549	158.85
179.768	146.84
179.987	114.88
180.207	105.29
180.426	64.36
180.645	73.33
180.864	62.26
181.084	77.17
181.303	86.34
181.522	94.75
181.741	98.22
181.96	85.53
182.179	93.44
182.398	109.03
182.618	106.33
182.837	130.5
183.056	108.88
183.275	109.85
183.494	109
183.713	96.69
183.932	99.11
184.151	96.07
184.37	106.04
184.589	101.44
184.808	90.05
185.027	90.18
185.246	84.78
185.465	91.13
185.684	86.04
185.903	81.26
186.122	84.38
186.341	86.69
186.56	89.55
186.779	95.14
186.998	95.55
187.216	99.67
187.435	90.99
187.654	88.08
187.873	93.83
188.092	98.84
188.311	93.5
188.53	96.76
188.748	84.9
188.967	79.14
189.186	82.99
189.405	83.39
189.623	84.84
189.842	100.72
190.061	107.54
190.28	98.98
190.498	95.47
190.717	103.52
190.936	105.55
191.154	101.94
191.373	110.51
191.592	101.51
191.81	104.99
192.029	94.89
192.248	84.62
192.466	74.6
192.685	76.03
192.904	73.35
193.122	69.44
193.341	63.96
193.559	63.34
193.778	61.69
193.996	59.5
194.215	54.23
194.433	63.53
194.652	65.34
194.87	67.09
195.089	71
195.307	76.35
195.526	77.06
195.744	77.24
195.963	85.08
196.181	80.61
196.399	87.26
196.618	91.34
196.836	87.93
197.055	90.56
197.273	91.84
197.491	94.72
197.71	95.41
197.928	89.34
198.146	95.11
198.365	86.21
198.583	79.42
198.801	70.84
199.019	65.13
199.238	60.94
199.456	49.23
199.674	53.5
199.892	43.22
200.111	50.52
200.329	56.32
200.547	40.71
200.765	55.11
200.983	70.1
201.202	85.21
201.42	87.68
201.638	89.02
201.856	85.94
202.074	77.63
202.292	79.12
202.51	72.2
202.728	84.05
202.946	89.38
203.165	88.24
203.383	82.65
203.601	74.51
203.819	81.98
204.037	85.56
204.255	84.16
204.473	77.86
204.691	81.41
204.909	77.88
205.127	72.21
205.345	71.54
205.562	78.79
205.78	78.73
205.998	80.13
206.216	71.22
206.434	65.36
206.652	72.56
206.87	76.17
207.088	70.76
207.306	70.47
207.523	67.9
207.741	74.35
207.959	66.7
208.177	63.45
208.395	60.94
208.612	55.6
208.83	63.66
209.048	63.63
209.266	64.49
209.483	69.46
209.701	70.4
209.919	72.73
210.136	61.59
210.354	66.54
210.572	71.96
210.79	75.32
211.007	82.93
211.225	73.7
211.442	69.27
211.66	69.36
211.878	63.31
212.095	113.52
212.313	106.92
212.53	109.05
212.748	106.31
212.966	101.84
213.183	97.43
213.401	90.04
213.618	92.87
213.836	98.94
214.053	101.09
214.271	103.54
214.488	54.94
214.705	54.84
214.923	55.64
215.14	51.49
215.358	49.1
215.575	45.92
215.793	50.2
216.01	51.23
216.227	48.36
216.445	54.2
216.662	53.13
216.879	54.23
217.097	55.94
217.314	51.28
217.531	53.29
217.749	57.36
217.966	61.78
218.183	59.39
218.4	49.03
218.618	50.69
218.835	43.22
219.052	39.01
219.269	38.79
219.487	37.73
219.704	43.1
219.921	40.78
220.138	36.64
220.355	34.04
220.572	33.08
220.79	42.26
221.007	41.14
221.224	37.25
221.441	38.57
221.658	41.5
221.875	39.51
222.092	34.41
222.309	32.86
222.526	29.4
222.743	30.5
222.96	29.96
223.177	27.27
223.394	28.72
223.611	35.07
223.828	34.08
224.045	30.49
224.262	30.71
224.479	32.13
224.696	34.13
224.913	35.38
225.13	32.98
225.347	32.18
225.564	31.12
225.781	28.28
225.997	24.78
226.214	24.49
226.431	22.49
226.648	21.28
226.865	20.82
227.082	19.37
227.298	18.58
227.515	18.65
227.732	18.43
227.949	18.5
228.165	18.63
228.382	18.19
228.599	18.31
228.816	18.75
229.032	19
229.249	19.1
229.466	19.27
229.682	19.6
229.899	19.92
230.116	19.79
230.332	19.25
230.549	19.74
230.765	21.06
230.982	20.03
231.199	20.52
231.415	19.92
231.632	20.05
231.848	20.54
232.065	20.17
232.281	20.05
232.498	20.26
232.714	21.36
232.931	21.09
233.147	20.58
233.364	21.32
233.58	20.59
233.797	21.5
234.013	21.24
234.23	20.24
234.446	20.38
234.662	19.62
234.879	19.82
235.095	18.93
235.312	19.36
235.528	20.32
235.744	20.88
235.961	21.54
236.177	21.12
236.393	20.78
236.61	21.73
236.826	21.07
237.042	20.89
237.258	20.93
237.475	21.35
237.691	20.64
237.907	18.93
238.123	18.14
238.339	18.12
238.556	17.98
238.772	17.97
238.988	16.57
239.204	16.43
239.42	16.79
239.636	16.52
239.853	15.88
240.069	15.37
240.285	15.47
240.501	14.98
240.717	14.45
240.933	14.01
241.149	13.51
241.365	13.96
241.581	14.22
241.797	14.01
242.013	14.07
242.229	14.15
242.445	14.45
242.661	14.53
242.877	14.93
243.093	14.99
243.309	15.35
243.525	15.57
243.741	15.57
243.957	15.01
244.173	14.59
244.388	13.94
244.604	12.88
244.82	12.14
245.036	11.71
245.252	11.38
245.468	11.55
245.683	11.52
245.899	11.36
246.115	11.27
246.331	11.15
246.547	11.07
246.762	11.22
246.978	11.65
247.194	11.66
247.409	11.62
247.625	11.66
247.841	11.42
248.057	11.47
248.272	11.39
248.488	11.28
248.703	11.19
248.919	11.67
249.135	11.48
249.35	11.13
249.566	11.19
249.782	11.4
249.997	11.16
250.213	11.1
250.428	10.46
250.644	11.33
250.859	11.3
251.075	11.47
251.29	10.81
251.506	10.75
251.721	10.6
251.937	10.89
252.152	10.72
252.368	10.9
252.583	11.19
252.798	11.94
253.014	11.72
253.229	11.68
253.445	11.91
253.66	12.66
253.875	12.88
254.091	13
254.306	12.77
254.521	12.85
254.737	12.58
254.952	11.82
255.167	11.04
255.383	10.65
255.598	10.74
255.813	10.12
256.028	9.92
256.244	9.62
256.459	9.66
256.674	9.15
256.889	8.6
257.104	8.6
257.32	8.88
257.535	8.9
257.75	8.47
257.965	8.56
258.18	8.9
258.395	8.66
258.61	8.63
258.826	8.44
259.041	8.49
259.256	8.65
259.471	8.69
259.686	8.59
259.901	8.62
260.116	8.91
260.331	8.79
260.546	8.59
260.761	8.74
260.976	8.82
261.191	8.99
261.406	9.03
261.621	9.02
261.836	8.93
262.05	8.76
262.265	8.65
262.48	8.2
262.695	8.24
262.91	8.53
263.125	8.58
263.34	8.64
263.555	8.96
263.769	9.19
263.984	9.24
264.199	9.19
264.414	9.37
264.629	9.37
264.843	9.57
265.058	9.77
265.273	9.44
265.488	9.16
265.702	9.02
265.917	8.89
266.132	8.71
266.346	8.86
266.561	8.66
266.776	8.8
266.99	8.66
267.205	8.73
267.42	8.53
267.634	8.47
267.849	8.55
268.063	8.65
268.278	8.74
268.492	8.75
268.707	8.4
268.922	8.48
269.136	8.5
269.351	8.5
269.565	8.53
269.78	8.59
269.994	8.54
270.209	8.51
270.423	8.39
270.637	8.23
270.852	8.34
271.066	8.58
271.281	8.68
271.495	8.48
271.709	8.59
271.924	8.35
272.138	8.46
272.353	8.57
272.567	8.62
272.781	8.35
272.996	8.4
273.21	8.33
273.424	8.13
273.638	8.09
273.853	8.4
274.067	8.27
274.281	8.56
274.495	8.32
274.71	8.26
274.924	8.09
275.138	8.43
275.352	8.36
275.566	8.44
275.781	8.65
275.995	8.69
276.209	8.73
276.423	8.67
276.637	8.53
276.851	8.23
277.065	8.13
277.279	8.12
277.493	8.09
277.707	8.06
277.921	8.07
278.135	7.51
278.349	7.48
278.563	7.11
278.777	7.33
278.991	7.54
279.205	7.69
279.419	7.78
279.633	8.04
279.847	7.98
280.061	8.06
280.275	7.7
280.489	7.95
280.703	7.94
280.917	8.15
281.131	7.9
281.344	7.83
281.558	7.78
281.772	7.79
281.986	7.41
282.2	7.32
282.414	7.1
282.627	7.31
282.841	7.4
283.055	7.43
283.269	7.25
283.482	7.28
283.696	7.09
283.91	7.05
284.123	7.07
284.337	7.3
284.551	7.3
284.764	7.52
284.978	7.47
285.192	7.39
285.405	7.15
285.619	7.23
285.833	7.27
286.046	7.1
286.26	7.23
286.473	7.05
286.687	6.95
286.9	7.12
287.114	6.95
287.327	6.96
287.541	6.95
287.754	7.2
287.968	6.98
288.181	7.05
288.395	7.27
288.608	7.3
288.822	7.29
289.035	7.15
289.248	7.15
289.462	7.12
289.675	6.78
289.889	6.77
290.102	6.62
290.315	6.87
290.529	6.76
290.742	6.73
290.955	6.72
291.169	6.8
291.382	6.91
291.595	6.8
291.808	6.69
292.022	6.78
292.235	6.97
292.448	7.15
292.661	6.92
292.875	6.89
293.088	6.89
293.301	6.78
293.514	6.67
293.727	6.63
293.94	6.57
294.153	6.66
294.367	6.82
294.58	6.5
294.793	6.44
295.006	6.51
295.219	6.58
295.432	6.59
295.645	6.7
295.858	6.66
296.071	6.68
296.284	6.65
296.497	6.67
296.71	6.72
296.923	6.83
297.136	6.71
297.349	6.83
297.562	6.96
297.775	6.95
297.988	6.89
298.201	7.04
298.414	7.15
298.626	7.14
298.839	7.19
299.052	7.28
299.265	7.29
299.478	7.24
299.691	7.16
299.903	6.96
300.116	6.93
300.329	6.9
300.542	6.79
300.755	6.75
300.967	6.96
301.18	6.79
301.393	6.68
301.605	6.61
301.818	6.8
302.031	6.72
302.243	6.8
302.456	6.93
302.669	6.96
302.881	7.24
303.094	7.1
303.307	6.73
303.519	6.82
303.732	6.82
303.944	6.83
304.157	6.74
304.37	6.86
304.582	6.78
304.795	6.65
305.007	6.71
305.22	6.61
305.432	6.62
305.645	6.91
305.857	6.94
306.069	6.76
306.282	6.85
306.494	6.96
306.707	6.95
306.919	6.93
307.132	6.77
307.344	6.62
307.556	6.68
307.769	6.75
307.981	6.68
308.193	6.63
308.406	6.76
308.618	6.75
308.83	6.58
309.043	6.44
309.255	6.38
309.467	6.46
309.679	6.54
309.892	6.46
310.104	6.49
310.316	6.55
310.528	6.56
310.74	6.55
310.953	6.48
311.165	6.63
311.377	6.51
311.589	6.49
311.801	6.79
312.013	6.83
312.225	6.86
312.437	7.08
312.649	7.21
312.862	7.27
313.074	7.17
313.286	7.33
313.498	7.47
313.71	7.86
313.922	8.24
314.134	7.97
314.346	8.03
314.558	8.24
314.77	8.27
314.982	8.41
315.193	8.33
315.405	8.64
315.617	8.54
315.829	8.45
316.041	8.47
316.253	8.32
316.465	8.41
316.677	8.44
316.888	8.09
317.1	7.77
317.312	7.42
317.524	7.64
317.736	7.75
317.947	7.96
318.159	7.89
318.371	7.54
318.583	7.54
318.794	7.4
319.006	7.32
319.218	7.4
319.43	7.49
319.641	7.65
319.853	7.59
320.064	7.66
320.276	7.51
320.488	7.73
320.699	7.95
320.911	8
321.123	8.45
321.334	8.55
321.546	8.58
321.757	8.63
321.969	8.5
322.18	8.46
322.392	8.3
322.603	8.27
322.815	8.18
323.026	7.99
323.238	7.82
323.449	7.58
323.661	7.54
323.872	7.58
324.083	7.74
324.295	7.82
324.506	7.84
324.718	7.85
324.929	7.89
325.14	8.03
325.352	8.31
325.563	8.5
325.774	8.42
325.986	8.55
326.197	8.59
326.408	8.55
326.62	8.54
326.831	8.59
327.042	8.6
327.253	8.57
327.464	8.64
327.676	8.86
327.887	8.84
328.098	9.05
328.309	8.99
328.52	9.23
328.732	9.06
328.943	9.2
329.154	9.12
329.365	9.39
329.576	9.68
329.787	9.43
329.998	9.36
330.209	9.38
330.42	9.28
330.631	9.49
330.842	9.38
331.053	9.61
331.264	9.61
331.475	9.78
331.686	9.5
331.897	9.5
332.108	9.54
332.319	9.27
332.53	9.27
332.741	9.29
332.952	9.5
333.163	9.42
333.374	9.41
333.585	9.45
333.795	9.51
334.006	9.62
334.217	9.47
334.428	9.49
334.639	9.68
334.849	9.5
335.06	9.57
335.271	9.17
335.482	9.24
335.692	9.3
335.903	9.32
336.114	9.32
336.325	9.24
336.535	9.42
336.746	9.58
336.957	9.63
337.167	9.8
337.378	9.85
337.589	9.98
337.799	9.93
338.01	9.84
338.22	9.77
338.431	9.62
338.642	9.63
338.852	9.43
339.063	9.07
339.273	8.95
339.484	8.91
339.694	8.81
339.905	8.72
340.115	8.73
340.326	8.75
340.536	8.49
340.746	8.58
340.957	8.55
341.167	8.65
341.378	8.98
341.588	9.01
341.799	9.02
342.009	9.1
342.219	9.14
342.43	9.24
342.64	9.14
342.85	9.27
343.061	9.12
343.271	9.21
343.481	9.11
343.691	8.89
343.902	8.73
344.112	8.69
344.322	8.67
344.532	8.79
344.743	8.63
344.953	8.6
345.163	8.46
345.373	8.53
345.583	8.41
345.793	8.48
346.004	8.64
346.214	8.83
346.424	8.9
346.634	8.89
346.844	8.77
347.054	8.73
347.264	8.83
347.474	9
347.684	9.08
347.894	9.14
348.104	9.14
348.314	9.08
348.524	8.86
348.734	8.85
348.944	8.88
349.154	8.89
349.364	8.88
349.574	8.78
349.784	8.76
349.994	8.82
350.204	8.77
350.413	8.78
350.623	8.67
350.833	8.74
351.043	8.53
351.253	8.41
351.463	8.23
351.672	8.25
351.882	8.28
352.092	8.43
352.302	8.32
352.511	8.47
352.721	8.36
352.931	8.39
353.141	8.4
353.35	8.52
353.56	8.35
353.77	8.44
353.979	8.46
354.189	8.43
354.399	8.2
354.608	7.99
354.818	7.8
355.027	7.87
355.237	7.88
355.447	7.75
355.656	7.71
355.866	7.85
356.075	7.78
356.285	7.78
356.494	7.84
356.704	7.85
356.913	7.95
357.123	7.88
357.332	7.71
357.542	7.68
357.751	7.76
357.96	7.7
358.17	7.6
358.379	7.58
358.589	7.65
358.798	7.56
359.007	7.68
359.217	7.79
359.426	7.85
359.635	7.97
359.845	7.93
360.054	7.83
360.263	7.89
360.472	7.92
360.682	7.91
360.891	7.75
361.1	7.68
361.309	7.49
361.519	7.37
361.728	7.33
361.937	7.32
362.146	7.34
362.355	7.4
362.564	7.3
362.774	7.33
362.983	7.25
363.192	7.39
363.401	7.51
363.61	7.52
363.819	7.47
364.028	7.49
364.237	7.39
364.446	7.25
364.655	7.3
364.864	7.42
365.073	7.39
365.282	7.47
365.491	7.32
365.7	7.25
365.909	7.3
366.118	7.32
366.327	7.24
366.536	7.32
366.745	7.4
366.954	7.42
367.162	7.39
367.371	7.34
367.58	7.22
367.789	7.31
367.998	7.31
368.207	7.36
368.415	7.46
368.624	7.57
368.833	7.41
369.042	7.48
369.25	7.38
369.459	7.46
369.668	7.5
369.877	7.53
370.085	7.41
370.294	7.3
370.503	7.31
370.711	7.22
370.92	7.25
371.129	7.32
371.337	7.19
371.546	7.09
371.754	7.07
371.963	7.07
372.171	7.06
372.38	7.1
372.589	7.17
372.797	7.13
373.006	7.14
373.214	7.05
373.423	7.06
373.631	7.13
373.84	7.13
374.048	7.09
374.256	6.91
374.465	6.93
374.673	6.91
374.882	6.93
375.09	6.95
375.298	6.95
375.507	6.78
375.715	6.83
375.923	6.74
376.132	6.78
376.34	6.72
376.548	6.83
376.757	6.85
376.965	6.9
377.173	6.9
377.381	6.95
377.59	6.97
377.798	7.07
378.006	6.89
378.214	6.87
378.423	6.86
378.631	6.82
378.839	6.79
379.047	6.69
379.255	6.58
379.463	6.48
379.671	6.34
379.879	6.28
380.088	6.34
380.296	6.41
380.504	6.45
380.712	6.47
380.92	6.42
381.128	6.36
381.336	6.29
381.544	6.25
381.752	6.27
381.96	6.29
382.168	6.24
382.376	6.16
382.584	6.16
382.791	6.18
382.999	6.29
383.207	6.31
383.415	6.42
383.623	6.55
383.831	6.57
384.039	6.51
384.247	6.36
384.454	6.33
384.662	6.24
384.87	6.19
385.078	6.14
385.285	5.81
385.493	5.76
385.701	5.67
385.909	5.6
386.116	5.68
386.324	5.68
386.532	5.8
386.739	5.78
386.947	5.91
387.155	5.96
387.362	5.92
387.57	6.09
387.778	6.01
387.985	5.97
388.193	6.05
388.4	6.01
388.608	6.08
388.816	6.07
389.023	6.08
389.231	6.04
389.438	5.93
389.646	5.85
389.853	5.86
390.061	5.9
390.268	5.96
390.475	5.85
390.683	5.86
390.89	5.79
391.098	5.72
391.305	5.78
391.512	5.68
391.72	5.68
391.927	5.81
392.135	5.75
392.342	5.73
392.549	5.68
392.756	5.71
392.964	5.65
393.171	5.66
393.378	5.76
393.586	5.65
393.793	5.71
394	5.74
394.207	5.65
394.414	5.65
394.622	5.73
394.829	5.69
395.036	5.67
395.243	5.6
395.45	5.49
395.657	5.45
395.864	5.44
396.072	5.37
396.279	5.38
396.486	5.33
396.693	5.33
396.9	5.24
397.107	5.19
397.314	5.22
397.521	5.19
397.728	5.25
397.935	5.25
398.142	5.18
398.349	5.16
398.556	5.13
398.763	5.11
398.97	5.11
399.177	5.13
399.383	5.18
399.59	5.11
399.797	5.12
400.004	5.02
400.211	5.04
400.418	5.13
400.625	5.13
400.831	5.07
401.038	5.13
401.245	5.16
401.452	5.12
401.658	5.06
401.865	4.99
402.072	5.02
402.279	5.1
402.485	5.01
402.692	4.93
402.899	4.9
403.105	4.92
403.312	4.98
403.519	4.96
403.725	4.97
403.932	5.08
404.138	5.06
404.345	5.01
404.552	5.01
404.758	5.04
404.965	5.06
405.171	5.11
405.378	5.09
405.584	5.06
405.791	4.93
405.997	4.95
406.204	4.87
406.41	4.96
406.617	5.01
406.823	4.99
407.029	4.98
407.236	4.98
407.442	5.02
407.649	5
407.855	4.87
408.061	4.99
408.268	4.99
408.474	4.93
408.68	4.87
408.887	4.93
409.093	4.93
409.299	4.94
409.505	4.94
409.712	4.84
409.918	4.88
410.124	4.91
410.33	4.89
410.537	4.78
410.743	4.8
410.949	4.78
411.155	4.73
411.361	4.7
411.567	4.69
411.773	4.67
411.98	4.65
412.186	4.71
412.392	4.81
412.598	4.8
412.804	4.84
413.01	4.84
413.216	4.88
413.422	4.85
413.628	4.91
413.834	4.77
414.04	4.82
414.246	4.83
414.452	4.76
414.658	4.69
414.864	4.64
415.07	4.6
415.275	4.58
415.481	4.55
415.687	4.5
415.893	4.42
416.099	4.46
416.305	4.32
416.511	4.33
416.716	4.31
416.922	4.22
417.128	4.22
417.334	4.27
417.539	4.27
417.745	4.19
417.951	4.18
418.157	4.19
418.362	4.17
418.568	4.19
418.774	4.17
418.979	4.17
419.185	4.2
419.391	4.2
419.596	4.14
419.802	4.13
420.008	4.15
420.213	4.22
420.419	4.22
420.624	4.2
420.83	4.21
421.035	4.19
421.241	4.17
421.446	4.16
421.652	4.13
421.857	4.13
422.063	4.1
422.268	4.11
422.474	4.03
422.679	4.01
422.885	4.01
423.09	3.97
423.295	3.97
423.501	3.95
423.706	3.93
423.911	3.9
424.117	3.9
424.322	3.93
424.527	3.92
424.733	3.91
424.938	3.89
425.143	3.9
425.349	3.91
425.554	3.94
425.759	3.91
425.964	3.93
426.169	4
426.375	3.98
426.58	4.02
426.785	4.02
426.99	4.1
427.195	4.15
427.4	4.19
427.605	4.28
427.811	4.3
428.016	4.41
428.221	4.45
428.426	4.44
428.631	4.48
428.836	4.41
429.041	4.44
429.246	4.37
429.451	4.35
429.656	4.4
429.861	4.33
430.066	4.35
430.271	4.26
430.476	4.21
430.681	4.22
430.886	4.2
431.09	4.28
431.295	4.25
431.5	4.23
431.705	4.16
431.91	4.08
432.115	4.08
432.32	4
432.524	4.01
432.729	4
432.934	3.97
433.139	3.97
433.343	3.92
433.548	3.96
433.753	4
433.958	4.06
434.162	4.09
434.367	4.08
434.572	4.1
434.776	4.1
434.981	4.12
435.186	4.14
435.39	4.14
435.595	4.13
435.799	4.02
436.004	3.98
436.209	3.89
436.413	3.84
436.618	3.84
436.822	3.84
437.027	3.81
437.231	3.76
437.436	3.68
437.64	3.6
437.845	3.64
438.049	3.71
438.253	3.66
438.458	3.68
438.662	3.71
438.867	3.68
439.071	3.69
439.275	3.72
439.48	3.76
439.684	3.76
439.888	3.81
440.093	3.74
440.297	3.7
440.501	3.78
440.706	3.8
440.91	3.81
441.114	3.88
441.318	3.86
441.523	3.87
441.727	3.85
441.931	3.89
442.135	3.91
442.339	3.94
442.543	3.96
442.748	3.88
442.952	3.88
443.156	3.88
443.36	3.83
443.564	3.86
443.768	3.79
443.972	3.74
444.176	3.69
444.38	3.66
444.584	3.66
444.788	3.62
444.992	3.62
445.196	3.61
445.4	3.54
445.604	3.52
445.808	3.52
446.012	3.55
446.216	3.56
446.42	3.59
446.624	3.56
446.828	3.52
447.032	3.56
447.235	3.58
447.439	3.57
447.643	3.63
447.847	3.69
448.051	3.67
448.254	3.67
448.458	3.68
448.662	3.69
448.866	3.71
449.069	3.72
449.273	3.75
449.477	3.78
449.681	3.8
449.884	3.77
450.088	3.74
450.292	3.74
450.495	3.69
450.699	3.7
450.902	3.71
451.106	3.73
451.31	3.8
451.513	3.74
451.717	3.74
451.92	3.76
452.124	3.78
452.327	3.76
452.531	3.74
452.734	3.78
452.938	3.75
453.141	3.76
453.345	3.78
453.548	3.74
453.752	3.77
453.955	3.76
454.158	3.75
454.362	3.75
454.565	3.73
454.769	3.76
454.972	3.81
455.175	3.82
455.379	3.79
455.582	3.77
455.785	3.74
455.988	3.69
456.192	3.65
456.395	3.63
456.598	3.61
456.801	3.63
457.005	3.54
457.208	3.52
457.411	3.52
457.614	3.5
457.817	3.45
458.021	3.46
458.224	3.49
458.427	3.49
458.63	3.52
458.833	3.5
459.036	3.46
459.239	3.49
459.442	3.45
459.645	3.45
459.848	3.48
460.051	3.49
460.254	3.52
460.457	3.52
460.66	3.56
460.863	3.55
461.066	3.55
461.269	3.59
461.472	3.67
461.675	3.68
461.878	3.7
462.081	3.7
462.284	3.73
462.486	3.72
462.689	3.74
462.892	3.72
463.095	3.73
463.298	3.79
463.5	3.81
463.703	3.73
463.906	3.79
464.109	3.79
464.311	3.8
464.514	3.83
464.717	3.85
464.92	3.83
465.122	3.84
465.325	3.85
465.528	3.82
465.73	3.79
465.933	3.79
466.135	3.67
466.338	3.66
466.541	3.63
466.743	3.58
466.946	3.57
467.148	3.59
467.351	3.57
467.553	3.57
467.756	3.57
467.958	3.57
468.161	3.57
468.363	3.64
468.566	3.62
468.768	3.6
468.971	3.64
469.173	3.63
469.375	3.57
469.578	3.47
469.78	3.47
469.983	3.45
470.185	3.44
470.387	3.44
470.59	3.5
470.792	3.52
470.994	3.53
471.196	3.5
471.399	3.48
471.601	3.48
471.803	3.58
472.005	3.52
472.208	3.54
472.41	3.57
472.612	3.54
472.814	3.55
473.016	3.53
473.218	3.56
473.421	3.55
473.623	3.58
473.825	3.6
474.027	3.61
474.229	3.62
474.431	3.62
474.633	3.6
474.835	3.63
475.037	3.56
475.239	3.6
475.441	3.58
475.643	3.66
475.845	3.64
476.047	3.67
476.249	3.68
476.451	3.7
476.653	3.66
476.855	3.7
477.057	3.66
477.258	3.68
477.46	3.67
477.662	3.69
477.864	3.62
478.066	3.61
478.268	3.58
478.469	3.59
478.671	3.57
478.873	3.59
479.075	3.55
479.276	3.54
479.478	3.59
479.68	3.51
479.882	3.5
480.083	3.49
480.285	3.47
480.487	3.45
480.688	3.44
480.89	3.45
481.091	3.41
481.293	3.42
481.495	3.43
481.696	3.4
481.898	3.41
482.099	3.37
482.301	3.34
482.502	3.33
482.704	3.31
482.905	3.28
483.107	3.26
483.308	3.26
483.51	3.24
483.711	3.25
483.913	3.25
484.114	3.26
484.315	3.28
484.517	3.31
484.718	3.32
484.92	3.34
485.121	3.37
485.322	3.37
485.524	3.4
485.725	3.39
485.926	3.38
486.127	3.35
486.329	3.35
486.53	3.36
486.731	3.32
486.932	3.3
487.134	3.29
487.335	3.3
487.536	3.32
487.737	3.31
487.938	3.32
488.139	3.32
488.341	3.34
488.542	3.37
488.743	3.36
488.944	3.39
489.145	3.41
489.346	3.42
489.547	3.42
489.748	3.41
489.949	3.4
490.15	3.39
490.351	3.37
490.552	3.36
490.753	3.35
490.954	3.33
491.155	3.32
491.356	3.32
491.557	3.34
491.758	3.33
491.959	3.35
492.159	3.39
492.36	3.43
492.561	3.43
492.762	3.46
492.963	3.48
493.164	3.52
493.364	3.56
493.565	3.6
493.766	3.62
493.967	3.62
494.167	3.65
494.368	3.63
494.569	3.63
494.769	3.64
494.97	3.64
495.171	3.63
495.371	3.61
495.572	3.57
495.773	3.56
495.973	3.53
496.174	3.57
496.375	3.57
496.575	3.55
496.776	3.56
496.976	3.58
497.177	3.59
497.377	3.63
497.578	3.66
497.778	3.7
497.979	3.71
498.179	3.74
498.38	3.73
498.58	3.7
498.78	3.76
498.981	3.77
499.181	3.78
499.382	3.76
499.582	3.74
499.782	3.74
499.983	3.77
500.183	3.81
500.383	3.8
500.584	3.83
500.784	3.86
500.984	3.84
501.184	3.83
501.385	3.84
501.585	3.88
501.785	3.88
501.985	3.94
502.185	3.96
502.386	3.97
502.586	3.99
502.786	4
502.986	4.04
503.186	4.08
503.386	4.1
503.586	4.12
503.786	4.09
503.987	4.11
504.187	4.07
504.387	4.07
504.587	4.07
504.787	4.06
504.987	4.05
505.187	4.04
505.387	4.01
505.587	4.04
505.786	4.09
505.986	4.14
506.186	4.18
506.386	4.21
506.586	4.21
506.786	4.22
506.986	4.21
507.186	4.23
507.386	4.22
507.585	4.21
507.785	4.21
507.985	4.19
508.185	4.18
508.384	4.16
508.584	4.1
508.784	4.08
508.984	4.1
509.183	4.15
509.383	4.14
509.583	4.13
509.782	4.16
509.982	4.17
510.182	4.18
510.381	4.19
510.581	4.26
510.781	4.3
510.98	4.36
511.18	4.35
511.379	4.34
511.579	4.39
511.778	4.43
511.978	4.44
512.177	4.46
512.377	4.51
512.576	4.53
512.776	4.54
512.975	4.62
513.175	4.6
513.374	4.65
513.573	4.7
513.773	4.69
513.972	4.69
514.172	4.74
514.371	4.78
514.57	4.79
514.77	4.84
514.969	4.84
515.168	4.84
515.367	4.89
515.567	4.91
515.766	4.9
515.965	4.91
516.164	4.93
516.364	4.93
516.563	4.92
516.762	4.91
516.961	4.89
517.16	4.91
517.359	4.89
517.559	4.88
517.758	4.87
517.957	4.87
518.156	4.9
518.355	4.92
518.554	4.93
518.753	4.94
518.952	4.94
519.151	4.97
519.35	5.01
519.549	5.04
519.748	5.08
519.947	5.13
520.146	5.16
520.345	5.14
520.544	5.19
520.743	5.19
520.942	5.19
521.141	5.26
521.339	5.27
521.538	5.29
521.737	5.29
521.936	5.28
522.135	5.3
522.333	5.31
522.532	5.34
522.731	5.34
522.93	5.35
523.129	5.36
523.327	5.39
523.526	5.37
523.725	5.36
523.923	5.4
524.122	5.4
524.321	5.4
524.519	5.41
524.718	5.44
524.917	5.45
525.115	5.49
525.314	5.53
525.512	5.52
525.711	5.55
525.909	5.57
526.108	5.56
526.306	5.58
526.505	5.58
526.703	5.58
526.902	5.58
527.1	5.57
527.299	5.56
527.497	5.57
527.696	5.57
527.894	5.57
528.092	5.57
528.291	5.6
528.489	5.6
528.688	5.63
528.886	5.66
529.084	5.68
529.283	5.74
529.481	5.77
529.679	5.79
529.877	5.83
530.076	5.9
530.274	5.94
530.472	5.95
530.67	6
530.869	5.99
531.067	6.01
531.265	6.03
531.463	6.03
531.661	6.02
531.859	6.03
532.057	6.04
532.255	6.02
532.454	6.02
532.652	6.05
532.85	6.06
533.048	6.1
533.246	6.15
533.444	6.18
533.642	6.2
533.84	6.25
534.038	6.3
534.236	6.34
534.434	6.4
534.632	6.44
534.83	6.47
535.027	6.49
535.225	6.5
535.423	6.48
535.621	6.49
535.819	6.51
536.017	6.51
536.215	6.5
536.412	6.5
536.61	6.54
536.808	6.56
537.006	6.54
537.203	6.56
537.401	6.61
537.599	6.68
537.797	6.74
537.994	6.76
538.192	6.8
538.39	6.86
538.587	6.86
538.785	6.86
538.983	6.9
539.18	6.95
539.378	6.96
539.575	6.99
539.773	6.96
539.97	6.94
540.168	6.98
540.366	6.99
540.563	7.01
540.761	7.06
540.958	7.06
541.155	7.06
541.353	7.09
541.55	7.13
541.748	7.16
541.945	7.19
542.143	7.24
542.34	7.26
542.537	7.29
542.735	7.31
542.932	7.33
543.129	7.38
543.327	7.43
543.524	7.49
543.721	7.51
543.919	7.54
544.116	7.62
544.313	7.65
544.51	7.67
544.708	7.72
544.905	7.74
545.102	7.82
545.299	7.86
545.496	7.89
545.693	7.89
545.891	7.95
546.088	7.97
546.285	8
546.482	8.02
546.679	8.06
546.876	8.09
547.073	8.16
547.27	8.18
547.467	8.19
547.664	8.21
547.861	8.26
548.058	8.3
548.255	8.38
548.452	8.42
548.649	8.5
548.846	8.54
549.043	8.63
549.24	8.64
549.437	8.65
549.633	8.7
549.83	8.73
550.027	8.79
550.224	8.83
550.421	8.79
550.618	8.78
550.814	8.82
551.011	8.83
551.208	8.83
551.405	8.81
551.601	8.9
551.798	8.95
551.995	8.98
552.191	8.99
552.388	8.97
552.585	9.04
552.781	9.05
552.978	9.1
553.175	9.21
553.371	9.21
553.568	9.29
553.764	9.28
553.961	9.27
554.157	9.35
554.354	9.38
554.55	9.49
554.747	9.52
554.943	9.61
555.14	9.63
555.336	9.61
555.533	9.68
555.729	9.76
555.926	9.83
556.122	9.89
556.318	9.88
556.515	9.96
556.711	9.94
556.907	9.94
557.104	9.98
557.3	10
557.496	10.07
557.693	10.11
557.889	10.12
558.085	10.12
558.281	10.2
558.478	10.29
558.674	10.32
558.87	10.36
559.066	10.43
559.262	10.39
559.459	10.43
559.655	10.46
559.851	10.47
560.047	10.53
560.243	10.51
560.439	10.54
560.635	10.55
560.831	10.55
561.027	10.61
561.223	10.63
561.419	10.7
561.615	10.77
561.811	10.81
562.007	10.89
562.203	10.95
562.399	11.02
562.595	11.02
562.791	11.08
562.987	11.12
563.183	11.1
563.379	11.13
563.575	11.16
563.771	11.13
563.966	11.13
564.162	11.17
564.358	11.18
564.554	11.2
564.75	11.2
564.945	11.25
565.141	11.32
565.337	11.36
565.533	11.39
565.728	11.43
565.924	11.46
566.12	11.45
566.315	11.47
566.511	11.48
566.707	11.51
566.902	11.59
567.098	11.57
567.293	11.58
567.489	11.61
567.684	11.69
567.88	11.71
568.076	11.82
568.271	11.89
568.467	11.92
568.662	11.96
568.858	12.02
569.053	12.01
569.248	12.03
569.444	12
569.639	12.07
569.835	12.08
570.03	12.12
570.225	12.13
570.421	12.15
570.616	12.22
570.812	12.24
571.007	12.23
571.202	12.32
571.397	12.33
571.593	12.4
571.788	12.45
571.983	12.48
572.178	12.45
572.374	12.5
572.569	12.51
572.764	12.5
572.959	12.51
573.154	12.56
573.35	12.59
573.545	12.71
573.74	12.73
573.935	12.74
574.13	12.72
574.325	12.79
574.52	12.78
574.715	12.87
574.91	12.92
575.105	12.96
575.3	13.05
575.495	13.06
575.69	13.04
575.885	13.07
576.08	13.13
576.275	13.15
576.47	13.22
576.665	13.25
576.86	13.27
577.055	13.29
577.25	13.3
577.444	13.3
577.639	13.34
577.834	13.34
578.029	13.42
578.224	13.38
578.418	13.5
578.613	13.47
578.808	13.46
579.003	13.4
579.197	13.42
579.392	13.4
579.587	13.39
579.781	13.39
579.976	13.46
580.171	13.43
580.365	13.45
580.56	13.39
580.755	13.47
580.949	13.53
581.144	13.6
581.338	13.61
581.533	13.72
581.727	13.72
581.922	13.73
582.116	13.7
582.311	13.75
582.505	13.81
582.7	13.89
582.894	13.92
583.089	13.89
583.283	13.93
583.478	13.96
583.672	13.93
583.866	13.98
584.061	14
584.255	14.07
584.449	14.05
584.644	14.06
584.838	14.01
585.032	14.06
585.226	14.06
585.421	14.1
585.615	14.16
585.809	14.23
586.003	14.25
586.198	14.23
586.392	14.21
586.586	14.25
586.78	14.24
586.974	14.3
587.168	14.2
587.363	14.25
587.557	14.23
587.751	14.26
587.945	14.24
588.139	14.34
588.333	14.37
588.527	14.45
588.721	14.49
588.915	14.58
589.109	14.6
589.303	14.72
589.497	14.73
589.691	14.69
589.885	14.65
590.079	14.69
590.273	14.59
590.466	14.61
590.66	14.56
590.854	14.55
591.048	14.52
591.242	14.5
591.436	14.4
591.629	14.43
591.823	14.5
592.017	14.55
592.211	14.48
592.404	14.49
592.598	14.49
592.792	14.49
592.986	14.44
593.179	14.49
593.373	14.52
593.567	14.57
593.76	14.59
593.954	14.63
594.147	14.64
594.341	14.7
594.535	14.77
594.728	14.78
594.922	14.78
595.115	14.84
595.309	14.79
595.502	14.82
595.696	14.85
595.889	14.78
596.083	14.77
596.276	14.72
596.47	14.73
596.663	14.72
596.856	14.74
597.05	14.81
597.243	14.73
597.437	14.75
597.63	14.72
597.823	14.74
598.017	14.84
598.21	14.89
598.403	14.94
598.596	15
598.79	15
598.983	15
599.176	14.95
599.369	15.04
599.563	15.12
599.756	15.18
599.949	15.21
600.142	15.2
600.335	15.15
600.528	15.23
600.722	15.19
600.915	15.24
601.108	15.25
601.301	15.29
601.494	15.37
601.687	15.32
601.88	15.35
602.073	15.31
602.266	15.28
602.459	15.29
602.652	15.21
602.845	15.22
603.038	15.19
603.231	15.2
603.424	15.13
603.617	15.09
603.809	15.11
604.002	15.08
604.195	15.14
604.388	15.19
604.581	15.2
604.774	15.24
604.966	15.16
605.159	15.14
605.352	15.12
605.545	15.22
605.737	15.23
605.93	15.23
606.123	15.24
606.316	15.24
606.508	15.23
606.701	15.33
606.894	15.31
607.086	15.44
607.279	15.53
607.471	15.54
607.664	15.51
607.857	15.54
608.049	15.63
608.242	15.67
608.434	15.68
608.627	15.75
608.819	15.76
609.012	15.85
609.204	15.97
609.397	16.05
609.589	16.09
609.782	16.24
609.974	16.35
610.166	16.42
610.359	16.59
610.551	16.64
610.743	16.65
610.936	16.72
611.128	16.76
611.32	16.72
611.513	16.73
611.705	16.75
611.897	16.68
612.09	16.65
612.282	16.55
612.474	16.41
612.666	16.42
612.858	16.45
613.051	16.41
613.243	16.37
613.435	16.31
613.627	16.3
613.819	16.35
614.011	16.5
614.203	16.45
614.395	16.47
614.588	16.38
614.78	16.32
614.972	16.38
615.164	16.3
615.356	16.27
615.548	16.23
615.74	16.23
615.932	16.15
616.124	15.98
616.315	16.03
616.507	16.08
616.699	16.1
616.891	16.1
617.083	15.98
617.275	16.07
617.467	16.1
617.659	16.19
617.85	16.14
618.042	16.22
618.234	16.2
618.426	16.22
618.618	16.23
618.809	16.28
619.001	16.22
619.193	16.27
619.384	16.23
619.576	16.26
619.768	16.2
619.959	16.17
620.151	16.14
620.343	16.21
620.534	16.19
620.726	16.09
620.917	16.08
621.109	16.13
621.301	16.12
621.492	16.1
621.684	16.15
621.875	16.18
622.067	16.27
622.258	16.24
622.45	16.14
622.641	16.07
622.832	16.11
623.024	16.08
623.215	16.14
623.407	16.08
623.598	16.09
623.789	16.05
623.981	16.04
624.172	16.08
624.363	16.16
624.555	16.27
624.746	16.34
624.937	16.34
625.129	16.36
625.32	16.42
625.511	16.5
625.702	16.46
625.893	16.43
626.085	16.47
626.276	16.39
626.467	16.38
626.658	16.36
626.849	16.33
627.04	16.4
627.231	16.45
627.422	16.35
627.614	16.3
627.805	16.33
627.996	16.34
628.187	16.37
628.378	16.34
628.569	16.33
628.76	16.29
628.951	16.2
629.142	16.13
629.332	16.13
629.523	16.19
629.714	16.22
629.905	16.29
630.096	16.35
630.287	16.31
630.478	16.42
630.669	16.42
630.859	16.5
631.05	16.57
631.241	16.67
631.432	16.72
631.623	16.85
631.813	16.9
632.004	16.81
632.195	16.76
632.385	16.75
632.576	16.77
632.767	16.79
632.957	16.75
633.148	16.78
633.339	16.69
633.529	16.59
633.72	16.36
633.91	16.37
634.101	16.27
634.292	16.25
634.482	16.19
634.673	16.23
634.863	16.25
635.054	16.27
635.244	16.19
635.435	16.26
635.625	16.29
635.815	16.37
636.006	16.36
636.196	16.48
636.387	16.45
636.577	16.59
636.767	16.54
636.958	16.56
637.148	16.53
637.338	16.62
637.529	16.62
637.719	16.66
637.909	16.79
638.099	16.87
638.29	16.84
638.48	16.97
638.67	16.96
638.86	17.03
639.05	17.04
639.241	17.03
639.431	17.04
639.621	17.06
639.811	17.05
640.001	17.01
640.191	16.95
640.381	16.93
640.571	16.88
640.761	16.8
640.951	16.72
641.141	16.64
641.331	16.71
641.521	16.62
641.711	16.61
641.901	16.62
642.091	16.57
642.281	16.56
642.471	16.67
642.661	16.77
642.851	16.86
643.041	16.93
643.231	16.97
643.42	16.95
643.61	17.09
643.8	17.07
643.99	17.06
644.18	17.04
644.369	17.08
644.559	17.07
644.749	17.05
644.939	17.02
645.128	16.93
645.318	16.89
645.508	16.91
645.697	16.91
645.887	17
646.076	16.98
646.266	16.98
646.456	16.99
646.645	17.05
646.835	16.99
647.024	17.03
647.214	17.11
647.403	17.17
647.593	17.14
647.782	17.13
647.972	17.07
648.161	17.17
648.351	17.23
648.54	17.31
648.73	17.26
648.919	17.23
649.108	17.14
649.298	17.16
649.487	17.21
649.677	17.1
649.866	17.16
650.055	17.16
650.244	17.16
650.434	17.22
650.623	17.14
650.812	17.09
651.002	17.13
651.191	17.25
651.38	17.23
651.569	17.22
651.758	17.35
651.947	17.37
652.137	17.36
652.326	17.31
652.515	17.29
652.704	17.31
652.893	17.29
653.082	17.35
653.271	17.29
653.46	17.28
653.649	17.26
653.838	17.36
654.027	17.36
654.216	17.42
654.405	17.43
654.594	17.39
654.783	17.49
654.972	17.54
655.161	17.56
655.35	17.52
655.539	17.51
655.728	17.57
655.916	17.41
656.105	17.41
656.294	17.34
656.483	17.3
656.672	17.31
656.86	17.21
657.049	17.21
657.238	17.21
657.427	17.34
657.615	17.3
657.804	17.32
657.993	17.36
658.181	17.37
658.37	17.4
658.559	17.46
658.747	17.38
658.936	17.34
659.125	17.44
659.313	17.39
659.502	17.36
659.69	17.42
659.879	17.4
660.067	17.46
660.256	17.4
660.444	17.47
660.633	17.43
660.821	17.59
661.01	17.65
661.198	17.59
661.387	17.68
661.575	17.59
661.763	17.65
661.952	17.64
662.14	17.64
662.328	17.74
662.517	17.68
662.705	17.65
662.893	17.58
663.082	17.69
663.27	17.69
663.458	17.7
663.646	17.79
663.834	17.7
664.023	17.69
664.211	17.71
664.399	17.68
664.587	17.72
664.775	17.74
664.963	17.76
665.152	17.76
665.34	17.79
665.528	17.63
665.716	17.6
665.904	17.63
666.092	17.7
666.28	17.67
666.468	17.51
666.656	17.48
666.844	17.66
667.032	17.72
667.22	17.69
667.408	17.65
667.596	17.9
667.784	17.97
667.971	17.95
668.159	17.93
668.347	17.89
668.535	18
668.723	18.03
668.911	17.98
669.098	17.97
669.286	17.89
669.474	17.82
669.662	17.71
669.849	17.65
670.037	17.68
670.225	17.59
670.413	17.58
670.6	17.51
670.788	17.5
670.976	17.41
671.163	17.48
671.351	17.51
671.538	17.58
671.726	17.58
671.913	17.66
672.101	17.69
672.289	17.77
672.476	17.87
672.664	17.92
672.851	18.01
673.039	18.05
673.226	17.93
673.413	17.97
673.601	17.98
673.788	18.02
673.976	17.91
674.163	17.99
674.35	17.98
674.538	18.05
674.725	18.01
674.912	17.89
675.1	17.99
675.287	18.03
675.474	18.03
675.662	18.09
675.849	18.14
676.036	18.2
676.223	18.19
676.411	18.17
676.598	18.08
676.785	18.13
676.972	18.1
677.159	18.03
677.346	18.03
677.533	17.99
677.721	17.94
677.908	17.9
678.095	17.87
678.282	17.87
678.469	17.92
678.656	18.03
678.843	18.14
679.03	18.21
679.217	18.32
679.404	18.24
679.591	18.22
679.778	18.33
679.964	18.4
680.151	18.52
680.338	18.59
680.525	18.47
680.712	18.4
680.899	18.34
681.086	18.37
681.272	18.27
681.459	18.37
681.646	18.45
681.833	18.33
682.02	18.27
682.206	18.25
682.393	18.25
682.58	18.45
682.766	18.55
682.953	18.55
683.14	18.64
683.326	18.66
683.513	18.61
683.7	18.67
683.886	18.69
684.073	18.67
684.259	18.55
684.446	18.6
684.632	18.54
684.819	18.41
685.005	18.4
685.192	18.28
685.378	18.3
685.565	18.27
685.751	18.16
685.938	18.16
686.124	18.3
686.31	18.43
686.497	18.35
686.683	18.35
686.87	18.5
687.056	18.59
687.242	18.65
687.429	18.67
687.615	18.73
687.801	18.84
687.987	18.93
688.174	18.85
688.36	18.71
688.546	18.64
688.732	18.61
688.918	18.5
689.105	18.46
689.291	18.37
689.477	18.4
689.663	18.52
689.849	18.38
690.035	18.37
690.221	18.31
690.407	18.55
690.593	18.67
690.779	18.64
690.965	18.5
691.151	18.57
691.337	18.56
691.523	18.6
691.709	18.7
691.895	18.86
692.081	18.85
692.267	18.97
692.453	18.73
692.639	18.77
692.825	18.79
693.011	19.01
693.196	18.96
693.382	19.07
693.568	19.03
693.754	18.92
693.94	18.89
694.125	18.92
694.311	18.93
694.497	19.02
694.682	18.96
694.868	18.91
695.054	18.92
695.239	18.92
695.425	18.94
695.611	18.91
695.796	18.8
695.982	18.69
696.168	18.65
696.353	18.54
696.539	18.59
696.724	18.44
696.91	18.51
697.095	18.48
697.281	18.54
697.466	18.47
697.652	18.47
697.837	18.5
698.023	18.52
698.208	18.49
698.393	18.53
698.579	18.43
698.764	18.39
698.949	18.31
699.135	18.32
699.32	18.23
699.505	18.29
699.691	18.24
699.876	18.19
700.061	18.24
700.246	18.36
700.432	18.26
700.617	18.27
700.802	18.47
700.987	18.7
701.172	18.55
701.358	18.52
701.543	18.64
701.728	18.73
701.913	18.98
702.098	19.11
702.283	18.98
702.468	19.19
702.653	19.35
702.838	19.51
703.023	19.37
703.208	19.6
703.393	19.65
703.578	19.55
703.763	19.48
703.948	19.45
704.133	19.32
704.318	19.39
704.503	19.24
704.688	19.25
704.873	18.91
705.057	18.97
705.242	18.93
705.427	19.02
705.612	19.07
705.797	19.22
705.981	19.12
706.166	19.26
706.351	19.1
706.536	19.11
706.72	19.1
706.905	19.35
707.09	19.39
707.274	19.35
707.459	19.36
707.644	19.34
707.828	19.27
708.013	19.18
708.197	19.22
708.382	19.44
708.567	19.59
708.751	19.64
708.936	19.46
709.12	19.49
709.305	19.56
709.489	19.6
709.673	19.56
709.858	19.48
710.042	19.61
710.227	19.5
710.411	19.55
710.596	19.47
710.78	19.39
710.964	19.57
711.149	19.57
711.333	19.58
711.517	19.42
711.702	19.51
711.886	19.63
712.07	19.63
712.254	19.68
712.438	19.66
712.623	19.71
712.807	19.66
712.991	19.6
713.175	19.62
713.359	19.57
713.544	19.6
713.728	19.54
713.912	19.49
714.096	19.49
714.28	19.44
714.464	19.46
714.648	19.4
714.832	19.48
715.016	19.57
715.2	19.42
715.384	19.54
715.568	19.49
715.752	19.34
715.936	19.42
716.12	19.32
716.304	19.29
716.488	19.19
716.671	19.17
716.855	19.37
717.039	19.38
717.223	19.51
717.407	19.51
717.59	19.78
717.774	19.91
717.958	19.94
718.142	19.98
718.325	20.03
718.509	20.15
718.693	20.21
718.877	19.99
719.06	19.81
719.244	19.82
719.428	19.73
719.611	19.47
719.795	19.59
719.978	19.8
720.162	19.75
720.345	19.67
720.529	19.64
720.713	19.72
720.896	19.83
721.08	19.81
721.263	19.97
721.446	20.07
721.63	20.25
721.813	20.2
721.997	20.13
722.18	20.28
722.364	20.39
722.547	20.29
722.73	20.24
722.914	20.04
723.097	20.15
723.28	20.14
723.464	20.04
723.647	20.08
723.83	20.21
724.013	20.24
724.197	20.27
724.38	20.37
724.563	20.62
724.746	20.6
724.929	21.01
725.112	21.17
725.296	21
725.479	21.11
725.662	21.1
725.845	20.98
726.028	20.82
726.211	20.82
726.394	20.83
726.577	20.57
726.76	20.48
726.943	20.25
727.126	20.06
727.309	20.15
727.492	20.16
727.675	20.28
727.858	20.16
728.041	20.22
728.224	20.26
728.407	20.05
728.589	20.21
728.772	20.15
728.955	20.13
729.138	20.29
729.321	19.95
729.503	20.03
729.686	19.97
729.869	20.08
730.052	19.98
730.234	19.82
730.417	19.97
730.6	19.98
730.782	20.06
730.965	20.04
731.148	20.02
731.33	20.31
731.513	20.21
731.695	20.07
731.878	20.09
732.061	19.96
732.243	20.13
732.426	19.83
732.608	19.89
732.791	20.16
732.973	20.18
733.156	20.14
733.338	20.13
733.52	20.04
733.703	20.2
733.885	20.28
734.068	20.54
734.25	20.55
734.432	20.79
734.615	20.42
734.797	19.99
734.979	19.84
735.162	19.87
735.344	19.9
735.526	20.07
735.708	19.9
735.891	19.73
736.073	19.72
736.255	19.75
736.437	19.65
736.619	19.94
736.802	20.17
736.984	20.4
737.166	20.45
737.348	20.45
737.53	20.34
737.712	20.3
737.894	20.43
738.076	20.24
738.258	20.04
738.44	20.27
738.622	20.35
738.804	20.24
738.986	20.17
739.168	20.02
739.35	20.07
739.532	20.03
739.714	20.33
739.896	20.35
740.078	20.47
740.259	20.57
740.441	20.36
740.623	20.32
740.805	20.53
740.987	20.43
741.168	20.43
741.35	20.28
741.532	20.28
741.714	20.1
741.895	19.97
742.077	20.04
742.259	20
742.44	20.29
742.622	20.44
742.804	20.06
742.985	20.33
743.167	20.33
743.348	20.39
743.53	20.37
743.711	20.48
743.893	20.68
744.075	20.41
744.256	20.46
744.438	20.22
744.619	20.02
744.8	20.36
744.982	20.28
745.163	19.89
745.345	20.01
745.526	20.29
745.707	20.3
745.889	20.18
746.07	20.49
746.252	20.92
746.433	21.01
746.614	20.89
746.795	20.42
746.977	20.52
747.158	21.02
747.339	20.97
747.52	20.98
747.702	20.73
747.883	20.61
748.064	20.59
748.245	20
748.426	20
748.607	20.12
748.788	20.39
748.97	20.33
749.151	20.34
749.332	20.15
749.513	20.05
749.694	20.5
749.875	20.69
750.056	20.88
750.237	21
750.418	21.06
750.599	21.17
750.78	21.57
750.96	21.62
751.141	21.54
751.322	21.49
751.503	21.68
751.684	21.5
751.865	21.1
752.046	20.74
752.226	20.79
752.407	20.82
752.588	20.87
752.769	20.62
752.949	20.37
753.13	20.22
753.311	20.33
753.492	20.03
753.672	20.22
753.853	20.91
754.034	21.13
754.214	21.31
754.395	21.33
754.575	21.4
754.756	21.33
754.937	21.45
755.117	21.81
755.298	21.98
755.478	21.84
755.659	21.81
755.839	21.37
756.02	21.46
756.2	21.31
756.381	21.02
756.561	20.86
756.741	21.22
756.922	21.33
757.102	21.43
757.283	21.58
757.463	21.64
757.643	21.39
757.823	21.5
758.004	21.02
758.184	20.91
758.364	21.52
758.545	21.63
758.725	21.34
758.905	21.23
759.085	21.04
759.265	21.05
759.446	21.04
759.626	20.9
759.806	20.9
759.986	21.25
760.166	21.45
760.346	21.09
760.526	21
760.706	21.08
760.886	21.14
761.066	21.18
761.246	20.83
761.426	21.14
761.606	21.01
761.786	20.91
761.966	20.91
762.146	20.7
762.326	20.79
762.506	20.9
762.686	21.07
762.866	21.03
763.046	21.01
763.225	21.28
763.405	21.03
763.585	21.15
763.765	21.17
763.945	20.95
764.124	20.97
764.304	21.12
764.484	20.94
764.664	20.58
764.843	20.69
765.023	20.51
765.203	20.31
765.382	20.29
765.562	20.35
765.741	20.33
765.921	20.61
766.101	20.75
766.28	20.45
766.46	20.44
766.639	20.66
766.819	20.71
766.998	20.93
767.178	21.01
767.357	21.06
767.537	21.23
767.716	21.5
767.896	21.46
768.075	21.49
768.254	21.33
768.434	21.64
768.613	21.99
768.792	21.83
768.972	21.91
769.151	22.02
769.33	22.02
769.51	21.93
769.689	22.09
769.868	22.45
770.047	22.84
770.226	23.02
770.406	22.97
770.585	22.51
770.764	22.63
770.943	22.77
771.122	22.49
771.301	22.8
771.48	22.91
771.66	22.8
771.839	22.34
772.018	21.6
772.197	21.6
772.376	21.41
772.555	21.75
772.734	21.78
772.913	21.7
773.092	21.48
773.271	21.06
773.449	21.11
773.628	21.12
773.807	21.2
773.986	21.61
774.165	21.44
774.344	21.47
774.523	20.88
774.701	20.67
774.88	20.61
775.059	20.72
775.238	21.13
775.417	21.26
775.595	21.09
775.774	21.12
775.953	21.16
776.131	21.13
776.31	21.06
776.489	21.42
776.667	21.21
776.846	20.8
777.025	21.09
777.203	20.71
777.382	20.71
777.56	20.57
777.739	20.52
777.917	20.34
778.096	20.83
778.274	21.37
778.453	21.44
778.631	21.68
778.81	21.99
778.988	21.92
779.166	21.8
779.345	21.65
779.523	21.97
779.702	22.23
779.88	22.4
780.058	21.91
780.237	21.7
780.415	21.94
780.593	21.85
780.771	22.22
780.95	22.77
781.128	22.78
781.306	22.95
781.484	22.87
781.662	22.43
781.841	22.4
782.019	22.49
782.197	22.42
782.375	22.07
782.553	22.51
782.731	22.34
782.909	21.94
783.087	22.98
783.265	22.94
783.443	23.08
783.621	23.27
783.799	23.26
783.977	23.63
784.155	23.39
784.333	24.26
784.511	23.98
784.689	24
784.867	24.07
785.045	23.36
785.223	23.14
785.4	22.48
785.578	22.09
785.756	21.54
785.934	20.95
786.112	21.12
786.289	20.41
786.467	20.53
786.645	20.35
786.823	20.39
787	20.63
787.178	20.81
787.356	21.31
787.533	21.91
787.711	22.33
787.889	22.65
788.066	22.46
788.244	22.34
788.421	22.38
788.599	22.07
788.776	22.11
788.954	22.06
789.131	21.82
789.309	21.71
789.486	21.85
789.664	22.13
789.841	22.38
790.019	22.62
790.196	23.06
790.373	22.84
790.551	23.6
790.728	23.35
790.906	24.04
791.083	24.04
791.26	24.24
791.437	24.01
791.615	23.51
791.792	23.35
791.969	23.44
792.146	23.31
792.324	23.99
792.501	24.24
792.678	24.43
792.855	23.42
793.032	23.47
793.209	23.27
793.387	23.08
793.564	23.56
793.741	23.38
793.918	23.02
794.095	22.54
794.272	22.23
794.449	21.58
794.626	21.92
794.803	22.47
794.98	22.44
795.157	22.48
795.334	22.66
795.511	22.26
795.688	22.72
795.864	23.03
796.041	23.14
796.218	23.28
796.395	23.48
796.572	23.14
796.749	22.64
796.925	22.59
797.102	23.08
797.279	23.35
797.456	23.41
797.632	22.98
797.809	23.5
797.986	23.47
798.162	23.19
798.339	22.91
798.516	23.41
798.692	24.07
798.869	24.1
799.046	23.52
799.222	23.35
799.399	23.57
799.575	23.62
799.752	23.17
799.928	23.43
800.105	23.36
800.281	23.3
800.458	22.6
800.634	22.05
800.811	22.37
800.987	21.96
801.163	21.87
801.34	22.1
801.516	22.44
801.692	23.01
801.869	23.57
802.045	23.55
802.221	23.75
802.398	23.34
802.574	23.4
802.75	23.86
802.926	24.39
803.103	24.74
803.279	24.08
803.455	23.79
803.631	23.11
803.807	22.27
803.983	23.02
804.16	23.52
804.336	24.36
804.512	24.9
804.688	24.59
804.864	24.96
805.04	24.6
805.216	25.45
805.392	26.13
805.568	25.87
805.744	26.15
805.92	26.19
806.096	26.27
806.272	26.63
806.448	27.1
806.623	26.81
806.799	26.47
806.975	26.55
807.151	26.44
807.327	25.14
807.503	25.05
807.678	25.04
807.854	24.64
808.03	23.95
808.206	23.71
808.381	23.1
808.557	23.42
808.733	23.36
808.908	22.48
809.084	22.92
809.26	23.57
809.435	24.01
809.611	24.43
809.787	23.79
809.962	23.71
810.138	23.51
810.313	23.62
810.489	22.63
810.664	22.96
810.84	23.22
811.015	23.05
811.191	22.36
811.366	22.31
811.542	21.96
811.717	22.57
811.892	23.19
812.068	23.35
812.243	23.22
812.419	23.97
812.594	24.05
812.769	24.87
812.944	24.62
813.12	25.86
813.295	25.7
813.47	26.13
813.645	26.38
813.821	26.37
813.996	26.47
814.171	27.29
814.346	27.29
814.521	27.63
814.697	27.57
814.872	28.19
815.047	27.87
815.222	28.76
815.397	27.54
815.572	26.56
815.747	26.65
815.922	26.34
816.097	26.03
816.272	26.5
816.447	25.88
816.622	25.87
816.797	24.97
816.972	24.99
817.147	24.55
817.322	24.82
817.496	25.5
817.671	25.58
817.846	25.29
818.021	24.51
818.196	23.91
818.371	23.89
818.545	23.62
818.72	23.74
818.895	23.77
819.069	23.15
819.244	24.04
819.419	23.84
819.594	23.54
819.768	23.44
819.943	23.4
820.117	23.41
820.292	23.01
820.467	23.15
820.641	22.99
820.816	22.81
820.99	22.75
821.165	22.35
821.339	22.37
821.514	22.34
821.688	22.37
821.863	22.15
822.037	21.84
822.212	21.92
822.386	21.77
822.56	21.67
822.735	21.76
822.909	21.8
823.084	21.79
823.258	21.67
823.432	21.61
823.606	21.71
823.781	21.93
823.955	22.39
824.129	22.28
824.303	22.27
824.478	22.32
824.652	22.16
824.826	22.16
825	22.18
825.174	22.12
825.348	21.83
825.523	21.49
825.697	21.53
825.871	21.51
826.045	21.97
826.219	21.9
826.393	22.11
826.567	22.17
826.741	22.25
826.915	22.39
827.089	22.61
827.263	22.85
827.437	22.93
827.611	22.91
827.784	23
827.958	22.96
828.132	23.23
828.306	23.11
828.48	23.29
828.654	23.19
828.827	23.18
829.001	22.95
829.175	23.15
829.349	23.59
829.522	23.46
829.696	23.47
829.87	23.56
830.044	23.81
830.217	24.39
830.391	23.99
830.565	23.74
830.738	24.22
830.912	24.48
831.085	24.66
831.259	24.86
831.432	25.04
831.606	24.67
831.779	24.06
831.953	23.68
832.126	23.65
832.3	23.58
832.473	23.33
832.647	22.94
832.82	22.82
832.994	22.7
833.167	22.38
833.34	22.49
833.514	22.33
833.687	22.45
833.86	22.9
834.034	22.56
834.207	22.49
834.38	22.77
834.553	22.77
834.727	23.03
834.9	22.82
835.073	22.85
835.246	22.97
835.419	23.35
835.593	22.91
835.766	22.72
835.939	23.85
836.112	23.7
836.285	24.68
836.458	25.38
836.631	25.37
836.804	25.83
836.977	25.42
837.15	24.36
837.323	24.71
837.496	25.62
837.669	24.98
837.842	23.64
838.015	24.37
838.188	23.26
838.361	22.04
838.533	21.32
838.706	22.57
838.879	23.17
839.052	24.26
839.225	24.44
839.398	24.7
839.57	25.4
839.743	25.75
839.916	25.44
840.088	26.09
840.261	27.14
840.434	28.1
840.607	26.97
840.779	28.15
840.952	27.58
841.124	27.35
841.297	27.73
841.47	27.58
841.642	28.51
841.815	29.74
841.987	29.48
842.16	29.35
842.332	29.78
842.505	30.59
842.677	29.14
842.85	29.87
843.022	31.21
843.194	30.6
843.367	30.65
843.539	29.23
843.712	29.03
843.884	29.91
844.056	30.24
844.229	31
844.401	31.04
844.573	32.23
844.745	33.37
844.918	31.08
845.09	30.62
845.262	29.73
845.434	30.38
845.606	30.89
845.779	31.39
845.951	32.21
846.123	30.51
846.295	31.11
846.467	29.87
846.639	30.01
846.811	30.32
846.983	30.96
847.155	33.68
847.327	32.63
847.499	30.81
847.671	29.15
847.843	28.92
848.015	29.98
848.187	29.66
848.359	29.91
848.531	28.59
848.703	28.63
848.875	27.2
849.047	25.24
849.218	26.95
849.39	28.1
849.562	29.51
849.734	29.41
849.905	29.98
850.077	29.88
850.249	32.1
850.421	32.25
850.592	31.02
850.764	33.18
850.936	34.37
851.107	33.81
851.279	33.67
851.451	31.65
851.622	31.89
851.794	31.59
851.965	32.18
852.137	30.13
852.308	31.98
852.48	35.15
852.651	33.82
852.823	34.87
852.994	34.62
853.166	36.49
853.337	38.2
853.509	36.94
853.68	37.04
853.851	35.48
854.023	35.04
854.194	33.53
854.365	34.11
854.537	36.12
854.708	33.24
854.879	33.78
855.05	32.5
855.222	33.14
855.393	33.79
855.564	32.19
855.735	31.61
855.906	30.72
856.078	30.08
856.249	30.16
856.42	29.77
856.591	31.97
856.762	32.21
856.933	31.88
857.104	29.76
857.275	30.93
857.446	31.62
857.617	32.36
857.788	36.07
857.959	36.69
858.13	35.33
858.301	35
858.472	32.58
858.643	32.79
858.814	33.47
858.985	35.81
859.155	36.93
859.326	38.43
859.497	38.91
859.668	36.2
859.839	38.49
860.009	38.35
860.18	38.36
860.351	37.7
860.522	35.77
860.692	33.2
860.863	31.28
861.034	29.11
861.204	28.45
861.375	27.85
861.546	27.54
861.716	24.45
861.887	27.2
862.057	26.8
862.228	28.04
862.398	29.11
862.569	31.9
862.739	33.35
862.91	33.86
863.08	32.77
863.251	33.91
863.421	34.46
863.592	36.72
863.762	36.77
863.932	37.42
864.103	38.24
864.273	37.34
864.443	37.01
864.614	36.49
864.784	35.51
864.954	35.5
865.125	37.4
865.295	37.94
865.465	36.58
865.635	33
865.805	31.96
865.976	31.52
866.146	35.13
866.316	35.42
866.486	35.03
866.656	34.62
866.826	33.73
866.996	29.91
867.166	30.35
867.336	30.49
867.506	32.67
867.676	33.42
867.846	34.44
868.016	30.37
868.186	29.5
868.356	29.68
868.526	28.86
868.696	30.27
868.866	33.47
869.036	33.93
869.206	32.81
869.376	31.5
869.545	31.56
869.715	29.49
869.885	29.77
870.055	30.63
870.224	31.28
870.394	34.59
870.564	36.77
870.734	36.78
870.903	37.26
871.073	35.97
871.243	37.14
871.412	39.2
871.582	40.34
871.751	41.12
871.921	42.7
872.091	41.07
872.26	40.56
872.43	37.47
872.599	37.96
872.769	36.6
872.938	38.95
873.108	38.6
873.277	35.27
873.446	34.83
873.616	35.24
873.785	34.73
873.955	36.28
874.124	34.69
874.293	35.47
874.463	34.26
874.632	36.41
874.801	35.93
874.971	33.88
875.14	34.9
875.309	34.17
875.478	35.06
875.647	32.26
875.817	30.32
875.986	30.67
876.155	32.49
876.324	33.49
876.493	32.33
876.662	31.24
876.831	32.08
877	34.09
877.17	35.51
877.339	35.79
877.508	37.23
877.677	39.5
877.846	38.68
878.015	38.71
878.184	38.22
878.352	36.29
878.521	36.81
878.69	36.99
878.859	35.53
879.028	34.13
879.197	32.9
879.366	30.63
879.534	29.08
879.703	27.89
879.872	27.21
880.041	26.86
880.21	26.64
880.378	25.66
880.547	24.76
880.716	24.84
880.884	24.68
881.053	24.1
881.222	24.2
881.39	24.22
881.559	24.6
881.727	24.68
881.896	24.02
882.065	24.38
882.233	24.61
882.402	24.82
882.57	24.84
882.739	24.64
882.907	24.79
883.076	24.81
883.244	24.88
883.412	25.27
883.581	25.22
883.749	25.61
883.918	24.86
884.086	25.16
884.254	25.63
884.423	25.74
884.591	26.19
884.759	25.96
884.927	26.46
885.096	26.49
885.264	26.96
885.432	27.75
885.6	27.32
885.769	27.19
885.937	27.21
886.105	27.77
886.273	27.8
886.441	27.17
886.609	29.3
886.777	30.52
886.945	30.85
887.113	29.63
887.281	27.72
887.449	30.14
887.617	32.52
887.785	33.03
887.953	31.9
888.121	30.26
888.289	32.1
888.457	30
888.625	29.08
888.793	30.24
888.961	30.56
889.129	32.02
889.296	33.65
889.464	33.39
889.632	34.11
889.8	34.66
889.967	36.98
890.135	38.38
