Data from JASIL_3059_Reflection_01.txt Node
Date: Mon Nov 09 11:28:45 EST 2015
User: Geneva
Spectrometer: USB4E03002
Autoset integration time: false
Trigger mode: 4
Integration Time (sec): 1.000000E-1
Scans to average: 10
Electric dark correction enabled: false
Nonlinearity correction enabled: false
Boxcar width: 5
Stray light correction enabled: false
XAxis mode: Wavelengths
Stop averaging: false
Number of Pixels in Spectrum: 3648
>>>>>Begin Spectral Data<<<<<
177.575	14.49
177.794	53.66
178.014	59.49
178.233	50.34
178.452	60.67
178.672	53.75
178.891	40.16
179.11	50.1
179.33	37.98
179.549	47.99
179.768	47.47
179.987	42.2
180.207	26.8
180.426	66.13
180.645	37.84
180.864	117.24
181.084	36.96
181.303	79.39
181.522	-50
181.741	-29.41
181.96	160.81
182.179	34.37
182.398	42.27
182.618	48.65
182.837	300
183.056	53.33
183.275	38.56
183.494	35.88
183.713	34.55
183.932	3.79
184.151	-19.49
184.37	7.14
184.589	-658.06
184.808	318.71
185.027	-566.67
185.246	-683.82
185.465	483.81
185.684	381.82
185.903	198.1
186.122	224.53
186.341	165.5
186.56	191.53
186.779	62.08
186.998	72.22
187.216	-35.37
187.435	9.92
187.654	87.9
187.873	118.92
188.092	213.82
188.311	250.81
188.53	154.7
188.748	239.38
188.967	156.05
189.186	513.19
189.405	-10250
189.623	1257.89
189.842	158.19
190.061	84.75
190.28	49.66
190.498	69.23
190.717	-89.19
190.936	38.83
191.154	32.11
191.373	2.78
191.592	-16.74
191.81	0.56
192.029	-9.09
192.248	8.53
192.466	-10.68
192.685	-4.1
192.904	10
193.122	15.05
193.341	63.72
193.559	335.56
193.778	-1233.33
193.996	117.52
194.215	83.8
194.433	55.96
194.652	45.78
194.87	38.96
195.089	-28.8
195.307	73.8
195.526	-212.12
195.744	1007.69
195.963	141.05
196.181	167.2
196.399	48.88
196.618	88.7
196.836	259.52
197.055	69.91
197.273	9.49
197.491	21.48
197.71	56.18
197.928	92
198.146	179.81
198.365	89
198.583	86.01
198.801	20.05
199.019	-26.98
199.238	2.25
199.456	-70.21
199.674	8.94
199.892	32.78
200.111	31.15
200.329	30
200.547	57.31
200.765	33.63
200.983	29.76
201.202	64.66
201.42	83.26
201.638	-10.08
201.856	140
202.074	276.58
202.292	164.46
202.51	-7900
202.728	-522.73
202.946	343.64
203.165	4611.11
203.383	-1395
203.601	351.88
203.819	482.11
204.037	2417.65
204.255	-530
204.473	-493.65
204.691	-216.89
204.909	-95.4
205.127	-1317.86
205.345	-238.85
205.562	286
205.78	3758.33
205.998	-209.74
206.216	-1218.18
206.434	641.94
206.652	-485.11
206.87	322.99
207.088	143.08
207.306	179.86
207.523	622.5
207.741	375.62
207.959	3314.29
208.177	317.65
208.395	179.64
208.612	231.34
208.83	158.72
209.048	81.98
209.266	89.06
209.483	61.48
209.701	55.11
209.919	71.27
210.136	78.96
210.354	121.54
210.572	204.04
210.79	-503.57
211.007	6900
211.225	865.52
211.442	-16100
211.66	-110.36
211.878	-12.1
212.095	20.4
212.313	47.73
212.53	61.76
212.748	78.27
212.966	105.88
213.183	1031.82
213.401	-807.41
213.618	143.82
213.836	111.49
214.053	121.85
214.271	-933.33
214.488	266.67
214.705	-170.27
214.923	-1
215.14	17.74
215.358	3.31
215.575	11.68
215.793	3.51
216.01	-6.73
216.227	13.46
216.445	-10.13
216.662	8.61
216.879	9.09
217.097	-14.81
217.314	-506.82
217.531	613.73
217.749	195.97
217.966	90.69
218.183	52.43
218.4	18.08
218.618	153.67
218.835	87.46
219.052	70.39
219.269	91.77
219.487	1162.5
219.704	496.3
219.921	142.5
220.138	142.47
220.355	171.33
220.572	258.37
220.79	340.29
221.007	269.12
221.224	-710.94
221.441	-4800
221.658	676.29
221.875	279.48
222.092	241.34
222.309	690
222.526	-7514.29
222.743	430.16
222.96	200.4
223.177	116.03
223.394	145.58
223.611	105.77
223.828	104.34
224.045	79.59
224.262	61.07
224.479	36.32
224.696	50.4
224.913	37
225.13	32.84
225.347	27.4
225.564	32.85
225.781	24.32
225.997	23.41
226.214	23.3
226.431	17.79
226.648	20.52
226.865	26.99
227.082	18.26
227.298	21.66
227.515	19.1
227.732	24.56
227.949	27.89
228.165	21.57
228.382	17.12
228.599	15.56
228.816	23.84
229.032	24.68
229.249	29.64
229.466	32.87
229.682	22.21
229.899	23.75
230.116	27.01
230.332	23.29
230.549	34.38
230.765	37.69
230.982	43.84
231.199	42.49
231.415	43.43
231.632	42.99
231.848	47.47
232.065	66.19
232.281	78.69
232.498	65.94
232.714	63.22
232.931	61.55
233.147	51.56
233.364	44.27
233.58	43.71
233.797	49.91
234.013	44.74
234.23	43.98
234.446	39.38
234.662	10.43
234.879	31.76
235.095	25.05
235.312	31.89
235.528	43.58
235.744	51.74
235.961	61.05
236.177	52.51
236.393	47.97
236.61	40.21
236.826	33.19
237.042	40.83
237.258	41.66
237.475	52.43
237.691	58.57
237.907	64.32
238.123	64.57
238.339	56.53
238.556	45.84
238.772	40.49
238.988	43.38
239.204	44.41
239.42	40.54
239.636	40.45
239.853	32.56
240.069	22.28
240.285	15.08
240.501	13.26
240.717	10.04
240.933	13.09
241.149	13.48
241.365	17.47
241.581	14.46
241.797	14.66
242.013	11.95
242.229	11.57
242.445	11.69
242.661	12.49
242.877	10.31
243.093	9.82
243.309	4.1
243.525	6.4
243.741	2.53
243.957	15.85
244.173	15.61
244.388	15.64
244.604	18.39
244.82	18.83
245.036	19.04
245.252	19.6
245.468	18.85
245.683	20.06
245.899	17.63
246.115	15.74
246.331	8.63
246.547	9.62
246.762	8.74
246.978	4.6
247.194	-0.33
247.409	-5.96
247.625	-7.24
247.841	-10.68
248.057	-7.22
248.272	-4.89
248.488	-1.62
248.703	2.57
248.919	-0.26
249.135	-1.69
249.35	9.07
249.566	21.01
249.782	23.56
249.997	19.57
250.213	23.34
250.428	19.55
250.644	22.58
250.859	22.16
251.075	19.67
251.29	20.06
251.506	25.53
251.721	26.82
251.937	24.75
252.152	30.58
252.368	31.74
252.583	28.61
252.798	31.49
253.014	31.1
253.229	26.9
253.445	32.57
253.66	38.06
253.875	29.35
254.091	23.57
254.306	26.25
254.521	20.33
254.737	21.2
254.952	28.28
255.167	31.51
255.383	27.64
255.598	27.75
255.813	31.51
256.028	25.57
256.244	26.24
256.459	25.27
256.674	16.5
256.889	15.42
257.104	18.12
257.32	13.88
257.535	8.6
257.75	6.33
257.965	6.13
258.18	2.24
258.395	5.15
258.61	4.87
258.826	3.62
259.041	5.57
259.256	5.62
259.471	3.15
259.686	2.04
259.901	1.07
260.116	2.59
260.331	1.4
260.546	2.71
260.761	0.6
260.976	2.57
261.191	3.04
261.406	6.47
261.621	11.39
261.836	13.11
262.05	10.12
262.265	9.93
262.48	12.8
262.695	14.23
262.91	15.54
263.125	10.23
263.34	8
263.555	9.75
263.769	0.91
263.984	-3.16
264.199	-3.53
264.414	5.27
264.629	7.36
264.843	3.87
265.058	7.64
265.273	5.32
265.488	8.94
265.702	11.91
265.917	13.07
266.132	15.78
266.346	16.42
266.561	17.3
266.776	16.85
266.99	15.55
267.205	14.73
267.42	12.6
267.634	14.93
267.849	15.16
268.063	11.85
268.278	7.91
268.492	10.52
268.707	12.46
268.922	9.85
269.136	5.18
269.351	3.54
269.565	2.01
269.78	3.2
269.994	3.39
270.209	1.87
270.423	1.45
270.637	3.97
270.852	0.96
271.066	-0.38
271.281	0.8
271.495	4.91
271.709	6.46
271.924	8.31
272.138	8.02
272.353	5.85
272.567	7.13
272.781	8.74
272.996	6.08
273.21	8.94
273.424	8.36
273.638	9.65
273.853	6.79
274.067	4.89
274.281	7.62
274.495	5.91
274.71	9.52
274.924	7.55
275.138	9.16
275.352	13.13
275.566	11.17
275.781	11.23
275.995	10.97
276.209	8.22
276.423	8.28
276.637	6.67
276.851	6.73
277.065	5.02
277.279	10.49
277.493	7.52
277.707	5.88
277.921	2.13
278.135	4.26
278.349	3.66
278.563	4.87
278.777	8.1
278.991	8.43
279.205	8.79
279.419	11.42
279.633	9.61
279.847	11.46
280.061	9.38
280.275	12.95
280.489	9.82
280.703	9.42
280.917	10.28
281.131	9.16
281.344	10.23
281.558	11.49
281.772	8.15
281.986	9.95
282.2	6.71
282.414	5.97
282.627	5.3
282.841	6.9
283.055	5.72
283.269	8.65
283.482	7.56
283.696	4.8
283.91	3.07
284.123	4.79
284.337	3.32
284.551	5.62
284.764	6.4
284.978	3.17
285.192	-0.19
285.405	-0.08
285.619	0.8
285.833	1.77
286.046	3.85
286.26	4.54
286.473	4.01
286.687	-0.29
286.9	-0.58
287.114	-0.02
287.327	1.57
287.541	5.08
287.754	8.12
287.968	7.54
288.181	9.74
288.395	8.08
288.608	7.71
288.822	8.79
289.035	11.52
289.248	8.34
289.462	6.4
289.675	9.9
289.889	10.06
290.102	7.73
290.315	3.63
290.529	0.39
290.742	-1.91
290.955	-2.83
291.169	-3.37
291.382	-3.15
291.595	0.49
291.808	5.63
292.022	9.56
292.235	11.14
292.448	11.73
292.661	15.19
292.875	18.98
293.088	19.92
293.301	21.55
293.514	20.93
293.727	20.35
293.94	19.19
294.153	15.17
294.367	11.82
294.58	7.7
294.793	6.99
295.006	5.13
295.219	2.31
295.432	3.9
295.645	1.79
295.858	1.56
296.071	1.61
296.284	1.61
296.497	3.74
296.71	3.94
296.923	4.48
297.136	4.88
297.349	4.4
297.562	4.16
297.775	4.47
297.988	7.27
298.201	7.95
298.414	6.17
298.626	8.15
298.839	4.13
299.052	2.64
299.265	5.55
299.478	6.98
299.691	6.24
299.903	7.07
300.116	6.17
300.329	4.38
300.542	4.1
300.755	5.63
300.967	4.75
301.18	9.34
301.393	9.32
301.605	9.93
301.818	6.46
302.031	8.23
302.243	8.19
302.456	8.5
302.669	9.77
302.881	7.35
303.094	9.99
303.307	8.84
303.519	6.57
303.732	7.25
303.944	5.49
304.157	8.19
304.37	8.83
304.582	9.26
304.795	9.32
305.007	5.08
305.22	7.2
305.432	4.4
305.645	4.47
305.857	5.09
306.069	5.04
306.282	3.47
306.494	3.47
306.707	1.15
306.919	0.83
307.132	0.71
307.344	3.99
307.556	4.95
307.769	9.24
307.981	11.49
308.193	11.06
308.406	11.78
308.618	12.44
308.83	12.59
309.043	11.87
309.255	13.41
309.467	11.92
309.679	12.56
309.892	11.65
310.104	9.45
310.316	10.4
310.528	10.84
310.74	9.98
310.953	9.74
311.165	7.34
311.377	8.99
311.589	4.85
311.801	7.84
312.013	4.95
312.225	4.96
312.437	6.51
312.649	5.33
312.862	4.42
313.074	8.57
313.286	9.29
313.498	12.78
313.71	14.17
313.922	17.27
314.134	14.94
314.346	15.93
314.558	19.47
314.77	17.93
314.982	18.95
315.193	17.06
315.405	14.52
315.617	13.66
315.829	12.71
316.041	11.33
316.253	9.11
316.465	8.33
316.677	10.22
316.888	6.53
317.1	6.99
317.312	4.08
317.524	5.63
317.736	4.68
317.947	5.46
318.159	5.29
318.371	4.36
318.583	2.8
318.794	6.86
319.006	5.44
319.218	3.33
319.43	7.27
319.641	10.33
319.853	12.95
320.064	13.09
320.276	17.31
320.488	20.09
320.699	22.56
320.911	27.35
321.123	26.82
321.334	27.05
321.546	27.84
321.757	25.21
321.969	22.95
322.18	22.46
322.392	21.62
322.603	17.8
322.815	16.29
323.026	14.54
323.238	15.85
323.449	13.51
323.661	13.31
323.872	13.06
324.083	10.13
324.295	10.09
324.506	11.72
324.718	11.9
324.929	11.41
325.14	10.59
325.352	13.21
325.563	9.24
325.774	13.75
325.986	15.65
326.197	18.26
326.408	19.43
326.62	20.6
326.831	20.01
327.042	18.58
327.253	19.13
327.464	20.42
327.676	18.24
327.887	21.88
328.098	17.94
328.309	18.64
328.52	19.01
328.732	18.27
328.943	14.76
329.154	17.3
329.365	19.48
329.576	19.62
329.787	17.02
329.998	20.37
330.209	16.47
330.42	17.03
330.631	15.37
330.842	14.97
331.053	17.61
331.264	16.77
331.475	12.61
331.686	12.05
331.897	11.79
332.108	14.41
332.319	12.91
332.53	15.06
332.741	15.91
332.952	14.3
333.163	12.83
333.374	10.56
333.585	15.17
333.795	17.24
334.006	16.98
334.217	16.42
334.428	17.14
334.639	16.56
334.849	13.99
335.06	14.65
335.271	14.23
335.482	14.17
335.692	15.93
335.903	15.06
336.114	11.41
336.325	10.26
336.535	9.75
336.746	5.63
336.957	4.54
337.167	11.51
337.378	11.47
337.589	13.54
337.799	14.19
338.01	11.26
338.22	9.63
338.431	11.62
338.642	11.69
338.852	14.43
339.063	18.24
339.273	21.17
339.484	15.87
339.694	13.29
339.905	13.85
340.115	14.07
340.326	16.21
340.536	17.31
340.746	20.71
340.957	22.58
341.167	22.3
341.378	21.28
341.588	18.1
341.799	18.85
342.009	20.34
342.219	19.54
342.43	19.99
342.64	19.41
342.85	17.85
343.061	16.66
343.271	15.78
343.481	15.94
343.691	15.18
343.902	16.79
344.112	17.59
344.322	16.44
344.532	15.13
344.743	14.25
344.953	14.92
345.163	14.92
345.373	12.83
345.583	13.5
345.793	12.93
346.004	12.71
346.214	11.64
346.424	11.62
346.634	11.27
346.844	10.63
347.054	11.3
347.264	8.1
347.474	9.03
347.684	8.59
347.894	8.46
348.104	7.6
348.314	8.22
348.524	6.51
348.734	3.76
348.944	5.65
349.154	6.09
349.364	5.59
349.574	6.06
349.784	7.14
349.994	7.43
350.204	8.14
350.413	7.57
350.623	7.84
350.833	9.03
351.043	10.38
351.253	9.45
351.463	10.51
351.672	7.85
351.882	10.09
352.092	8.41
352.302	7.9
352.511	6.91
352.721	7.17
352.931	6.49
353.141	6.98
353.35	5.74
353.56	5.19
353.77	3.81
353.979	4.97
354.189	4.35
354.399	3.39
354.608	4.65
354.818	4.94
355.027	4.52
355.237	4.63
355.447	7.19
355.656	9.23
355.866	10.63
356.075	9.86
356.285	10.92
356.494	10.11
356.704	10.86
356.913	11.9
357.123	12.22
357.332	12.31
357.542	11.21
357.751	8.77
357.96	6.7
358.17	5.83
358.379	8.32
358.589	9.41
358.798	11.48
359.007	12.47
359.217	11.78
359.426	11.93
359.635	12.13
359.845	13.28
360.054	13.71
360.263	13.72
360.472	12.86
360.682	12.09
360.891	10.54
361.1	10.8
361.309	9.13
361.519	8.86
361.728	7.04
361.937	8.89
362.146	7.72
362.355	6.98
362.564	8.44
362.774	9.21
362.983	8.25
363.192	10.4
363.401	10.41
363.61	11.84
363.819	11.39
364.028	13
364.237	11.51
364.446	13.33
364.655	13.31
364.864	12.97
365.073	13.65
365.282	15.12
365.491	14.11
365.7	14.79
365.909	13.19
366.118	14.24
366.327	14.58
366.536	14.18
366.745	14.16
366.954	13.35
367.162	13.19
367.371	14.73
367.58	13.25
367.789	12.8
367.998	10.75
368.207	11.04
368.415	11.72
368.624	11.16
368.833	11.52
369.042	9.61
369.25	12.16
369.459	12.66
369.668	9.1
369.877	9.03
370.085	9.32
370.294	9.37
370.503	10.92
370.711	10.33
370.92	9.62
371.129	10.47
371.337	12.34
371.546	10.52
371.754	10.51
371.963	13.14
372.171	14.13
372.38	14.05
372.589	14.98
372.797	14.34
373.006	13.06
373.214	15.02
373.423	14.84
373.631	14.57
373.84	15.73
374.048	15.79
374.256	13.83
374.465	15.23
374.673	14.33
374.882	13.47
375.09	13.56
375.298	15.36
375.507	15.23
375.715	16.1
375.923	14.43
376.132	14.66
376.34	13.84
376.548	14.63
376.757	14.47
376.965	15.4
377.173	15.5
377.381	15.6
377.59	15.57
377.798	15.5
378.006	13.38
378.214	15.58
378.423	15.17
378.631	14.85
378.839	14.77
379.047	12.69
379.255	13.68
379.463	13.42
379.671	13.26
379.879	12.15
380.088	11.78
380.296	11.22
380.504	10.04
380.712	8.1
380.92	7.95
381.128	8.13
381.336	8.81
381.544	8.1
381.752	9.37
381.96	8.95
382.168	8.03
382.376	6.41
382.584	8.55
382.791	9.09
382.999	10.17
383.207	11.52
383.415	10.2
383.623	8.93
383.831	8.19
384.039	6.23
384.247	7.02
384.454	7.15
384.662	7.79
384.87	8.45
385.078	8.61
385.285	9.19
385.493	9.68
385.701	10.71
385.909	11.92
386.116	12.32
386.324	13.89
386.532	14.27
386.739	15.04
386.947	14.69
387.155	13.17
387.362	12.79
387.57	11.95
387.778	10.97
387.985	10.77
388.193	11.67
388.4	12.4
388.608	10.29
388.816	9.2
389.023	9.57
389.231	10.17
389.438	10.24
389.646	10.28
389.853	10.17
390.061	9.57
390.268	8.26
390.475	7.8
390.683	7.45
390.89	8.28
391.098	7.86
391.305	6.72
391.512	6.21
391.72	5.5
391.927	5.13
392.135	5.02
392.342	5.85
392.549	8.34
392.756	8.25
392.964	7.38
393.171	7.87
393.378	8.68
393.586	9.25
393.793	9.41
394	10.33
394.207	9.73
394.414	10.79
394.622	10.43
394.829	8.58
395.036	8.21
395.243	8.66
395.45	8.52
395.657	8.27
395.864	8.8
396.072	9.02
396.279	9.5
396.486	10.83
396.693	11.13
396.9	10.28
397.107	10.8
397.314	11.51
397.521	11.54
397.728	11.01
397.935	9.95
398.142	8.89
398.349	7.43
398.556	6.73
398.763	5.73
398.97	5.44
399.177	6.56
399.383	6.24
399.59	4.97
399.797	4.47
400.004	5.6
400.211	5.64
400.418	5.95
400.625	5.97
400.831	5.03
401.038	5.22
401.245	3.65
401.452	3.31
401.658	2.69
401.865	4.16
402.072	4.45
402.279	2.82
402.485	3.63
402.692	4.01
402.899	6.15
403.105	7.1
403.312	6.96
403.519	8.13
403.725	7.63
403.932	9.51
404.138	8.25
404.345	7.89
404.552	9.35
404.758	8.82
404.965	7.39
405.171	6.77
405.378	6.82
405.584	7.18
405.791	6.42
405.997	6.76
406.204	5.69
406.41	6.67
406.617	6.76
406.823	6.68
407.029	7.7
407.236	9.29
407.442	9.02
407.649	9
407.855	8.88
408.061	9.52
408.268	10.06
408.474	9.7
408.68	10.27
408.887	9.82
409.093	9.11
409.299	8.26
409.505	8.94
409.712	8.78
409.918	7.25
410.124	7.93
410.33	7.24
410.537	6.69
410.743	8.51
410.949	7.83
411.155	8.27
411.361	8.31
411.567	8.99
411.773	8.88
411.98	8.84
412.186	9.89
412.392	9.47
412.598	9.22
412.804	9.71
413.01	8
413.216	8.96
413.422	8.75
413.628	10.41
413.834	11.11
414.04	10.25
414.246	8.97
414.452	9.06
414.658	8.72
414.864	8.93
415.07	8.46
415.275	8.27
415.481	6.86
415.687	6.52
415.893	5.17
416.099	4.28
416.305	4.73
416.511	5.93
416.716	5.81
416.922	5.89
417.128	6.78
417.334	6.31
417.539	7.31
417.745	7.66
417.951	7.26
418.157	7.49
418.362	7.34
418.568	7.47
418.774	7.01
418.979	7.35
419.185	7.62
419.391	7.13
419.596	7.51
419.802	6.52
420.008	6.05
420.213	6.63
420.419	5.89
420.624	6.33
420.83	5.92
421.035	6.14
421.241	5.78
421.446	5.63
421.652	5.42
421.857	5.56
422.063	5.95
422.268	6.23
422.474	6.23
422.679	6.87
422.885	6.44
423.09	6.26
423.295	6.33
423.501	5.98
423.706	5.67
423.911	5.78
424.117	5.76
424.322	5.44
424.527	5.43
424.733	5.09
424.938	4.96
425.143	4.9
425.349	4.99
425.554	4.79
425.759	4.8
425.964	4.75
426.169	4.94
426.375	4.61
426.58	4.41
426.785	4.34
426.99	4.96
427.195	5.14
427.4	5.59
427.605	5
427.811	5.34
428.016	6.08
428.221	6.54
428.426	6.07
428.631	6.52
428.836	7.46
429.041	7.43
429.246	7.21
429.451	6.88
429.656	6.74
429.861	7.51
430.066	7.8
430.271	7.74
430.476	7.95
430.681	7.58
430.886	7.03
431.09	6.75
431.295	6.36
431.5	6.52
431.705	6.77
431.91	6.17
432.115	5.9
432.32	5.75
432.524	5.58
432.729	5.15
432.934	5.45
433.139	5.41
433.343	5.65
433.548	6.34
433.753	6.07
433.958	5.26
434.162	5.7
434.367	5.83
434.572	5.33
434.776	5.54
434.981	5.98
435.186	6.48
435.39	6.67
435.595	5.93
435.799	5.46
436.004	5.97
436.209	6.41
436.413	6.99
436.618	7.16
436.822	7.44
437.027	7.39
437.231	7.18
437.436	7.25
437.64	6.9
437.845	7.29
438.049	7.87
438.253	7.51
438.458	7.62
438.662	6.72
438.867	6.58
439.071	6.45
439.275	6.42
439.48	6.56
439.684	5.88
439.888	6.12
440.093	6.23
440.297	5.94
440.501	5.95
440.706	5.7
440.91	6.27
441.114	5.96
441.318	5.99
441.523	6.07
441.727	5.69
441.931	6.16
442.135	6.01
442.339	6.16
442.543	6.05
442.748	6.16
442.952	6.36
443.156	6.54
443.36	6.87
443.564	7
443.768	6.61
443.972	6.59
444.176	5.96
444.38	6.27
444.584	6
444.788	6.04
444.992	5.87
445.196	5.81
445.4	5.55
445.604	5.22
445.808	5.49
446.012	5.69
446.216	5.75
446.42	6.51
446.624	6.24
446.828	6.04
447.032	6.3
447.235	6.24
447.439	6.12
447.643	6.1
447.847	6.35
448.051	6.12
448.254	6.1
448.458	6.76
448.662	6.9
448.866	7.19
449.069	7.19
449.273	6.95
449.477	7.48
449.681	8.1
449.884	8.27
450.088	8.12
450.292	6.81
450.495	7.08
450.699	6.32
450.902	5.89
451.106	5.79
451.31	5.79
451.513	5.55
451.717	5.08
451.92	4.83
452.124	4.33
452.327	4.46
452.531	5.92
452.734	5.56
452.938	5.58
453.141	5.16
453.345	5.19
453.548	4.72
453.752	5.32
453.955	5.72
454.158	5.15
454.362	5.36
454.565	5.25
454.769	4.58
454.972	4.82
455.175	4.92
455.379	5.6
455.582	5.95
455.785	7.57
455.988	7
456.192	6.97
456.395	7.78
456.598	8.17
456.801	8.28
457.005	9.07
457.208	9.49
457.411	9.15
457.614	8.71
457.817	8.54
458.021	8.15
458.224	7.65
458.427	7.6
458.63	7.12
458.833	6.95
459.036	7
459.239	6.66
459.442	6.51
459.645	6.55
459.848	6.58
460.051	6.52
460.254	5.68
460.457	6.46
460.66	6.12
460.863	6.22
461.066	6.11
461.269	6.07
461.472	5.94
461.675	5.3
461.878	5.29
462.081	5.41
462.284	5.28
462.486	5.54
462.689	5.14
462.892	5.63
463.095	5.72
463.298	6.47
463.5	6.85
463.703	7.36
463.906	7.2
464.109	7.42
464.311	7.43
464.514	7.33
464.717	7.61
464.92	7.88
465.122	7.67
465.325	7.74
465.528	7.87
465.73	7.95
465.933	7.58
466.135	7.26
466.338	7.16
466.541	6.51
466.743	6.56
466.946	6.49
467.148	6.14
467.351	5.8
467.553	6.1
467.756	5.69
467.958	4.71
468.161	4.23
468.363	4.7
468.566	4.79
468.768	5.46
468.971	5.44
469.173	5.82
469.375	5.55
469.578	5.57
469.78	5
469.983	4.65
470.185	5.33
470.387	5.4
470.59	5.6
470.792	5.7
470.994	5.91
471.196	5.79
471.399	4.85
471.601	5.11
471.803	5.51
472.005	5.84
472.208	6.41
472.41	5.99
472.612	5.78
472.814	6.02
473.016	5.94
473.218	5.72
473.421	5.33
473.623	5.66
473.825	5.66
474.027	5.8
474.229	5.46
474.431	5.3
474.633	5.14
474.835	6.26
475.037	5.82
475.239	5.45
475.441	5.46
475.643	5.64
475.845	5.68
476.047	5.53
476.249	5.35
476.451	5.1
476.653	4.59
476.855	4.64
477.057	3.81
477.258	4.23
477.46	4.62
477.662	4.25
477.864	4.8
478.066	5.31
478.268	5.7
478.469	5.92
478.671	6.06
478.873	5.7
479.075	5.4
479.276	5.54
479.478	5.55
479.68	5.48
479.882	5.57
480.083	5.66
480.285	5.57
480.487	5.71
480.688	5.42
480.89	5.94
481.091	6.65
481.293	6.78
481.495	6.73
481.696	6.56
481.898	6.49
482.099	6.52
482.301	6.36
482.502	6.26
482.704	6.15
482.905	6.16
483.107	5.95
483.308	5.66
483.51	5.55
483.711	5.56
483.913	5.5
484.114	5.44
484.315	5.39
484.517	5.28
484.718	5.12
484.92	5.13
485.121	5.1
485.322	5.1
485.524	5.15
485.725	5.4
485.926	5.26
486.127	5.08
486.329	4.9
486.53	5.04
486.731	4.95
486.932	5.04
487.134	4.95
487.335	5.03
487.536	5.11
487.737	5.15
487.938	5.28
488.139	5.37
488.341	5.67
488.542	5.7
488.743	5.27
488.944	5.23
489.145	5.48
489.346	5.33
489.547	5.17
489.748	5.17
489.949	4.99
490.15	4.83
490.351	4.75
490.552	4.57
490.753	4.73
490.954	4.81
491.155	5.04
491.356	4.97
491.557	5.06
491.758	4.96
491.959	4.86
492.159	4.87
492.36	5.28
492.561	5.65
492.762	5.8
492.963	6.02
493.164	6.24
493.364	6.32
493.565	6.2
493.766	6.56
493.967	6.55
494.167	6.87
494.368	6.96
494.569	6.34
494.769	6.02
494.97	5.96
495.171	5.62
495.371	5.69
495.572	5.45
495.773	5.5
495.973	5.31
496.174	5.74
496.375	5.48
496.575	5.81
496.776	5.88
496.976	6.05
497.177	5.91
497.377	6.24
497.578	5.93
497.778	5.88
497.979	5.92
498.179	6.01
498.38	5.43
498.58	5.42
498.78	5.22
498.981	5.38
499.181	5.44
499.382	5.88
499.582	5.52
499.782	6.1
499.983	6.3
500.183	5.99
500.383	5.73
500.584	6.18
500.784	6.45
500.984	6.48
501.184	6.32
501.385	6.02
501.585	6
501.785	6.46
501.985	6.2
502.185	6.09
502.386	6.31
502.586	6.36
502.786	6.27
502.986	6
503.186	5.87
503.386	6.05
503.586	6.12
503.786	5.86
503.987	5.76
504.187	5.69
504.387	5.57
504.587	5.8
504.787	6.05
504.987	6.39
505.187	6.9
505.387	7.39
505.587	7.28
505.786	7.35
505.986	7.36
506.186	6.75
506.386	6.77
506.586	7.38
506.786	7.38
506.986	7.79
507.186	7.61
507.386	6.94
507.585	6.78
507.785	6.72
507.985	6.5
508.185	6.77
508.384	7.39
508.584	7.01
508.784	7.04
508.984	6.76
509.183	6.26
509.383	6.21
509.583	6.57
509.782	6.73
509.982	6.86
510.182	7.02
510.381	6.75
510.581	6.51
510.781	7.25
510.98	7.09
511.18	6.98
511.379	7.23
511.579	7.46
511.778	7.52
511.978	7.27
512.177	7.68
512.377	7.66
512.576	7.88
512.776	8.28
512.975	8.19
513.175	8.4
513.374	8.75
513.573	8.93
513.773	9.11
513.972	9.2
514.172	9.03
514.371	9.04
514.57	9.49
514.77	9.75
514.969	9.55
515.168	9.31
515.367	8.96
515.567	8.82
515.766	8.48
515.965	8.59
516.164	8.52
516.364	8.95
516.563	8.44
516.762	8.61
516.961	8.55
517.16	8.56
517.359	8.5
517.559	8.67
517.758	9.15
517.957	9.17
518.156	8.68
518.355	8.55
518.554	8.59
518.753	8.59
518.952	8.17
519.151	8.31
519.35	8.09
519.549	8.46
519.748	7.98
519.947	7.75
520.146	8.18
520.345	8.27
520.544	8.48
520.743	8.48
520.942	8.77
521.141	9.24
521.339	9.11
521.538	9.35
521.737	9.67
521.936	10.16
522.135	10.35
522.333	9.81
522.532	10.51
522.731	10.69
522.93	10.86
523.129	10.65
523.327	10.7
523.526	10.89
523.725	10.89
523.923	10.96
524.122	11.11
524.321	11.21
524.519	11.23
524.718	10.83
524.917	10.65
525.115	10.56
525.314	10.78
525.512	10.51
525.711	10.63
525.909	10.53
526.108	10.33
526.306	10.48
526.505	10.27
526.703	10.63
526.902	10.92
527.1	10.85
527.299	10.96
527.497	10.95
527.696	10.9
527.894	10.74
528.092	10.89
528.291	10.96
528.489	11.05
528.688	11.03
528.886	10.91
529.084	10.86
529.283	11.22
529.481	11.25
529.679	11.64
529.877	11.89
530.076	12.02
530.274	12.14
530.472	12.14
530.67	12.12
530.869	12.23
531.067	12.37
531.265	12.54
531.463	12.31
531.661	12.31
531.859	12.05
532.057	12.23
532.255	12.33
532.454	12.17
532.652	12.16
532.85	12.03
533.048	12.31
533.246	12.25
533.444	12.32
533.642	12.25
533.84	12.17
534.038	12.27
534.236	12.35
534.434	12.64
534.632	13.3
534.83	13.63
535.027	13.83
535.225	13.33
535.423	13.39
535.621	13.13
535.819	13.39
536.017	13.45
536.215	13.64
536.412	13.27
536.61	13.49
536.808	13.61
537.006	13.37
537.203	13.49
537.401	14.19
537.599	14.32
537.797	14.06
537.994	13.97
538.192	14.07
538.39	13.77
538.587	14.34
538.785	14.11
538.983	14.03
539.18	14.04
539.378	13.97
539.575	14.25
539.773	14.01
539.97	14.21
540.168	14.29
540.366	14.5
540.563	14.66
540.761	14.48
540.958	14.63
541.155	14.68
541.353	14.66
541.55	14.81
541.748	14.44
541.945	14.79
542.143	14.78
542.34	14.8
542.537	14.66
542.735	14.66
542.932	14.92
543.129	14.31
543.327	14.17
543.524	14.56
543.721	14.41
543.919	14.63
544.116	14.57
544.313	15.17
544.51	15.54
544.708	15.55
544.905	16.02
545.102	16.09
545.299	15.99
545.496	16.08
545.693	15.76
545.891	16.04
546.088	15.96
546.285	15.96
546.482	15.29
546.679	14.79
546.876	15.19
547.073	15.66
547.27	15.42
547.467	16.14
547.664	16
547.861	16.28
548.058	16.11
548.255	16.86
548.452	17.24
548.649	17.78
548.846	18.47
549.043	18.49
549.24	17.35
549.437	17.45
549.633	17.14
549.83	17.5
550.027	17.62
550.224	17.29
550.421	17.03
550.618	17.05
550.814	17.4
551.011	17.54
551.208	17.56
551.405	17.78
551.601	18.09
551.798	18.41
551.995	18.25
552.191	18.38
552.388	18.93
552.585	19.01
552.781	19.18
552.978	18.94
553.175	19.1
553.371	19.51
553.568	19.35
553.764	19.74
553.961	19.78
554.157	19.72
554.354	20.11
554.55	19.76
554.747	20.07
554.943	19.26
555.14	19.46
555.336	18.96
555.533	18.27
555.729	19.1
555.926	18.36
556.122	18.18
556.318	18.15
556.515	18.03
556.711	18.39
556.907	17.41
557.104	17.93
557.3	17.8
557.496	18.13
557.693	18
557.889	18.1
558.085	18.41
558.281	19.06
558.478	19.14
558.674	18.76
558.87	19.07
559.066	19.62
559.262	19.62
559.459	19.63
559.655	19.96
559.851	20.1
560.047	19.82
560.243	20.29
560.439	20.13
560.635	20.53
560.831	21.34
561.027	21.23
561.223	21.62
561.419	21.99
561.615	22.64
561.811	22.14
562.007	22.17
562.203	21.68
562.399	21.18
562.595	21.46
562.791	21.27
562.987	20.69
563.183	20.93
563.379	20.43
563.575	20.65
563.771	19.95
563.966	19.56
564.162	19.66
564.358	20.16
564.554	20.62
564.75	20.39
564.945	20.65
565.141	20.96
565.337	20.42
565.533	20.84
565.728	20.67
565.924	21.04
566.12	22.19
566.315	22.44
566.511	22.53
566.707	22.19
566.902	22.86
567.098	22.62
567.293	22.28
567.489	22.44
567.684	22.42
567.88	22.72
568.076	22.47
568.271	22.44
568.467	22.98
568.662	22.87
568.858	23.39
569.053	22.93
569.248	22.99
569.444	22.87
569.639	23.16
569.835	23.18
570.03	23.78
570.225	23.65
570.421	22.85
570.616	22.06
570.812	21.85
571.007	21.49
571.202	21.12
571.397	20.74
571.593	21.3
571.788	20.92
571.983	20.7
572.178	19.92
572.374	20.36
572.569	20.65
572.764	20.72
572.959	20.91
573.154	20.91
573.35	21.41
573.545	21.64
573.74	21.63
573.935	22.19
574.13	22.18
574.325	22.21
574.52	22.09
574.715	21.62
574.91	22.02
575.105	22.08
575.3	22.44
575.495	22.57
575.69	22.79
575.885	22.33
576.08	22
576.275	21.74
576.47	21.5
576.665	21.63
576.86	22.33
577.055	22.05
577.25	22.1
577.444	21.08
577.639	20.43
577.834	20.25
578.029	20.93
578.224	21.19
578.418	21.15
578.613	21.5
578.808	20.69
579.003	21.02
579.197	20.87
579.392	20.42
579.587	21.56
579.781	21.83
579.976	22.8
580.171	22.08
580.365	22.31
580.56	23.06
580.755	22.99
580.949	24
581.144	23.24
581.338	22.84
581.533	22.62
581.727	22.49
581.922	23.08
582.116	22.13
582.311	22.51
582.505	21.88
582.7	21.85
582.894	21.36
583.089	21.63
583.283	22.22
583.478	22.68
583.672	23.46
583.866	22.55
584.061	21.76
584.255	21.74
584.449	21.72
584.644	22.1
584.838	21.41
585.032	21.58
585.226	21.04
585.421	20.98
585.615	22.1
585.809	22.19
586.003	23.06
586.198	23.16
586.392	23.62
586.586	23.15
586.78	23.04
586.974	23.68
587.168	23.97
587.363	24.25
587.557	24.41
587.751	23.41
587.945	22.89
588.139	22.59
588.333	22.73
588.527	22.2
588.721	22.78
588.915	23.05
589.109	23.14
589.303	22.86
589.497	22.46
589.691	21.81
589.885	21.7
590.079	22.19
590.273	22.58
590.466	22.36
590.66	23.23
590.854	23.35
591.048	23.03
591.242	22.79
591.436	23.38
591.629	23.99
591.823	24.71
592.017	25.27
592.211	26.23
592.404	25.85
592.598	26.01
592.792	25.89
592.986	25.61
593.179	25.25
593.373	25.43
593.567	25.4
593.76	24.89
593.954	24.17
594.147	23.55
594.341	22.7
594.535	22.27
594.728	22.7
594.922	22.26
595.115	22.36
595.309	22.42
595.502	21.91
595.696	21.58
595.889	21.98
596.083	22.72
596.276	23.32
596.47	23.05
596.663	23.65
596.856	23.19
597.05	22.85
597.243	22.88
597.437	23.49
597.63	24.31
597.823	24.94
598.017	25.33
598.21	25.44
598.403	24.85
598.596	25.6
598.79	25.43
598.983	25.67
599.176	26.75
599.369	26.72
599.563	27.16
599.756	27.17
599.949	26.4
600.142	25.41
600.335	24.68
600.528	24.51
600.722	24.21
600.915	24.41
601.108	24.01
601.301	23.47
601.494	23.22
601.687	22.85
601.88	22.16
602.073	22.19
602.266	22.76
602.459	22.93
602.652	23.55
602.845	22.96
603.038	23.58
603.231	24.37
603.424	24.66
603.617	24.86
603.809	25.05
604.002	25.56
604.195	25.94
604.388	25.81
604.581	26.22
604.774	26.25
604.966	26.84
605.159	26.59
605.352	25.7
605.545	25.53
605.737	25.92
605.93	25.65
606.123	25.22
606.316	24.26
606.508	23.78
606.701	23.19
606.894	23.22
607.086	22.96
607.279	23.15
607.471	22.97
607.664	23.3
607.857	23.18
608.049	23.07
608.242	23.28
608.434	23.79
608.627	24.28
608.819	23.95
609.012	24.07
609.204	23.45
609.397	23.19
609.589	24.19
609.782	23.8
609.974	23.38
610.166	23.64
610.359	23.71
610.551	24.12
610.743	23.59
610.936	24.57
611.128	23.84
611.32	25.4
611.513	25.33
611.705	24.77
611.897	25.01
612.09	25.71
612.282	25.36
612.474	25.52
612.666	24.32
612.858	24.77
613.051	24.7
613.243	25.18
613.435	25.96
613.627	25.08
613.819	25.46
614.011	25.59
614.203	25.48
614.395	25.35
614.588	25.13
614.78	26.63
614.972	27.81
615.164	26.95
615.356	26.45
615.548	25.74
615.74	26.96
615.932	26.11
616.124	26.36
616.315	26.82
616.507	27.75
616.699	27.39
616.891	27.91
617.083	27.11
617.275	27.21
617.467	27.83
617.659	27.75
617.85	27.42
618.042	28.1
618.234	28.2
618.426	28.08
618.618	27.1
618.809	27.49
619.001	27.01
619.193	25.95
619.384	26.21
619.576	26.03
619.768	25.67
619.959	25.45
620.151	24.79
620.343	24.23
620.534	24.07
620.726	24.27
620.917	24.04
621.109	23.14
621.301	24.1
621.492	24.77
621.684	25.21
621.875	25.45
622.067	25.78
622.258	26.17
622.45	25.7
622.641	26.74
622.832	26.51
623.024	27
623.215	26.48
623.407	24.63
623.598	24.41
623.789	24.16
623.981	24.13
624.172	24.18
624.363	23.34
624.555	24
624.746	22.49
624.937	23.43
625.129	23.09
625.32	23.83
625.511	25.04
625.702	24.16
625.893	24.59
626.085	24.3
626.276	24.07
626.467	24.68
626.658	24.37
626.849	24.81
627.04	24.18
627.231	24.33
627.422	24.31
627.614	24.59
627.805	24.81
627.996	25.03
628.187	24.79
628.378	23.84
628.569	24.59
628.76	24.47
628.951	23.44
629.142	23.97
629.332	22.96
629.523	23.98
629.714	23.69
629.905	24.19
630.096	24.51
630.287	24.5
630.478	24.82
630.669	23.97
630.859	24.43
631.05	25.13
631.241	24.56
631.432	25.42
631.623	24.84
631.813	25.26
632.004	25.24
632.195	24.75
632.385	24.71
632.576	23.94
632.767	23.93
632.957	23.15
633.148	23.7
633.339	23.59
633.529	24.44
633.72	24.73
633.91	24.98
634.101	23.67
634.292	23.06
634.482	23.97
634.673	24.74
634.863	23.42
635.054	23.21
635.244	22.52
635.435	23.61
635.625	23.08
635.815	21.92
636.006	21.33
636.196	22.59
636.387	23.15
636.577	22.43
636.767	23.18
636.958	24.73
637.148	25.05
637.338	25.63
637.529	24.81
637.719	24.74
637.909	24.99
638.099	25.74
638.29	24.87
638.48	24.14
638.67	23.56
638.86	23.4
639.05	24.17
639.241	24.43
639.431	24.46
639.621	24.79
639.811	24.22
640.001	25.81
640.191	24.83
640.381	27.39
640.571	26.91
640.761	27.36
640.951	28.14
641.141	27.07
641.331	27.32
641.521	27.73
641.711	27.26
641.901	27.21
642.091	26.29
642.281	26.68
642.471	25.3
642.661	26.18
642.851	26.51
643.041	26.74
643.231	27.54
643.42	27.56
643.61	25.84
643.8	26.05
643.99	27.02
644.18	26.8
644.369	26.72
644.559	27.78
644.749	27.11
644.939	27.52
645.128	25.91
645.318	26
645.508	26.59
645.697	28.56
645.887	29.04
646.076	28.36
646.266	28.34
646.456	28.34
646.645	27.48
646.835	28.64
647.024	28.82
647.214	30.16
647.403	29.35
647.593	28.95
647.782	28.31
647.972	27.09
648.161	27.94
648.351	28.32
648.54	29.08
648.73	29.25
648.919	28.25
649.108	27.97
649.298	27.68
649.487	28.32
649.677	29.33
649.866	29.43
650.055	30.42
650.244	29.9
650.434	30.01
650.623	29.31
650.812	29.85
651.002	30.65
651.191	30.19
651.38	30.9
651.569	31.59
651.758	30.94
651.947	30.94
652.137	30.84
652.326	31.2
652.515	30.76
652.704	30.37
652.893	29.89
653.082	29.64
653.271	28.89
653.46	28.42
653.649	28.28
653.838	28.44
654.027	28.54
654.216	27.84
654.405	27.52
654.594	27.91
654.783	28.37
654.972	28.14
655.161	28.37
655.35	30.19
655.539	28.82
655.728	28.28
655.916	26.5
656.105	25.28
656.294	26.34
656.483	26.4
656.672	26
656.86	25.53
657.049	26.25
657.238	25.91
657.427	25.24
657.615	26.22
657.804	25.77
657.993	26.49
658.181	25.95
658.37	25.7
658.559	25.37
658.747	25.43
658.936	25.81
659.125	27.71
659.313	27.54
659.502	27.53
659.69	26.8
659.879	27.37
660.067	27.97
660.256	29.24
660.444	29.11
660.633	29.6
660.821	29.52
661.01	28.98
661.198	26.12
661.387	25.95
661.575	25.66
661.763	25.89
661.952	24.43
662.14	24.12
662.328	23.66
662.517	23.92
662.705	22.97
662.893	23.59
663.082	24.66
663.27	25.06
663.458	25.85
663.646	24.77
663.834	24.73
664.023	26.91
664.211	26.18
664.399	26.62
664.587	27.23
664.775	27.16
664.963	26.86
665.152	26.16
665.34	26
665.528	25.51
665.716	27.13
665.904	28.33
666.092	27.3
666.28	28.24
666.468	27.12
666.656	26.53
666.844	27.71
667.032	27.38
667.22	27.63
667.408	28.2
667.596	29.23
667.784	29.95
667.971	29.2
668.159	29.01
668.347	28.92
668.535	31.34
668.723	30.71
668.911	30.77
669.098	30.31
669.286	30.76
669.474	29.98
669.662	29.46
669.849	30.45
670.037	31.04
670.225	30.16
670.413	29.27
670.6	26.98
670.788	27.72
670.976	26.87
671.163	27.37
671.351	26.42
671.538	26.11
671.726	25.66
671.913	23.91
672.101	23.7
672.289	25.48
672.476	27.25
672.664	28.33
672.851	27.43
673.039	27.97
673.226	27.74
673.413	28.57
673.601	28.59
673.788	29.9
673.976	29.2
674.163	30.22
674.35	29.38
674.538	28.74
674.725	28.77
674.912	29.71
675.1	29.05
675.287	29.28
675.474	29.14
675.662	28.54
675.849	26.65
676.036	25.39
676.223	25.39
676.411	25.43
676.598	24.33
676.785	23.63
676.972	23.4
677.159	24.18
677.346	24.63
677.533	25.13
677.721	25.06
677.908	27.09
678.095	29.1
678.282	27.99
678.469	27.95
678.656	29.86
678.843	30.84
679.03	31.08
679.217	30.52
679.404	29.78
679.591	30.38
679.778	31.07
679.964	29.94
680.151	30.24
680.338	30.93
680.525	31.44
680.712	30.47
680.899	29.19
681.086	29.38
681.272	29.69
681.459	30.17
681.646	28.4
681.833	28.07
682.02	28.34
682.206	26.81
682.393	26.54
682.58	25.49
682.766	25.17
682.953	26.05
683.14	26.67
683.326	25.27
683.513	25.36
683.7	25.87
683.886	27.17
684.073	26.79
684.259	27.03
684.446	26.58
684.632	26.35
684.819	26.89
685.005	27.26
685.192	28.31
685.378	29.46
685.565	28.65
685.751	27.61
685.938	26.89
686.124	28.73
686.31	30.07
686.497	29.73
686.683	30.41
686.87	29.66
687.056	29.27
687.242	26.94
687.429	26.69
687.615	26.66
687.801	28.76
687.987	28.3
688.174	26.46
688.36	25.24
688.546	25.93
688.732	25.68
688.918	25.08
689.105	25.26
689.291	26.02
689.477	25.72
689.663	27.33
689.849	28.98
690.035	29.92
690.221	29.22
690.407	30.73
690.593	30.55
690.779	31.67
690.965	32.72
691.151	32.64
691.337	32.36
691.523	32.61
691.709	31.7
691.895	29.59
692.081	29.46
692.267	28.5
692.453	28.59
692.639	27.28
692.825	26.03
693.011	26.35
693.196	25.89
693.382	25.6
693.568	25.22
693.754	25.7
693.94	27.24
694.125	26.97
694.311	29.15
694.497	28.67
694.682	29.49
694.868	29.44
695.054	28.2
695.239	29.45
695.425	29.9
695.611	31.63
695.796	30.95
695.982	30.56
696.168	30.8
696.353	30.61
696.539	29.8
696.724	29.23
696.91	29
697.095	29.03
697.281	28.57
697.466	28.08
697.652	26.99
697.837	27.86
698.023	27.18
698.208	26.68
698.393	27.08
698.579	26.98
698.764	27.64
698.949	28.53
699.135	28.59
699.32	28.84
699.505	29.35
699.691	29.56
699.876	29.04
700.061	29.99
700.246	29.35
700.432	28.71
700.617	29.2
700.802	29.67
700.987	29.65
701.172	28.73
701.358	28.82
701.543	26.63
701.728	26.16
701.913	24.88
702.098	25.53
702.283	26.8
702.468	26.78
702.653	27.15
702.838	28.5
703.023	27.47
703.208	27.87
703.393	26.24
703.578	26.81
703.763	28.09
703.948	27.64
704.133	24.23
704.318	23.63
704.503	25
704.688	24.78
704.873	23.99
705.057	23.6
705.242	25.43
705.427	25.58
705.612	26.26
705.797	27.18
705.981	29.09
706.166	31.72
706.351	32.09
706.536	32.1
706.72	31.18
706.905	29.89
707.09	32.33
707.274	32.74
707.459	36.06
707.644	37.4
707.828	36.57
708.013	35.78
708.197	34.41
708.382	34.67
708.567	33.3
708.751	33.19
708.936	32.39
709.12	33.17
709.305	32.61
709.489	30.31
709.673	28.71
709.858	29.92
710.042	29.71
710.227	30.92
710.411	28.42
710.596	27.38
710.78	26.68
710.964	27.15
711.149	24.54
711.333	27.43
711.517	25.82
711.702	27.89
711.886	25.66
712.07	27.6
712.254	26.23
712.438	27.97
712.623	27.82
712.807	29.67
712.991	32.14
713.175	32.9
713.359	29.08
713.544	29.37
713.728	27.93
713.912	29.45
714.096	29.45
714.28	29.76
714.464	29.08
714.648	29.65
714.832	29.79
715.016	27.4
715.2	28.07
715.384	27.34
715.568	26.93
715.752	25.63
715.936	25.24
716.12	25.27
716.304	24.84
716.488	25.69
716.671	26.64
716.855	25.71
717.039	24.92
717.223	24.4
717.407	26.08
717.59	28.92
717.774	29.54
717.958	29.97
718.142	27.46
718.325	28.88
718.509	29.43
718.693	28.93
718.877	27.77
719.06	27.56
719.244	27.27
719.428	28.68
719.611	29.98
719.795	32.21
719.978	32.74
720.162	34.75
720.345	34.02
720.529	34.83
720.713	36.97
720.896	39.29
721.08	41.58
721.263	41.01
721.446	41.25
721.63	38.16
721.813	36.21
721.997	34.92
722.18	34.23
722.364	32.32
722.547	30.8
722.73	28.5
722.914	26.23
723.097	25.58
723.28	26.08
723.464	24.72
723.647	23.63
723.83	24.17
724.013	24.74
724.197	24.61
724.38	26.97
724.563	25.48
724.746	24.89
724.929	25.27
725.112	25.85
725.296	25.83
725.479	26.27
725.662	26.91
725.845	29.68
726.028	29.1
726.211	28.47
726.394	30.75
726.577	31.89
726.76	35.91
726.943	38.08
727.126	37.85
727.309	37.34
727.492	34.83
727.675	35.24
727.858	34.77
728.041	34.33
728.224	36.86
728.407	36.59
728.589	36.18
728.772	33.07
728.955	30.28
729.138	29.58
729.321	30.16
729.503	32.85
729.686	33.8
729.869	33.91
730.052	35.17
730.234	33.66
730.417	30.3
730.6	29.76
730.782	31.63
730.965	30.33
731.148	29.05
731.33	29.64
731.513	28.32
731.695	28.28
731.878	26.98
732.061	26.76
732.243	25.73
732.426	27.15
732.608	27.77
732.791	25.41
732.973	26.45
733.156	27.44
733.338	27.35
733.52	26.02
733.703	26.32
733.885	24.19
734.068	25.59
734.25	26.07
734.432	26.69
734.615	26.87
734.797	26.49
734.979	28.19
735.162	29.01
735.344	28.6
735.526	29.9
735.708	29.06
735.891	28.5
736.073	29.77
736.255	31.45
736.437	31.02
736.619	32.37
736.802	32.8
736.984	34.96
737.166	34.8
737.348	35.88
737.53	36.36
737.712	35.42
737.894	38.62
738.076	34.07
738.258	34.78
738.44	34.01
738.622	34.63
738.804	33.25
738.986	30.13
739.168	27.94
739.35	27.56
739.532	29.63
739.714	27.75
739.896	28.91
740.078	29.08
740.259	26.1
740.441	26.49
740.623	22.95
740.805	25.59
740.987	26.44
741.168	29.37
741.35	26.45
741.532	26.23
741.714	27.98
741.895	26.38
742.077	29.21
742.259	32.77
742.44	31.25
742.622	36.46
742.804	38.44
742.985	36.97
743.167	37.45
743.348	43.9
743.53	43.23
743.711	47.78
743.893	49.86
744.075	49.65
744.256	45.95
744.438	46.43
744.619	41.66
744.8	38.92
744.982	42.12
745.163	40.62
745.345	38.61
745.526	34.93
745.707	32.38
745.889	31.56
746.07	32.3
746.252	33.11
746.433	37.02
746.614	38.88
746.795	37.51
746.977	38.42
747.158	39.77
747.339	38.2
747.52	40.97
747.702	42.64
747.883	39.23
748.064	37.9
748.245	37.37
748.426	34.6
748.607	33.48
748.788	38.43
748.97	34.97
749.151	30.67
749.332	31.95
749.513	32.03
749.694	30.28
749.875	31.99
750.056	31.57
750.237	34.06
750.418	37.34
750.599	35.05
750.78	37.13
750.96	38.34
751.141	43.63
751.322	45.15
751.503	44.59
751.684	44.3
751.865	40.42
752.046	39.34
752.226	40.41
752.407	40.28
752.588	44.78
752.769	41.79
752.949	42.83
753.13	41.78
753.311	40.31
753.492	42.19
753.672	39.43
753.853	42.91
754.034	44.17
754.214	42.74
754.395	44.69
754.575	42.76
754.756	42.61
754.937	42.44
755.117	45.11
755.298	40.89
755.478	38.26
755.659	41.04
755.839	43.93
756.02	44.41
756.2	41.11
756.381	30.93
756.561	30.54
756.741	32.34
756.922	32.06
757.102	26.3
757.283	29.84
757.463	29.97
757.643	30.17
757.823	26.16
758.004	25.14
758.184	28.29
758.364	31.98
758.545	31.31
758.725	29.57
758.905	31.73
759.085	35.25
759.265	33.82
759.446	38.69
759.626	38.77
759.806	40.47
759.986	41.86
760.166	40.17
760.346	41.46
760.526	41.38
760.706	40.62
760.886	37.95
761.066	38.43
761.246	38.9
761.426	36.29
761.606	33.43
761.786	32.37
761.966	27.37
762.146	28.44
762.326	27.04
762.506	27.64
762.686	29.54
762.866	30.75
763.046	29.08
763.225	30.41
763.405	28.34
763.585	30.48
763.765	30.35
763.945	35.85
764.124	35.93
764.304	37.56
764.484	34.99
764.664	31.76
764.843	30.1
765.023	30.03
765.203	28.31
765.382	30.16
765.562	28.57
765.741	29.68
765.921	29.72
766.101	31.71
766.28	33.14
766.46	31.66
766.639	30.8
766.819	31.83
766.998	34.16
767.178	36.7
767.357	40.22
767.537	41.88
767.716	40.44
767.896	40.65
768.075	41.6
768.254	40.66
768.434	45.62
768.613	48.53
768.792	51.62
768.972	47.03
769.151	45.37
769.33	43.52
769.51	48.46
769.689	53.52
769.868	56.54
770.047	57.3
770.226	61.37
770.406	59.45
770.585	62.45
770.764	56.32
770.943	60.65
771.122	60.91
771.301	60.21
771.48	59.06
771.66	56.8
771.839	56.63
772.018	55.99
772.197	51.49
772.376	56.35
772.555	53.01
772.734	53.9
772.913	59.82
773.092	63.87
773.271	63.06
773.449	65.9
773.628	62.39
773.807	56.9
773.986	52.08
774.165	52.63
774.344	51.53
774.523	50.5
774.701	52.84
774.88	50.66
775.059	48.94
775.238	47.78
775.417	44.06
775.595	38.96
775.774	48.11
775.953	48.14
776.131	47.59
776.31	44.93
776.489	49.96
776.667	50.25
776.846	44.47
777.025	41.79
777.203	42.85
777.382	46.29
777.56	51.71
777.739	47.13
777.917	49.16
778.096	56.02
778.274	55.43
778.453	48.73
778.631	47.97
778.81	46.49
778.988	45.93
779.166	50.94
779.345	50.79
779.523	45.62
779.702	40.23
779.88	36.82
780.058	32.69
780.237	31.77
780.415	30.09
780.593	34.55
780.771	43.65
780.95	43.69
781.128	46.2
781.306	44.43
781.484	48.94
781.662	60.97
781.841	61.08
782.019	63.2
782.197	69.85
782.375	77.75
782.553	75.82
782.731	70.92
782.909	67.08
783.087	61.84
783.265	64.17
783.443	61.76
783.621	53.09
783.799	60.63
783.977	52.38
784.155	49.62
784.333	48.55
784.511	50
784.689	46.24
784.867	51.55
785.045	45.04
785.223	37.9
785.4	34.58
785.578	35.19
785.756	31.03
785.934	28.75
786.112	31.41
786.289	34.09
786.467	33.66
786.645	37.37
786.823	39.7
787	39.91
787.178	46.39
787.356	51.83
787.533	53.06
787.711	54.58
787.889	50.02
788.066	48.45
788.244	48.92
788.421	50.85
788.599	46.32
788.776	38.9
788.954	44.59
789.131	37.4
789.309	39.11
789.486	33.81
789.664	40.84
789.841	47.86
790.019	53.23
790.196	48.14
790.373	44.64
790.551	50.08
790.728	51.26
790.906	48.87
791.083	51.17
791.26	44.59
791.437	51.5
791.615	46.14
791.792	47.21
791.969	42.65
792.146	40.18
792.324	37.96
792.501	31.08
792.678	34.87
792.855	28.82
793.032	24.19
793.209	19.41
793.387	12.06
793.564	8.18
793.741	10.26
793.918	11.37
794.095	13.66
794.272	16.4
794.449	21.49
794.626	18.22
794.803	25.51
794.98	30.93
795.157	34.91
795.334	34.83
795.511	42.34
795.688	45.84
795.864	46.56
796.041	46.46
796.218	44.67
796.395	42.74
796.572	41.65
796.749	39.8
796.925	36.33
797.102	42.76
797.279	42.69
797.456	42.03
797.632	43.77
797.809	44.4
797.986	43.01
798.162	45.99
798.339	45.03
798.516	61.67
798.692	61.89
798.869	48.63
799.046	48.47
799.222	51.5
799.399	39.84
799.575	32.91
799.752	37.92
799.928	39.73
800.105	39.26
800.281	42.33
800.458	35.51
800.634	39.99
800.811	45.08
800.987	40.78
801.163	44.24
801.34	49.34
801.516	51.97
801.692	57.12
801.869	71.8
802.045	81.88
802.221	74.51
802.398	72.73
802.574	65.17
802.75	68.53
802.926	76.51
803.103	73.85
803.279	75.89
803.455	69.08
803.631	58.97
803.807	47.57
803.983	36.78
804.16	44.39
804.336	36.36
804.512	31.95
804.688	31.09
804.864	22.53
805.04	18.43
805.216	29.81
805.392	38.97
805.568	38.64
805.744	46.71
805.92	57.89
806.096	58.45
806.272	56.96
806.448	55.56
806.623	57.89
806.799	60.85
806.975	63.97
807.151	56.59
807.327	60.74
807.503	56.85
807.678	55.22
807.854	61.18
808.03	59.07
808.206	63.68
808.381	72.48
808.557	66.37
808.733	73.91
808.908	62.24
809.084	62.49
809.26	61.01
809.435	59.95
809.611	56.14
809.787	41.73
809.962	45.16
810.138	53.13
810.313	57.72
810.489	65.91
810.664	52.79
810.84	58.55
811.015	60.94
811.191	45.61
811.366	52.05
811.542	49.28
811.717	50.48
811.892	36.85
812.068	12.46
812.243	-16.49
812.419	-31.8
812.594	-1.82
812.769	18.95
812.944	34.77
813.12	27.56
813.295	23.5
813.47	34.01
813.645	38.32
813.821	45.95
813.996	50.35
814.171	57.8
814.346	51.25
814.521	50
814.697	41.27
814.872	30.25
815.047	41.31
815.222	46.21
815.397	32.35
815.572	35.17
815.747	33.45
815.922	36.97
816.097	26.82
816.272	33
816.447	36.83
816.622	31.72
816.797	30.69
816.972	27
817.147	24.91
817.322	27.58
817.496	21.41
817.671	23.14
817.846	19.88
818.021	26
818.196	29.73
818.371	27.21
818.545	35.28
818.72	38.86
818.895	44.12
819.069	43.24
819.244	43.5
819.419	38.93
819.594	36.11
819.768	33.8
819.943	30.04
820.117	27.39
820.292	26.61
820.467	25.39
820.641	25.03
820.816	23.24
820.99	23.28
821.165	23.94
821.339	23.79
821.514	23.41
821.688	22.76
821.863	25.69
822.037	25.37
822.212	24.28
822.386	24.34
822.56	24.83
822.735	25.3
822.909	27.86
823.084	25.57
823.258	27.63
823.432	26.71
823.606	29.24
823.781	25.17
823.955	27.05
824.129	32.06
824.303	35
824.478	34.01
824.652	29.91
824.826	22.51
825	24.7
825.174	25.21
825.348	29.78
825.523	26.35
825.697	29.53
825.871	28.79
826.045	30.43
826.219	32.02
826.393	33.11
826.567	36.61
826.741	40.19
826.915	42.57
827.089	39.24
827.263	37.47
827.437	39.01
827.611	36.98
827.784	35.39
827.958	29.07
828.132	20.65
828.306	18.89
828.48	14.16
828.654	12.78
828.827	14.35
829.001	24.32
829.175	23.27
829.349	31.13
829.522	30.91
829.696	37.76
829.87	36.97
830.044	38.16
830.217	36.68
830.391	51.79
830.565	39.41
830.738	35.74
830.912	28.3
831.085	32.87
831.259	35.71
831.432	31.87
831.606	32.58
831.779	36.86
831.953	39.41
832.126	34.67
832.3	31.93
832.473	36.01
832.647	32.28
832.82	32.8
832.994	31.73
833.167	30.05
833.34	26.49
833.514	31.13
833.687	31.85
833.86	27.99
834.034	28.2
834.207	31.31
834.38	39.11
834.553	34.62
834.727	37.48
834.9	42.46
835.073	36.75
835.246	55.01
835.419	47.22
835.593	45.88
835.766	75
835.939	101.59
836.112	157.18
836.285	150.13
836.458	178.84
836.631	126.54
836.804	139.9
836.977	142.42
837.15	136.62
837.323	111.98
837.496	98.9
837.669	117.11
837.842	121.45
838.015	94.39
838.188	61.26
838.361	55.27
838.533	58.36
838.706	61.46
838.879	55.57
839.052	49
839.225	48.07
839.398	52.95
839.57	54.82
839.743	46.8
839.916	40.42
840.088	47.22
840.261	50.11
840.434	50.24
840.607	50.36
840.779	51.9
840.952	57.06
841.124	70.48
841.297	45.4
841.47	27.27
841.642	4.36
841.815	-32.17
841.987	-11.76
842.16	-523.53
842.332	-491.18
842.505	482.69
842.677	211.11
842.85	120.59
843.022	-460
843.194	83.87
843.367	64.63
843.539	43.67
843.712	-8.4
843.884	-83.53
844.056	-129.9
844.229	-144.57
844.401	-436.28
844.573	-606.02
844.745	625.29
844.918	266.19
845.09	184.25
845.262	142.13
845.434	159.11
845.606	147.56
845.779	134.74
845.951	127.7
846.123	115.04
846.295	123.11
846.467	126.07
846.639	146.72
846.811	194.17
846.983	241.9
847.155	335.77
847.327	567.97
847.499	732.38
847.671	454.66
847.843	-2436.84
848.015	-1658.06
848.187	936.21
848.359	3225
848.531	220.18
848.703	85.16
848.875	116.95
849.047	43.46
849.218	-16.52
849.39	-223.08
849.562	7200
849.734	-535.82
849.905	-2446.67
850.077	-193.75
850.249	-29.38
850.421	-63.96
850.592	-32.83
850.764	-64.64
850.936	-112.5
851.107	-84.23
851.279	-71.12
851.451	-26.21
851.622	50.64
851.794	53.5
851.965	68.46
852.137	113.67
852.308	151.59
852.48	168.49
852.651	229.67
852.823	289.02
852.994	212.83
853.166	208.24
853.337	224.41
853.509	374.34
853.68	608.33
853.851	-2875
854.023	594.21
854.194	620.35
854.365	-30750
854.537	-3536.36
854.708	1776.19
854.879	591.49
855.05	101.18
855.222	95.4
855.393	-21.65
855.564	-2.06
855.735	1.28
855.906	12.11
856.078	-7.93
856.249	14.94
856.42	38.23
856.591	22.41
856.762	24.47
856.933	61.82
857.104	64.38
857.275	75.53
857.446	123.71
857.617	164.16
857.788	246.8
857.959	260.96
858.13	503.57
858.301	342.14
858.472	543.38
858.643	441.5
858.814	187.16
858.985	180.57
859.155	273.93
859.326	144.28
859.497	149.14
859.668	118.31
859.839	114.37
860.009	97.89
860.18	98.98
860.351	102.69
860.522	82.12
860.692	93.36
860.863	62.99
861.034	74.3
861.204	107.25
861.375	86.05
861.546	91.01
861.716	96.69
861.887	106.51
862.057	138.49
862.228	97.51
862.398	123.97
862.569	125.55
862.739	213.36
862.91	200
863.08	446.15
863.251	439.81
863.421	381.82
863.592	195.38
863.762	-102.5
863.932	106.45
864.103	108.33
864.273	110
864.443	22.73
864.614	27.22
864.784	146.15
864.954	400
865.125	-436.36
865.295	-1550
865.465	661.11
865.635	187.77
865.805	174.68
865.976	219.65
866.146	133
866.316	145.08
866.486	115.63
866.656	90.62
866.826	84.65
866.996	79.14
867.166	63.76
867.336	61.33
867.506	68.42
867.676	74.33
867.846	50.94
868.016	69.4
868.186	48.87
868.356	57.69
868.526	206
868.696	308.86
868.866	188.05
869.036	143.13
869.206	-1564.71
869.376	-2770
869.545	1160
869.715	284.38
869.885	-40.85
870.055	-78.08
870.224	266.14
870.394	225.49
870.564	-47.89
870.734	40.87
870.903	41.59
871.073	57.57
871.243	166.18
871.412	153.08
871.582	138.54
871.751	110.59
871.921	91.27
872.091	48.16
872.26	70.76
872.43	63.15
872.599	46.34
872.769	56.64
872.938	83.81
873.108	62.92
873.277	86.59
873.446	83.63
873.616	94.51
873.785	109.81
873.955	112.65
874.124	103.74
874.293	119.06
874.463	105.62
874.632	91.74
874.801	78.03
874.971	42.17
875.14	28.35
875.309	-38.92
875.478	-3.31
875.647	7.14
875.817	21.97
875.986	36.06
876.155	27.8
876.324	38.94
876.493	64.33
876.662	63.48
876.831	58.38
877	48.41
877.17	48.63
877.339	39.29
877.508	45.54
877.677	34.76
877.846	33.33
878.015	67.19
878.184	75.43
878.352	65.94
878.521	87.16
878.69	117.66
878.859	88.07
879.028	159.29
879.197	127.67
879.366	96.09
879.534	88.75
879.703	70.89
879.872	59.97
880.041	52.03
880.21	47.35
880.378	38.1
880.547	35.8
880.716	39.55
880.884	40.34
881.053	42.76
881.222	39.73
881.39	36.6
881.559	42.97
881.727	43.6
881.896	40.09
882.065	38.05
882.233	38.34
882.402	41.6
882.57	41.76
882.739	42.23
882.907	38.69
883.076	48.08
883.244	51.04
883.412	54.21
883.581	65.47
883.749	75.1
883.918	69.98
884.086	72.02
884.254	64.27
884.423	71.76
884.591	63.29
884.759	62.83
884.927	57.09
885.096	62
885.264	59.47
885.432	46.3
885.6	35.5
885.769	31.63
885.937	39.05
886.105	32.09
886.273	39.31
886.441	27.98
886.609	8
886.777	67.88
886.945	51.45
887.113	43.86
887.281	39.97
887.449	44.73
887.617	97.13
887.785	84.11
887.953	79.84
888.121	73.98
888.289	71.73
888.457	77.16
888.625	66.82
888.793	110.45
888.961	116.36
889.129	134.08
889.296	248.95
889.464	300
889.632	235.53
889.8	1938.46
889.967	318.56
890.135	395.24
