Data from JASIL_3262_Reflection_1.txt Node
Date: Mon Nov 16 20:53:07 EST 2015
User: Geneva
Spectrometer: USB4E03002
Autoset integration time: false
Trigger mode: 4
Integration Time (sec): 1.000000E-1
Scans to average: 10
Electric dark correction enabled: false
Nonlinearity correction enabled: false
Boxcar width: 5
Stray light correction enabled: false
XAxis mode: Wavelengths
Stop averaging: false
Number of Pixels in Spectrum: 3648
>>>>>Begin Spectral Data<<<<<
177.575	-800
177.794	-738.57
178.014	-752.41
178.233	-1196.26
178.452	-1646.99
178.672	-1196.97
178.891	-1539.62
179.11	4883.78
179.33	1661.61
179.549	-7904.55
179.768	1517.8
179.987	1812.9
180.207	1149.03
180.426	629.27
180.645	707.61
180.864	1373.38
181.084	546.79
181.303	491.9
181.522	941.36
181.741	2877.46
181.96	625.64
182.179	775.46
182.398	902.67
182.618	841.53
182.837	824.79
183.056	692.46
183.275	397.68
183.494	419.53
183.713	459.51
183.932	343.33
184.151	340.26
184.37	366.05
184.589	298.97
184.808	251.94
185.027	259.32
185.246	305.4
185.465	477.75
185.684	520.83
185.903	1982.76
186.122	779.82
186.341	1121.35
186.56	563.68
186.779	1032.64
186.998	1490.77
187.216	1508.66
187.435	1225.15
187.654	1155.14
187.873	550.38
188.092	489.12
188.311	485.42
188.53	755.67
188.748	665.53
188.967	1661.6
189.186	822.22
189.405	902.16
189.623	986.11
189.842	861.73
190.061	930.14
190.28	2433.33
190.498	-2348.75
190.717	1526.98
190.936	-3213.56
191.154	-1563.39
191.373	-30700
191.592	-17281.82
191.81	-1044.25
192.029	-1354.96
192.248	-434.76
192.466	-432.37
192.685	-479.84
192.904	-672.89
193.122	-481.33
193.341	-928.65
193.559	-925.38
193.778	-1180.61
193.996	-1493.89
194.215	54725
194.433	-5040.48
194.652	1049.26
194.87	834.63
195.089	761.14
195.307	883.68
195.526	2535.59
195.744	1473.68
195.963	974.18
196.181	18850
196.399	-1185.47
196.618	6785
196.836	23350
197.055	-1230.33
197.273	-2837.93
197.491	-1811.11
197.71	-3401.96
197.928	2208.75
198.146	4140.48
198.365	-16600
198.583	837.23
198.801	1165.5
199.019	2551.95
199.238	-4602.38
199.456	1792.45
199.674	812.71
199.892	653.59
200.111	830.38
200.329	858.49
200.547	671.83
200.765	628.27
200.983	698.19
201.202	547.14
201.42	860.24
201.638	511.32
201.856	629.55
202.074	1805.79
202.292	2068.69
202.51	1434.69
202.728	2217.53
202.946	-5210
203.165	6218.18
203.383	-1948.45
203.601	-2281.4
203.819	4358
204.037	23020
204.255	2431.96
204.473	1072.43
204.691	1550
204.909	990.2
205.127	1031.16
205.345	1196.59
205.562	1037.62
205.78	719.8
205.998	830.2
206.216	679.29
206.434	662.5
206.652	575.76
206.87	424.78
207.088	338.38
207.306	411.6
207.523	378.09
207.741	309.63
207.959	322.28
208.177	348.36
208.395	269.65
208.612	301.98
208.83	287.37
209.048	325.93
209.266	432.89
209.483	475.53
209.701	369.47
209.919	439.46
210.136	434.54
210.354	1059.5
210.572	1029.41
210.79	1685.19
211.007	1025.33
211.225	1576.74
211.442	-8571.43
211.66	-2281.94
211.878	-1004.86
212.095	387.65
212.313	413.45
212.53	607.24
212.748	351.66
212.966	328.59
213.183	302.04
213.401	288.78
213.618	277.69
213.836	325
214.053	337.77
214.271	319.11
214.488	1721.01
214.705	887.61
214.923	644.19
215.14	656.94
215.358	500.62
215.575	735.38
215.793	756.16
216.01	1015.34
216.227	351.91
216.445	269.6
216.662	301.22
216.879	275.19
217.097	259.35
217.314	290.24
217.531	379.58
217.749	454.09
217.966	541.33
218.183	467.22
218.4	554.07
218.618	700.79
218.835	767.77
219.052	538.56
219.269	462.97
219.487	694.1
219.704	490.26
219.921	351.92
220.138	272.75
220.355	272.51
220.572	298.43
220.79	331.22
221.007	416.6
221.224	570.82
221.441	549.28
221.658	673.15
221.875	455.34
222.092	453.27
222.309	667.03
222.526	702.42
222.743	591.5
222.96	768.4
223.177	375.16
223.394	378.77
223.611	251.39
223.828	286.83
224.045	295.26
224.262	323.66
224.479	237.67
224.696	186.21
224.913	226.08
225.13	203.44
225.347	166.94
225.564	148.78
225.781	117.69
225.997	120.19
226.214	100.81
226.431	86.8
226.648	79.17
226.865	68.59
227.082	63.17
227.298	56.79
227.515	52.55
227.732	46.29
227.949	43.15
228.165	42.79
228.382	38.17
228.599	36.44
228.816	36.53
229.032	36.32
229.249	34.29
229.466	38.7
229.682	39.41
229.899	37.79
230.116	44.34
230.332	45.22
230.549	49.58
230.765	53.64
230.982	56.65
231.199	59.88
231.415	63.31
231.632	71.06
231.848	73.45
232.065	81.25
232.281	80.21
232.498	84
232.714	90.85
232.931	87.74
233.147	87.39
233.364	91.84
233.58	91.91
233.797	92.48
234.013	92.7
234.23	86.91
234.446	86.41
234.662	80.96
234.879	83.1
235.095	84.97
235.312	88.28
235.528	88.78
235.744	90.88
235.961	90.48
236.177	84.81
236.393	90.48
236.61	101.01
236.826	98.66
237.042	111.69
237.258	100.52
237.475	98.67
237.691	96.48
237.907	92.04
238.123	83.63
238.339	81.4
238.556	81.46
238.772	74.52
238.988	65.87
239.204	65.85
239.42	65.11
239.636	66.84
239.853	57.35
240.069	54.68
240.285	53.42
240.501	50.86
240.717	45.76
240.933	42.06
241.149	38.3
241.365	38.41
241.581	35.84
241.797	32.59
242.013	31.43
242.229	32.61
242.445	33.25
242.661	34.35
242.877	35.46
243.093	37.18
243.309	38.78
243.525	38.48
243.741	38.66
243.957	40.25
244.173	39.52
244.388	39.67
244.604	39.74
244.82	35.9
245.036	32.49
245.252	28.93
245.468	25.69
245.683	23.85
245.899	24.33
246.115	22.66
246.331	20.39
246.547	19.75
246.762	19.21
246.978	19.71
247.194	20.52
247.409	20.95
247.625	22.21
247.841	23.33
248.057	24.54
248.272	25.63
248.488	29.09
248.703	33.07
248.919	34.83
249.135	37.41
249.35	38.42
249.566	39.93
249.782	41.36
249.997	42.19
250.213	40.8
250.428	39.59
250.644	39.65
250.859	35.26
251.075	31.33
251.29	32.69
251.506	32.49
251.721	32.83
251.937	33.82
252.152	31.64
252.368	32.87
252.583	35.53
252.798	37.76
253.014	37.28
253.229	37.47
253.445	39.34
253.66	43.2
253.875	45.54
254.091	50.99
254.306	49
254.521	56.09
254.737	50.07
254.952	48.87
255.167	47.55
255.383	47.47
255.598	50.22
255.813	48.37
256.028	42.53
256.244	40.22
256.459	34.77
256.674	35.7
256.889	31.56
257.104	33.45
257.32	30.96
257.535	26.92
257.75	24.66
257.965	21.97
258.18	21.15
258.395	20.29
258.61	18.23
258.826	19.14
259.041	17.92
259.256	17.68
259.471	17.03
259.686	16.81
259.901	18.11
260.116	17.9
260.331	18.47
260.546	18.36
260.761	18.94
260.976	19.94
261.191	20.17
261.406	21.98
261.621	23.47
261.836	25.06
262.05	27.85
262.265	30.02
262.48	31.84
262.695	31.95
262.91	32.97
263.125	34.1
263.34	35.81
263.555	37.04
263.769	38.13
263.984	37.73
264.199	36.85
264.414	36.01
264.629	31.58
264.843	30.2
265.058	29.75
265.273	28.45
265.488	28.45
265.702	27.57
265.917	25.01
266.132	21.56
266.346	22.54
266.561	23.17
266.776	23.86
266.99	25.38
267.205	25.94
267.42	24.59
267.634	25.86
267.849	25.09
268.063	26.41
268.278	27.97
268.492	29.54
268.707	28.27
268.922	27.31
269.136	26.79
269.351	24.57
269.565	23.46
269.78	24.11
269.994	24.38
270.209	24.33
270.423	23.09
270.637	21.71
270.852	20.13
271.066	20.12
271.281	21.68
271.495	20.29
271.709	21.59
271.924	23.02
272.138	23.82
272.353	24.09
272.567	22.64
272.781	22.64
272.996	22.2
273.21	23.29
273.424	23.95
273.638	23.54
273.853	23.82
274.067	24.54
274.281	24.26
274.495	23.43
274.71	22.18
274.924	22.37
275.138	22.21
275.352	23.05
275.566	22.02
275.781	20.3
275.995	19.11
276.209	20.46
276.423	21.18
276.637	19.15
276.851	21.26
277.065	22.39
277.279	24.94
277.493	24.53
277.707	23.42
277.921	24.46
278.135	25.87
278.349	27.84
278.563	25.98
278.777	25.44
278.991	27.18
279.205	26.24
279.419	24.81
279.633	24.13
279.847	24.92
280.061	26.01
280.275	25.94
280.489	24.58
280.703	22.89
280.917	23.73
281.131	21.6
281.344	21.49
281.558	20.75
281.772	21.42
281.986	21.89
282.2	21
282.414	19.73
282.627	19.88
282.841	19.14
283.055	19.74
283.269	20.62
283.482	21.54
283.696	20.48
283.91	20.12
284.123	19.31
284.337	17.85
284.551	17.84
284.764	18.26
284.978	16.76
285.192	17.19
285.405	16.81
285.619	15.69
285.833	15.85
286.046	15.82
286.26	15.66
286.473	15.34
286.687	16.78
286.9	17.52
287.114	18.41
287.327	19.43
287.541	19.73
287.754	18.81
287.968	19.4
288.181	19.24
288.395	18.69
288.608	19.73
288.822	20.49
289.035	20.44
289.248	19.98
289.462	18.41
289.675	18.82
289.889	18.8
290.102	19.02
290.315	18.19
290.529	18.08
290.742	19.08
290.955	18.69
291.169	19.3
291.382	18.54
291.595	19.4
291.808	20.31
292.022	19.95
292.235	19.85
292.448	20.85
292.661	21.02
292.875	23.12
293.088	23.38
293.301	22.65
293.514	20.6
293.727	19.46
293.94	17.79
294.153	18.96
294.367	19.59
294.58	19.35
294.793	18.03
295.006	19
295.219	16.93
295.432	16.71
295.645	16.54
295.858	17.23
296.071	17.11
296.284	17.31
296.497	16.27
296.71	15.52
296.923	16.55
297.136	16.74
297.349	15.89
297.562	15.7
297.775	15.92
297.988	15.83
298.201	15.86
298.414	15.6
298.626	16.23
298.839	15.69
299.052	14.97
299.265	13.69
299.478	14.17
299.691	14.85
299.903	15.88
300.116	15.52
300.329	16.93
300.542	17.36
300.755	18.87
300.967	18.68
301.18	18.56
301.393	20.93
301.605	21.97
301.818	21.46
302.031	22.6
302.243	22.45
302.456	23.57
302.669	23.72
302.881	23.27
303.094	23.54
303.307	23.48
303.519	24.66
303.732	23.97
303.944	23.67
304.157	24.38
304.37	24.05
304.582	23.79
304.795	23.73
305.007	22.95
305.22	22.86
305.432	22.25
305.645	22.94
305.857	23.82
306.069	23.93
306.282	24.28
306.494	23.76
306.707	22.92
306.919	23.64
307.132	21.98
307.344	22.42
307.556	22.42
307.769	22.26
307.981	21.4
308.193	19.07
308.406	19.48
308.618	20
308.83	20.67
309.043	20.49
309.255	19.93
309.467	20.55
309.679	19.23
309.892	18.98
310.104	19.28
310.316	19.37
310.528	20.08
310.74	18.12
310.953	16.96
311.165	16.91
311.377	17.18
311.589	17.11
311.801	16.43
312.013	17.58
312.225	18.75
312.437	16.97
312.649	17.41
312.862	18.92
313.074	19.32
313.286	21.1
313.498	21.37
313.71	20.56
313.922	21.5
314.134	22.07
314.346	21.79
314.558	21.09
314.77	22.34
314.982	21.69
315.193	19.97
315.405	21.34
315.617	20.08
315.829	20.51
316.041	21.32
316.253	20.38
316.465	21.06
316.677	20.39
316.888	21.12
317.1	23.16
317.312	22.69
317.524	22.63
317.736	22.79
317.947	23.17
318.159	23.41
318.371	24.35
318.583	24.08
318.794	24.96
319.006	25.71
319.218	25.27
319.43	24.27
319.641	25.63
319.853	25.85
320.064	25.91
320.276	25.71
320.488	24.44
320.699	22.78
320.911	23.77
321.123	23.05
321.334	25.32
321.546	25.66
321.757	27.06
321.969	28.28
322.18	27.03
322.392	27.55
322.603	27.3
322.815	28.26
323.026	27.76
323.238	27.52
323.449	25.96
323.661	25.61
323.872	25.09
324.083	23.03
324.295	21.37
324.506	22.14
324.718	20.72
324.929	20.52
325.14	18.79
325.352	19.31
325.563	20.12
325.774	20.62
325.986	19.28
326.197	18.07
326.408	18.46
326.62	18.08
326.831	18.11
327.042	19.39
327.253	20.28
327.464	23.2
327.676	22.49
327.887	22.32
328.098	23.68
328.309	24.3
328.52	25.4
328.732	26.36
328.943	27.66
329.154	26.85
329.365	26.5
329.576	26.27
329.787	25.07
329.998	25.63
330.209	23.31
330.42	22.41
330.631	21.94
330.842	22.21
331.053	22.81
331.264	22.27
331.475	23.54
331.686	24.29
331.897	23.06
332.108	23.05
332.319	23.39
332.53	24.74
332.741	24.03
332.952	23.23
333.163	22.7
333.374	20.6
333.585	19.41
333.795	19.84
334.006	18.48
334.217	19.62
334.428	18.13
334.639	17.34
334.849	16.96
335.06	17.88
335.271	18.9
335.482	18.87
335.692	18.68
335.903	19.05
336.114	19.24
336.325	19.94
336.535	19.46
336.746	20.89
336.957	22.45
337.167	22.63
337.378	22
337.589	21.55
337.799	21.42
338.01	22.69
338.22	23.51
338.431	23.28
338.642	22.37
338.852	22.62
339.063	22.02
339.273	21.41
339.484	22.47
339.694	22.39
339.905	22.26
340.115	22
340.326	21.72
340.536	21.58
340.746	21.74
340.957	22.13
341.167	20.99
341.378	20.26
341.588	19.04
341.799	18.02
342.009	17.65
342.219	17.12
342.43	18.21
342.64	17.33
342.85	16.78
343.061	15.3
343.271	14.93
343.481	14.28
343.691	13.31
343.902	14.47
344.112	14
344.322	14.34
344.532	15.09
344.743	15.16
344.953	15.29
345.163	15.43
345.373	16.13
345.583	16.9
345.793	18.12
346.004	19.15
346.214	17.68
346.424	17.48
346.634	16.94
346.844	16.92
347.054	16.92
347.264	17.42
347.474	18.39
347.684	18.26
347.894	18.56
348.104	17.96
348.314	17.56
348.524	18.26
348.734	18.43
348.944	19.42
349.154	19.1
349.364	18.24
349.574	16.56
349.784	15.99
349.994	16.25
350.204	15.65
350.413	15.14
350.623	15.57
350.833	15.18
351.043	15.52
351.253	15.96
351.463	15.16
351.672	14.75
351.882	16.49
352.092	17.13
352.302	17.07
352.511	17.31
352.721	17.66
352.931	17.76
353.141	18.11
353.35	17.28
353.56	17.2
353.77	17.66
353.979	18.87
354.189	18.38
354.399	17.85
354.608	17.97
354.818	17.31
355.027	17.65
355.237	17.25
355.447	17.66
355.656	17.88
355.866	16.43
356.075	16.56
356.285	15.69
356.494	15.57
356.704	15.24
356.913	15.27
357.123	15.94
357.332	15.15
357.542	14.86
357.751	13.94
357.96	15.33
358.17	15.89
358.379	15.67
358.589	15.56
358.798	15.75
359.007	14.96
359.217	13.2
359.426	12.52
359.635	13.52
359.845	13.17
360.054	13.31
360.263	11.97
360.472	11.82
360.682	12.03
360.891	12.44
361.1	12.04
361.309	11.83
361.519	12.35
361.728	12.28
361.937	11.9
362.146	12.46
362.355	12.77
362.564	13.06
362.774	13.03
362.983	13.03
363.192	13.22
363.401	13.55
363.61	13.96
363.819	15.01
364.028	14.52
364.237	14.66
364.446	14.46
364.655	14.29
364.864	14.16
365.073	14.58
365.282	14.39
365.491	14.15
365.7	13.66
365.909	14.05
366.118	13.2
366.327	13.42
366.536	13.76
366.745	13.83
366.954	14.44
367.162	14.74
367.371	14.93
367.58	14.95
367.789	15.09
367.998	14.8
368.207	14.48
368.415	15.02
368.624	15.62
368.833	15.7
369.042	15.7
369.25	15.94
369.459	16.1
369.668	15.84
369.877	14.91
370.085	14.47
370.294	15.04
370.503	15.08
370.711	15.02
370.92	14.86
371.129	14.85
371.337	14.75
371.546	13.56
371.754	12.91
371.963	12.96
372.171	13.85
372.38	13.8
372.589	14.59
372.797	14.37
373.006	14.39
373.214	14.04
373.423	12.78
373.631	13.33
373.84	12.91
374.048	12.03
374.256	11.72
374.465	11.71
374.673	11.58
374.882	10.16
375.09	10.26
375.298	9.79
375.507	9.71
375.715	10.16
375.923	8.68
376.132	9.41
376.34	10.6
376.548	11.01
376.757	10.64
376.965	11.09
377.173	11.71
377.381	11.46
377.59	11.74
377.798	11.59
378.006	11.52
378.214	12.46
378.423	12.44
378.631	12.12
378.839	11.43
379.047	12.18
379.255	11.61
379.463	11.97
379.671	11.84
379.879	11.15
380.088	12.19
380.296	11.99
380.504	12.58
380.712	12.77
380.92	13.15
381.128	13.29
381.336	12.66
381.544	13.2
381.752	12.72
381.96	13.57
382.168	14.34
382.376	13.17
382.584	13.11
382.791	12.14
382.999	12.4
383.207	11.7
383.415	12.14
383.623	11.69
383.831	10.9
384.039	11.48
384.247	11.46
384.454	11.88
384.662	12.32
384.87	12.26
385.078	12.82
385.285	12.37
385.493	12.15
385.701	11.83
385.909	12.68
386.116	12.9
386.324	12.26
386.532	12.02
386.739	11.14
386.947	11.25
387.155	11.56
387.362	11.01
387.57	10.53
387.778	11.04
387.985	10.88
388.193	10.36
388.4	10.28
388.608	11.06
388.816	11.08
389.023	11
389.231	11.02
389.438	11.06
389.646	11.17
389.853	11.46
390.061	11.26
390.268	10.84
390.475	10.68
390.683	10.12
390.89	9.54
391.098	9.11
391.305	9.72
391.512	9.31
391.72	8.71
391.927	8.64
392.135	9
392.342	8.81
392.549	9.52
392.756	9.75
392.964	10.21
393.171	10.11
393.378	10.46
393.586	9.82
393.793	9.43
394	10.13
394.207	10.03
394.414	9.73
394.622	9.98
394.829	9.32
395.036	8.99
395.243	8.68
395.45	8.95
395.657	9.59
395.864	9.99
396.072	10.84
396.279	10.45
396.486	10.64
396.693	11.29
396.9	11.66
397.107	11.83
397.314	11.83
397.521	12.51
397.728	12.08
397.935	11.16
398.142	10.42
398.349	10.09
398.556	9.63
398.763	9.47
398.97	8.71
399.177	8.58
399.383	8.84
399.59	9.33
399.797	9.23
400.004	9.31
400.211	9.27
400.418	10.29
400.625	10.89
400.831	11.67
401.038	11.95
401.245	11.97
401.452	11.55
401.658	11.68
401.865	10.99
402.072	10.5
402.279	10.3
402.485	9.99
402.692	9.31
402.899	8.67
403.105	8.56
403.312	8.58
403.519	8.71
403.725	8.54
403.932	7.77
404.138	7.74
404.345	7.95
404.552	8.08
404.758	8.85
404.965	8.82
405.171	8.98
405.378	8.89
405.584	8.69
405.791	8.87
405.997	9.22
406.204	9.72
406.41	10.33
406.617	10.29
406.823	10.5
407.029	10.09
407.236	10.38
407.442	10.12
407.649	10.24
407.855	10.78
408.061	10.86
408.268	11.16
408.474	11.55
408.68	10.82
408.887	10.87
409.093	11.14
409.299	10.86
409.505	10.77
409.712	11.01
409.918	11.09
410.124	10.35
410.33	9.81
410.537	9.17
410.743	9.24
410.949	10.01
411.155	9.53
411.361	8.99
411.567	9.4
411.773	9.43
411.98	8.91
412.186	8.57
412.392	8.89
412.598	9
412.804	9.24
413.01	8.49
413.216	8.37
413.422	8.89
413.628	8.46
413.834	7.84
414.04	8.03
414.246	8.48
414.452	9.01
414.658	8.87
414.864	8.85
415.07	8.94
415.275	9.56
415.481	9.45
415.687	9.26
415.893	9.2
416.099	9.52
416.305	9.11
416.511	8.96
416.716	8.05
416.922	8.09
417.128	7.87
417.334	7.51
417.539	7.1
417.745	6.99
417.951	6.49
418.157	6.45
418.362	6.11
418.568	5.73
418.774	5.43
418.979	5.68
419.185	5.11
419.391	5.2
419.596	5.35
419.802	5.34
420.008	5
420.213	7.51
420.419	7.7
420.624	7.86
420.83	8.26
421.035	8.29
421.241	7.87
421.446	8.39
421.652	8.12
421.857	8.07
422.063	8.04
422.268	8.09
422.474	6.02
422.679	5.95
422.885	5.83
423.09	5.36
423.295	5.43
423.501	5.96
423.706	5.44
423.911	5.6
424.117	5.47
424.322	5.37
424.527	5.37
424.733	5.44
424.938	5.39
425.143	5.43
425.349	5.56
425.554	5.74
425.759	5.62
425.964	6.07
426.169	5.95
426.375	6.04
426.58	6.22
426.785	6.19
426.99	6.05
427.195	6.36
427.4	6.11
427.605	6.39
427.811	5.88
428.016	5.95
428.221	6
428.426	6.34
428.631	6.29
428.836	6.19
429.041	6.54
429.246	6.66
429.451	6.51
429.656	6.83
429.861	6.65
430.066	6.89
430.271	6.84
430.476	6.79
430.681	7.03
430.886	7.04
431.09	6.86
431.295	7.01
431.5	6.86
431.705	6.92
431.91	6.79
432.115	6.86
432.32	6.93
432.524	6.86
432.729	6.69
432.934	6.23
433.139	6.06
433.343	6.22
433.548	5.8
433.753	5.74
433.958	5.86
434.162	5.51
434.367	5.55
434.572	5.45
434.776	5.33
434.981	5.42
435.186	5.53
435.39	5.72
435.595	5.87
435.799	5.75
436.004	5.49
436.209	5.16
436.413	5.38
436.618	5.54
436.822	5.89
437.027	5.78
437.231	5.33
437.436	5.16
437.64	4.96
437.845	4.87
438.049	5.05
438.253	5.2
438.458	5.39
438.662	5.71
438.867	5.56
439.071	5.44
439.275	5.67
439.48	6.01
439.684	6.02
439.888	6.05
440.093	6.22
440.297	6.09
440.501	6.24
440.706	6.28
440.91	6.18
441.114	6.03
441.318	6.06
441.523	5.9
441.727	5.91
441.931	6.03
442.135	6.15
442.339	5.84
442.543	6.13
442.748	6.14
442.952	5.83
443.156	5.67
443.36	5.8
443.564	5.87
443.768	5.32
443.972	5.42
444.176	5.35
444.38	5.46
444.584	5.37
444.788	5.03
444.992	5.12
445.196	5.35
445.4	5.44
445.604	5.51
445.808	5.32
446.012	5.64
446.216	5.54
446.42	5.45
446.624	5.61
446.828	5.54
447.032	5.71
447.235	5.61
447.439	5.4
447.643	5.53
447.847	5.41
448.051	5.49
448.254	5.53
448.458	5.58
448.662	5.76
448.866	5.62
449.069	5.71
449.273	5.45
449.477	5.16
449.681	5.24
449.884	4.77
450.088	5.21
450.292	5.24
450.495	5.3
450.699	5.31
450.902	5.41
451.106	5.32
451.31	5.38
451.513	5.84
451.717	6.25
451.92	6.36
452.124	6.62
452.327	6.38
452.531	6.25
452.734	6.33
452.938	6.09
453.141	6.04
453.345	6.03
453.548	6.1
453.752	6.07
453.955	6.39
454.158	6.24
454.362	6.32
454.565	6.28
454.769	6.4
454.972	6.81
455.175	6.93
455.379	6.81
455.582	6.61
455.785	6.52
455.988	6.29
456.192	5.71
456.395	5.68
456.598	5.75
456.801	5.53
457.005	5.53
457.208	5.17
457.411	5.17
457.614	5.36
457.817	5.84
458.021	6.06
458.224	6.02
458.427	5.9
458.63	5.9
458.833	5.41
459.036	5.2
459.239	4.96
459.442	4.88
459.645	5.07
459.848	5.08
460.051	4.66
460.254	4.59
460.457	4.56
460.66	4.66
460.863	4.55
461.066	4.88
461.269	5.1
461.472	5.14
461.675	5.18
461.878	5.02
462.081	5.16
462.284	5.29
462.486	5.21
462.689	5.33
462.892	5.61
463.095	5.84
463.298	6.05
463.5	6.38
463.703	6.73
463.906	6.89
464.109	7.04
464.311	6.92
464.514	7.23
464.717	7.32
464.92	7.37
465.122	7.12
465.325	7.12
465.528	6.98
465.73	6.69
465.933	6.48
466.135	6.6
466.338	6.27
466.541	6.01
466.743	5.63
466.946	5.64
467.148	5.59
467.351	5.61
467.553	5.65
467.756	5.69
467.958	5.89
468.161	5.82
468.363	5.56
468.566	5.67
468.768	5.61
468.971	5.95
469.173	6.04
469.375	6.21
469.578	6.19
469.78	5.91
469.983	5.99
470.185	6.07
470.387	6.68
470.59	6.91
470.792	7.27
470.994	7.25
471.196	7.08
471.399	7
471.601	6.85
471.803	6.75
472.005	7.22
472.208	7.05
472.41	6.68
472.612	6.31
472.814	6.16
473.016	5.97
473.218	5.89
473.421	6.01
473.623	5.89
473.825	5.84
474.027	6.32
474.229	5.91
474.431	5.86
474.633	6.15
474.835	6.27
475.037	5.96
475.239	6.04
475.441	6.29
475.643	6.46
475.845	6.48
476.047	6.53
476.249	5.95
476.451	5.84
476.653	5.67
476.855	5.25
477.057	5.11
477.258	5.23
477.46	5.18
477.662	5.11
477.864	4.81
478.066	4.8
478.268	4.69
478.469	4.46
478.671	4.37
478.873	4.59
479.075	4.84
479.276	4.89
479.478	4.8
479.68	4.55
479.882	4.46
480.083	4.49
480.285	4.35
480.487	4.56
480.688	4.84
480.89	4.71
481.091	4.65
481.293	4.43
481.495	4.11
481.696	4.17
481.898	4.04
482.099	3.93
482.301	3.79
482.502	3.61
482.704	3.24
482.905	3.1
483.107	3.08
483.308	2.98
483.51	2.84
483.711	2.79
483.913	2.67
484.114	2.74
484.315	2.74
484.517	2.67
484.718	2.71
484.92	2.87
485.121	2.94
485.322	3
485.524	3
485.725	3.23
485.926	3.26
486.127	3.28
486.329	3.18
486.53	3.14
486.731	3.18
486.932	3.13
487.134	3.06
487.335	3.02
487.536	2.95
487.737	3
487.938	2.96
488.139	3.03
488.341	3
488.542	3.11
488.743	3.31
488.944	3.39
489.145	3.48
489.346	3.5
489.547	3.53
489.748	3.65
489.949	3.52
490.15	3.76
490.351	3.66
490.552	3.85
490.753	3.67
490.954	3.33
491.155	3.41
491.356	3.37
491.557	3.45
491.758	3.45
491.959	3.37
492.159	3.66
492.36	3.5
492.561	3.72
492.762	3.63
492.963	3.78
493.164	4
493.364	3.88
493.565	4.11
493.766	4.32
493.967	4.41
494.167	4.71
494.368	4.46
494.569	4.29
494.769	4.36
494.97	4.61
495.171	4.84
495.371	5.08
495.572	5.23
495.773	5.12
495.973	5
496.174	5.01
496.375	5.17
496.575	5.2
496.776	5.15
496.976	4.9
497.177	4.66
497.377	4.61
497.578	4.51
497.778	4.49
497.979	4.8
498.179	4.71
498.38	4.63
498.58	4.37
498.78	4.38
498.981	4.82
499.181	5.2
499.382	5.31
499.582	5.12
499.782	5.22
499.983	5.08
500.183	4.74
500.383	4.64
500.584	4.83
500.784	5.19
500.984	5.31
501.184	5.15
501.385	4.85
501.585	4.99
501.785	5.27
501.985	5.41
502.185	5.72
502.386	5.61
502.586	5.59
502.786	5.58
502.986	5.39
503.186	5.32
503.386	5.23
503.586	5.08
503.786	4.98
503.987	4.59
504.187	4.36
504.387	4.48
504.587	4.44
504.787	4.65
504.987	4.6
505.187	4.56
505.387	4.67
505.587	4.73
505.786	4.88
505.986	5
506.186	5.1
506.386	5.28
506.586	5.28
506.786	5.28
506.986	5.32
507.186	5.4
507.386	5.4
507.585	5.37
507.785	5.54
507.985	5.5
508.185	5.29
508.384	5.45
508.584	5.44
508.784	5.19
508.984	5.25
509.183	5.33
509.383	5.44
509.583	5.24
509.782	5.38
509.982	5.45
510.182	5.66
510.381	5.73
510.581	5.66
510.781	5.56
510.98	5.49
511.18	5.79
511.379	5.73
511.579	5.36
511.778	5.62
511.978	5.57
512.177	5.33
512.377	5.14
512.576	4.98
512.776	5.15
512.975	5.11
513.175	5.22
513.374	4.92
513.573	4.87
513.773	5.19
513.972	5.16
514.172	4.95
514.371	5.35
514.57	5.68
514.77	5.88
514.969	5.75
515.168	5.91
515.367	6.06
515.567	6.31
515.766	6.52
515.965	6.6
516.164	6.64
516.364	6.83
516.563	6.77
516.762	6.21
516.961	6.21
517.16	6.29
517.359	6.25
517.559	6.26
517.758	6.35
517.957	6.23
518.156	6.26
518.355	6.08
518.554	6.12
518.753	5.71
518.952	6.01
519.151	6.03
519.35	6.04
519.549	6.03
519.748	6.11
519.947	5.96
520.146	6.24
520.345	6.22
520.544	6.3
520.743	6.26
520.942	6.68
521.141	6.8
521.339	7.09
521.538	7.08
521.737	7.02
521.936	6.72
522.135	6.55
522.333	6.25
522.532	6.08
522.731	6.21
522.93	6.18
523.129	5.78
523.327	5.79
523.526	5.78
523.725	5.87
523.923	5.99
524.122	5.98
524.321	6.22
524.519	6.29
524.718	6.4
524.917	6.28
525.115	6.27
525.314	6.47
525.512	6.25
525.711	6.15
525.909	6
526.108	5.81
526.306	5.92
526.505	5.87
526.703	5.75
526.902	5.55
527.1	5.55
527.299	5.35
527.497	5.26
527.696	5.26
527.894	5.19
528.092	5.09
528.291	5.14
528.489	5.06
528.688	4.99
528.886	4.97
529.084	4.97
529.283	5.01
529.481	5.11
529.679	5.26
529.877	5.39
530.076	5.45
530.274	5.65
530.472	5.82
530.67	5.96
530.869	6.25
531.067	6.34
531.265	6.49
531.463	6.65
531.661	6.69
531.859	6.52
532.057	6.46
532.255	6.5
532.454	6.42
532.652	6.26
532.85	6.21
533.048	6.04
533.246	6.03
533.444	6.06
533.642	6
533.84	6.08
534.038	6.14
534.236	6.17
534.434	6.13
534.632	6.41
534.83	6.64
535.027	6.81
535.225	6.92
535.423	7.38
535.621	7.44
535.819	7.32
536.017	7.19
536.215	7.16
536.412	7.1
536.61	7.27
536.808	7.07
537.006	6.99
537.203	7.15
537.401	7.15
537.599	6.84
537.797	7.04
537.994	7.03
538.192	7.29
538.39	7.51
538.587	7.67
538.785	7.72
538.983	7.84
539.18	7.88
539.378	7.75
539.575	7.8
539.773	7.86
539.97	7.74
540.168	7.69
540.366	7.55
540.563	7.49
540.761	7.3
540.958	7.29
541.155	7.31
541.353	7.34
541.55	7.21
541.748	7.22
541.945	7.34
542.143	7.38
542.34	7.54
542.537	7.56
542.735	7.53
542.932	7.78
543.129	7.91
543.327	7.88
543.524	7.97
543.721	8.01
543.919	8.2
544.116	8.18
544.313	8.16
544.51	8.07
544.708	8.35
544.905	8.46
545.102	8.66
545.299	8.78
545.496	8.96
545.693	8.92
545.891	9.16
546.088	9.31
546.285	9.43
546.482	9.55
546.679	9.82
546.876	9.78
547.073	9.93
547.27	9.74
547.467	9.66
547.664	9.72
547.861	9.78
548.058	9.82
548.255	9.92
548.452	9.9
548.649	10.12
548.846	10.22
549.043	10.38
549.24	10.5
549.437	10.58
549.633	10.73
549.83	10.78
550.027	11.03
550.224	10.94
550.421	10.92
550.618	10.74
550.814	10.53
551.011	10.57
551.208	10.39
551.405	10.51
551.601	10.7
551.798	10.51
551.995	10.27
552.191	10.18
552.388	10.43
552.585	10.1
552.781	10.17
552.978	10.27
553.175	10.14
553.371	10.61
553.568	10.74
553.764	10.77
553.961	10.96
554.157	11.5
554.354	11.54
554.55	11.59
554.747	11.79
554.943	11.57
555.14	11.66
555.336	11.84
555.533	11.83
555.729	11.86
555.926	12.27
556.122	12.16
556.318	12.2
556.515	12.46
556.711	12.52
556.907	12.56
557.104	12.96
557.3	12.8
557.496	12.65
557.693	12.68
557.889	12.9
558.085	12.95
558.281	13.46
558.478	13.26
558.674	13.48
558.87	13.33
559.066	13.48
559.262	13.32
559.459	13.36
559.655	13.51
559.851	13.48
560.047	13.08
560.243	12.49
560.439	12.49
560.635	12.62
560.831	12.42
561.027	12.85
561.223	13.08
561.419	13.65
561.615	13.9
561.811	14
562.007	14.05
562.203	14.13
562.399	14.05
562.595	13.55
562.791	13.47
562.987	13.63
563.183	13.53
563.379	13.43
563.575	13.01
563.771	12.87
563.966	13.05
564.162	12.67
564.358	12.68
564.554	12.74
564.75	13
564.945	12.87
565.141	12.48
565.337	12.6
565.533	12.57
565.728	12.71
565.924	12.65
566.12	12.41
566.315	12.28
566.511	12.22
566.707	12.55
566.902	12.46
567.098	12.8
567.293	12.93
567.489	12.56
567.684	12.39
567.88	12.37
568.076	12.57
568.271	12.72
568.467	12.91
568.662	13.03
568.858	13.13
569.053	13.29
569.248	13.04
569.444	13.35
569.639	13.66
569.835	13.61
570.03	13.29
570.225	13.23
570.421	13.16
570.616	13.05
570.812	13.15
571.007	12.89
571.202	12.64
571.397	12.87
571.593	12.88
571.788	13.07
571.983	13.13
572.178	13.52
572.374	13.58
572.569	13.53
572.764	13.77
572.959	13.83
573.154	14.13
573.35	14.44
573.545	14.63
573.74	14.6
573.935	14.64
574.13	14.66
574.325	14.59
574.52	14.48
574.715	14.65
574.91	14.54
575.105	14.72
575.3	14.76
575.495	14.59
575.69	14.43
575.885	14.52
576.08	14.33
576.275	14.51
576.47	14.76
576.665	14.92
576.86	15.14
577.055	15.26
577.25	15.11
577.444	14.83
577.639	15.38
577.834	15.47
578.029	15.42
578.224	15.41
578.418	15.5
578.613	15.44
578.808	15.83
579.003	15.5
579.197	15.94
579.392	15.99
579.587	16.27
579.781	15.99
579.976	15.96
580.171	16.04
580.365	16.08
580.56	16.33
580.755	16.3
580.949	15.92
581.144	16.43
581.338	16.08
581.533	15.91
581.727	16.08
581.922	15.87
582.116	16.15
582.311	15.78
582.505	16.08
582.7	15.86
582.894	16.13
583.089	15.96
583.283	16.05
583.478	16.33
583.672	16.64
583.866	16.63
584.061	16.55
584.255	15.95
584.449	16.04
584.644	16.12
584.838	15.95
585.032	15.82
585.226	16.27
585.421	16.09
585.615	16.21
585.809	16.2
586.003	16.2
586.198	16.81
586.392	16.83
586.586	17.23
586.78	17.07
586.974	17.49
587.168	17.24
587.363	17.23
587.557	17.17
587.751	17.29
587.945	17.28
588.139	17.5
588.333	17.12
588.527	16.92
588.721	16.88
588.915	16.63
589.109	16.16
589.303	16.44
589.497	16.6
589.691	16.76
589.885	16.1
590.079	16.03
590.273	16.12
590.466	16.4
590.66	16.93
590.854	16.83
591.048	16.83
591.242	17.36
591.436	17.27
591.629	16.93
591.823	16.86
592.017	17.48
592.211	18
592.404	17.61
592.598	17.11
592.792	16.66
592.986	16.75
593.179	16.79
593.373	16.59
593.567	16.66
593.76	16.74
593.954	16.52
594.147	16.57
594.341	16.28
594.535	16.43
594.728	16.98
594.922	17.19
595.115	16.84
595.309	16.86
595.502	17.03
595.696	16.85
595.889	17.17
596.083	17.27
596.276	17.16
596.47	17.01
596.663	16.83
596.856	16.81
597.05	17.06
597.243	17.16
597.437	17.46
597.63	17.34
597.823	17.44
598.017	17.02
598.21	17.09
598.403	17.06
598.596	17.19
598.79	17.07
598.983	16.84
599.176	16.64
599.369	16.87
599.563	17.01
599.756	17.12
599.949	16.87
600.142	17.22
600.335	17.13
600.528	17.34
600.722	17.13
600.915	17.31
601.108	18.07
601.301	18.02
601.494	18.11
601.687	17.48
601.88	17.36
602.073	17.97
602.266	17.53
602.459	17.78
602.652	17.55
602.845	17.66
603.038	17.75
603.231	17.41
603.424	17.67
603.617	17.58
603.809	18.18
604.002	18.27
604.195	18.01
604.388	18.29
604.581	18.34
604.774	18.76
604.966	18.54
605.159	18.49
605.352	18.1
605.545	18.1
605.737	18.04
605.93	17.83
606.123	18.1
606.316	18.48
606.508	18.74
606.701	18.75
606.894	18.21
607.086	18.41
607.279	18.93
607.471	19.02
607.664	19.06
607.857	19.23
608.049	19.19
608.242	18.88
608.434	18.79
608.627	18.84
608.819	18.71
609.012	18.98
609.204	19.11
609.397	18.66
609.589	18.95
609.782	18.57
609.974	18.39
610.166	18.25
610.359	17.9
610.551	18.08
610.743	17.58
610.936	17.65
611.128	17.09
611.32	16.92
611.513	16.9
611.705	17.03
611.897	17.68
612.09	18.11
612.282	18.38
612.474	18.93
612.666	18.26
612.858	18.86
613.051	18.7
613.243	19.6
613.435	20.5
613.627	20.99
613.819	20.98
614.011	21.52
614.203	21.92
614.395	22.29
614.588	22.01
614.78	22.61
614.972	22.73
615.164	23.21
615.356	22.72
615.548	22.02
615.74	21.85
615.932	21.84
616.124	20.9
616.315	20.59
616.507	20.64
616.699	20.91
616.891	20.92
617.083	20.85
617.275	20.57
617.467	20.93
617.659	21.33
617.85	22.08
618.042	22.5
618.234	23.04
618.426	22.49
618.618	21.79
618.809	22.03
619.001	21.88
619.193	21.79
619.384	22.05
619.576	22.09
619.768	22.03
619.959	20.82
620.151	19.77
620.343	19.61
620.534	20.21
620.726	20.08
620.917	20.16
621.109	20.31
621.301	20.35
621.492	20.02
621.684	20.36
621.875	20.15
622.067	21.17
622.258	21.18
622.45	21.12
622.641	20.88
622.832	21.32
623.024	20.74
623.215	20.27
623.407	19.91
623.598	20.62
623.789	20.23
623.981	20.71
624.172	19.59
624.363	19.66
624.555	19.22
624.746	19.19
624.937	19.37
625.129	19.59
625.32	19.76
625.511	20.07
625.702	19.23
625.893	19.23
626.085	18.64
626.276	19.28
626.467	19.19
626.658	19.79
626.849	19.96
627.04	19.89
627.231	19.93
627.422	20.11
627.614	20.52
627.805	20.61
627.996	20.76
628.187	20.91
628.378	21.09
628.569	22.11
628.76	21.99
628.951	21.3
629.142	21.1
629.332	20.67
629.523	20.4
629.714	19.87
629.905	20.63
630.096	20.54
630.287	20.86
630.478	20.43
630.669	20.1
630.859	20.27
631.05	20.64
631.241	21.04
631.432	21.37
631.623	21.62
631.813	21.87
632.004	21.11
632.195	20.18
632.385	19.59
632.576	19.74
632.767	19.78
632.957	19.09
633.148	19.24
633.339	19.02
633.529	19.06
633.72	18.68
633.91	18.78
634.101	18.77
634.292	19.63
634.482	19.82
634.673	20.1
634.863	20.06
635.054	20.41
635.244	20.47
635.435	20.94
635.625	21.33
635.815	21.36
636.006	21.6
636.196	22.22
636.387	22.16
636.577	22.77
636.767	22.46
636.958	22.33
637.148	22.55
637.338	23
637.529	22.63
637.719	22.44
637.909	22.84
638.099	22.72
638.29	21.96
638.48	22.11
638.67	21.68
638.86	21.84
639.05	21.71
639.241	21.67
639.431	21.4
639.621	22.26
639.811	21.94
640.001	21.73
640.191	21.42
640.381	22.01
640.571	22.03
640.761	22.19
640.951	22.64
641.141	22.84
641.331	22.83
641.521	23.03
641.711	22.22
641.901	22.23
642.091	22.4
642.281	22.2
642.471	22.41
642.661	22.64
642.851	22.77
643.041	22.91
643.231	22.79
643.42	23.03
643.61	23.35
643.8	23.91
643.99	24.12
644.18	24.41
644.369	24.61
644.559	24.56
644.749	24.9
644.939	25.15
645.128	24.52
645.318	24.65
645.508	24.3
645.697	24.4
645.887	23.69
646.076	24.34
646.266	23.69
646.456	23.18
646.645	23.35
646.835	22.53
647.024	21.66
647.214	21.83
647.403	21.24
647.593	21.21
647.782	20.41
647.972	20.57
648.161	20.04
648.351	21.02
648.54	21.89
648.73	21.91
648.919	21.48
649.108	22.06
649.298	22.15
649.487	22.49
649.677	22.81
649.866	22.91
650.055	23.27
650.244	23.71
650.434	22.34
650.623	22.76
650.812	22.2
651.002	23.15
651.191	23.4
651.38	23.15
651.569	23.16
651.758	23.63
651.947	24.17
652.137	24.23
652.326	23.47
652.515	24.22
652.704	23.95
652.893	24.44
653.082	23.64
653.271	23.52
653.46	23.89
653.649	23.97
653.838	22.82
654.027	22.3
654.216	21.61
654.405	22.68
654.594	23.06
654.783	23.07
654.972	23.14
655.161	24.04
655.35	23.73
655.539	23.57
655.728	24.03
655.916	23.82
656.105	24.56
656.294	24.81
656.483	24.66
656.672	24.25
656.86	23.17
657.049	23.24
657.238	21.93
657.427	21.87
657.615	21.73
657.804	21.51
657.993	21.42
658.181	20.69
658.37	20.76
658.559	20.01
658.747	20.14
658.936	20.46
659.125	20.38
659.313	21.03
659.502	21.41
659.69	21.23
659.879	20.55
660.067	21.26
660.256	21.66
660.444	22.22
660.633	22.51
660.821	22.79
661.01	22.92
661.198	22.16
661.387	22.78
661.575	22.16
661.763	22.54
661.952	23.44
662.14	24
662.328	24.26
662.517	23.59
662.705	23.66
662.893	23.83
663.082	23.98
663.27	24.51
663.458	23.6
663.646	24.07
663.834	23.88
664.023	23.81
664.211	23.84
664.399	23.01
664.587	23.4
664.775	23.48
664.963	23.79
665.152	23.58
665.34	23.05
665.528	23.21
665.716	23.82
665.904	23.9
666.092	23.54
666.28	23.81
666.468	24.29
666.656	23.6
666.844	23.98
667.032	23.52
667.22	23.78
667.408	24.16
667.596	23.84
667.784	23.46
667.971	24.1
668.159	24.02
668.347	22.86
668.535	22.56
668.723	23
668.911	23.23
669.098	23.21
669.286	23.03
669.474	23.63
669.662	25.24
669.849	25.8
670.037	25.71
670.225	27.01
670.413	26.97
670.6	27.86
670.788	27.68
670.976	26.75
671.163	26.62
671.351	27.23
671.538	27.16
671.726	26.69
671.913	26.22
672.101	25.63
672.289	25.36
672.476	25.65
672.664	25.25
672.851	25.35
673.039	26.13
673.226	25.73
673.413	25.48
673.601	25.3
673.788	25.47
673.976	25.32
674.163	25.86
674.35	24.99
674.538	24.71
674.725	25.2
674.912	26.19
675.1	25.6
675.287	26.21
675.474	26.41
675.662	25.84
675.849	25.99
676.036	25.36
676.223	24.53
676.411	25.2
676.598	25.11
676.785	25.32
676.972	24.6
677.159	25.36
677.346	25.35
677.533	25.45
677.721	25.95
677.908	25.76
678.095	26.44
678.282	26.45
678.469	25.93
678.656	26.18
678.843	25.49
679.03	24.46
679.217	24.39
679.404	24.3
679.591	24.23
679.778	24.44
679.964	23.94
680.151	23.8
680.338	23.67
680.525	23.76
680.712	23.92
680.899	23.54
681.086	24.17
681.272	24.39
681.459	24.54
681.646	24.43
681.833	24.4
682.02	24.91
682.206	25.35
682.393	26.22
682.58	25.82
682.766	26.09
682.953	26.79
683.14	27.06
683.326	26.86
683.513	27.1
683.7	26.81
683.886	26.89
684.073	25.97
684.259	26.16
684.446	25.68
684.632	26.58
684.819	26.76
685.005	27.08
685.192	26.65
685.378	26.84
685.565	26.7
685.751	27.17
685.938	26.5
686.124	26.64
686.31	26.78
686.497	27.97
686.683	28.43
686.87	27.91
687.056	27.09
687.242	27.95
687.429	27.16
687.615	25.8
687.801	25.67
687.987	26.07
688.174	27.25
688.36	26.05
688.546	24.38
688.732	24.44
688.918	24.88
689.105	25.76
689.291	25.53
689.477	25.96
689.663	27.88
689.849	28.12
690.035	28.72
690.221	27.58
690.407	29.29
690.593	30.72
690.779	29.66
690.965	28.99
691.151	28.13
691.337	28.85
691.523	29.22
691.709	28.8
691.895	29.34
692.081	29.31
692.267	31.07
692.453	30.46
692.639	29.27
692.825	29.87
693.011	30.24
693.196	31.29
693.382	31.47
693.568	31.69
693.754	31.01
693.94	30.75
694.125	30.19
694.311	28.94
694.497	28.49
694.682	30.3
694.868	30.45
695.054	29.74
695.239	29.52
695.425	28.44
695.611	27.15
695.796	27.06
695.982	27.27
696.168	27.49
696.353	27.97
696.539	26.95
696.724	25.6
696.91	25.56
697.095	26.29
697.281	25.68
697.466	25.58
697.652	25.92
697.837	26.02
698.023	25.64
698.208	24.5
698.393	23.85
698.579	23.89
698.764	24.32
698.949	23.92
699.135	24.17
699.32	24.09
699.505	24.61
699.691	24.02
699.876	23.65
700.061	23.48
700.246	24.74
700.432	24.11
700.617	25.53
700.802	25.16
700.987	26.87
701.172	27.09
701.358	27.99
701.543	26.75
701.728	28.32
701.913	30.43
702.098	30.49
702.283	30.97
702.468	31.94
702.653	31.11
702.838	31.21
703.023	30.56
703.208	29.55
703.393	30.47
703.578	32.1
703.763	31.98
703.948	30.77
704.133	31.31
704.318	32.19
704.503	33.94
704.688	34.6
704.873	34.59
705.057	34.62
705.242	34.58
705.427	33.69
705.612	33.25
705.797	33.74
705.981	34
706.166	32.9
706.351	30.94
706.536	30.31
706.72	29.75
706.905	31.37
707.09	31.51
707.274	32.97
707.459	32.65
707.644	31.98
707.828	31.58
708.013	32.35
708.197	32.39
708.382	32.13
708.567	32.22
708.751	32.52
708.936	31.99
709.12	30.94
709.305	29.17
709.489	30.43
709.673	31.2
709.858	31.68
710.042	30.76
710.227	31.59
710.411	32.94
710.596	33.77
710.78	33.85
710.964	32.81
711.149	32.78
711.333	33.72
711.517	32.7
711.702	33.17
711.886	32.48
712.07	33.05
712.254	33.01
712.438	32.57
712.623	30.85
712.807	30.92
712.991	31.1
713.175	31.17
713.359	31
713.544	30.06
713.728	29.44
713.912	29.7
714.096	30.2
714.28	29.35
714.464	29.8
714.648	30.14
714.832	29.82
715.016	29.37
715.2	28.98
715.384	29.34
715.568	30.55
715.752	31.13
715.936	30.88
716.12	29.66
716.304	30.1
716.488	29.13
716.671	28.97
716.855	29.69
717.039	31.15
717.223	31.38
717.407	30.78
717.59	30.08
717.774	29.27
717.958	29.97
718.142	30.42
718.325	31.37
718.509	33.17
718.693	32.03
718.877	31.57
719.06	31.99
719.244	33.02
719.428	34.16
719.611	36.29
719.795	36.54
719.978	37.05
720.162	37.35
720.345	37.06
720.529	36.46
720.713	39.14
720.896	38.52
721.08	37.85
721.263	37.63
721.446	38.24
721.63	38.77
721.813	38.83
721.997	38.98
722.18	37.99
722.364	38.71
722.547	39.41
722.73	39.28
722.914	39.67
723.097	39.62
723.28	41.52
723.464	41.91
723.647	40.57
723.83	41.71
724.013	40.67
724.197	41.76
724.38	41.72
724.563	41.01
724.746	40.48
724.929	42.13
725.112	44.03
725.296	42.32
725.479	41.61
725.662	40.73
725.845	39.64
726.028	40.67
726.211	40.95
726.394	40.4
726.577	40.23
726.76	40.69
726.943	38.58
727.126	37.52
727.309	36.53
727.492	38.23
727.675	37.76
727.858	37.64
728.041	36.39
728.224	35.88
728.407	36.2
728.589	36.09
728.772	34.64
728.955	35.45
729.138	34.26
729.321	35.86
729.503	34.27
729.686	34.86
729.869	35.65
730.052	36.67
730.234	37.07
730.417	35.48
730.6	35.52
730.782	35.99
730.965	36.09
731.148	36.6
731.33	35.53
731.513	35.5
731.695	36.13
731.878	36.15
732.061	34.47
732.243	32.88
732.426	33.31
732.608	32.73
732.791	33.26
732.973	32.19
733.156	33.01
733.338	33.42
733.52	33.11
733.703	32.97
733.885	32.16
734.068	34.05
734.25	35.85
734.432	37
734.615	36.23
734.797	35.87
734.979	37.37
735.162	35.99
735.344	37.32
735.526	36.66
735.708	34.62
735.891	34.64
736.073	34.62
736.255	34.54
736.437	33.66
736.619	37.73
736.802	37.82
736.984	37.55
737.166	39.71
737.348	39.06
737.53	40.63
737.712	42.97
737.894	42.94
738.076	42.27
738.258	41.7
738.44	43.77
738.622	42.44
738.804	42.9
738.986	42.18
739.168	41.82
739.35	41.38
739.532	40.67
739.714	40.46
739.896	40.95
740.078	41.77
740.259	42.37
740.441	42.82
740.623	43.24
740.805	42.68
740.987	42.9
741.168	41.04
741.35	42.55
741.532	42.48
741.714	42.33
741.895	41.8
742.077	40.97
742.259	41.21
742.44	40.33
742.622	39.23
742.804	41.1
742.985	40.95
743.167	41.63
743.348	42.36
743.53	43.26
743.711	43.72
743.893	44.92
744.075	44
744.256	44.5
744.438	45.65
744.619	45.86
744.8	47.06
744.982	48.9
745.163	53.38
745.345	50.72
745.526	51.84
745.707	53.43
745.889	54.91
746.07	56.63
746.252	55.01
746.433	51.08
746.614	51.79
746.795	50.3
746.977	52.87
747.158	50.35
747.339	50.1
747.52	49.87
747.702	47.84
747.883	45.5
748.064	44.73
748.245	45.77
748.426	48.78
748.607	46.81
748.788	48.86
748.97	46.49
749.151	45.31
749.332	43.76
749.513	43.31
749.694	44.25
749.875	47.86
750.056	46.87
750.237	47.31
750.418	49.83
750.599	53.61
750.78	50.25
750.96	49.34
751.141	48.87
751.322	52.54
751.503	49.92
751.684	49.86
751.865	45.89
752.046	48.12
752.226	46.99
752.407	44.94
752.588	44.13
752.769	46.34
752.949	47.06
753.13	48.01
753.311	44.93
753.492	46.46
753.672	48.66
753.853	49.5
754.034	48.36
754.214	47.17
754.395	49.3
754.575	49.86
754.756	47.96
754.937	49.31
755.117	47.85
755.298	50.3
755.478	51.18
755.659	48.82
755.839	47.98
756.02	49.85
756.2	52.19
756.381	50.48
756.561	48.31
756.741	49.17
756.922	47.38
757.102	50.97
757.283	50.22
757.463	49.09
757.643	51.23
757.823	52.31
758.004	49.9
758.184	47.58
758.364	46.11
758.545	46.03
758.725	43.88
758.905	44.27
759.085	43.3
759.265	43
759.446	42.22
759.626	40.28
759.806	38.94
759.986	39.07
760.166	41.46
760.346	42.16
760.526	40.75
760.706	42.4
760.886	43.81
761.066	43.65
761.246	42.67
761.426	42.57
761.606	41.6
761.786	42.55
761.966	43.35
762.146	41.86
762.326	42.27
762.506	42.6
762.686	41.75
762.866	40.22
763.046	38.85
763.225	39.92
763.405	39.3
763.585	38.39
763.765	37.68
763.945	37.18
764.124	38.07
764.304	38.4
764.484	38.96
764.664	37.97
764.843	38.1
765.023	40.26
765.203	39.35
765.382	41.16
765.562	42.92
765.741	43.8
765.921	45.54
766.101	45.62
766.28	43.89
766.46	44.3
766.639	44.6
766.819	45.25
766.998	42.92
767.178	43.29
767.357	44.33
767.537	45.12
767.716	44.61
767.896	44.61
768.075	42.95
768.254	42.71
768.434	42.6
768.613	43.51
768.792	42.7
768.972	42.44
769.151	41.9
769.33	40.81
769.51	41.26
769.689	43.07
769.868	42.68
770.047	42.97
770.226	43.69
770.406	42.6
770.585	46.92
770.764	45.98
770.943	48.03
771.122	49.69
771.301	51.74
771.48	51.67
771.66	53.89
771.839	52.03
772.018	55.99
772.197	55.6
772.376	55.14
772.555	56.06
772.734	56.43
772.913	58.69
773.092	57.58
773.271	55.33
773.449	54.7
773.628	50.6
773.807	52.34
773.986	50.44
774.165	51.33
774.344	53.72
774.523	50.04
774.701	53.25
774.88	52.34
775.059	54.46
775.238	56.74
775.417	57.3
775.595	59.32
775.774	59.06
775.953	58.18
776.131	58.13
776.31	54.29
776.489	56.2
776.667	51.58
776.846	50.48
777.025	49.97
777.203	47.31
777.382	46.05
777.56	45.24
777.739	46.84
777.917	49.69
778.096	53.69
778.274	59.47
778.453	57.02
778.631	60
778.81	60.98
778.988	60.96
779.166	63.58
779.345	66.6
779.523	71.82
779.702	74.48
779.88	73.76
780.058	70.32
780.237	67.66
780.415	70.49
780.593	68.52
780.771	68.71
780.95	71.66
781.128	70.82
781.306	70.25
781.484	66.62
781.662	67.01
781.841	69.01
782.019	68.45
782.197	68.77
782.375	65.72
782.553	66.87
782.731	65.69
782.909	62.37
783.087	63.37
783.265	65.33
783.443	62.34
783.621	57.5
783.799	54.81
783.977	55.79
784.155	59.26
784.333	61.14
784.511	60.35
784.689	65.05
784.867	64.56
785.045	63.7
785.223	61.13
785.4	65.09
785.578	64.23
785.756	62.1
785.934	63.66
786.112	63.35
786.289	65.2
786.467	67.95
786.645	63.6
786.823	65.97
787	66.35
787.178	66.94
787.356	63.03
787.533	63.43
787.711	66.44
787.889	65.7
788.066	61.9
788.244	61.79
788.421	62.42
788.599	61.91
788.776	62.05
788.954	63.52
789.131	61.59
789.309	62.62
789.486	66.53
789.664	67.32
789.841	68.45
790.019	68.36
790.196	66.42
790.373	64.13
790.551	68.17
790.728	70.96
790.906	74.01
791.083	76.99
791.26	79.63
791.437	73.4
791.615	73.37
791.792	71.38
791.969	77.12
792.146	75.18
792.324	74.78
792.501	77.67
792.678	73.73
792.855	67.45
793.032	70.5
793.209	67.38
793.387	71.71
793.564	71.31
793.741	74.13
793.918	70.5
794.095	74.25
794.272	74.68
794.449	68.24
794.626	67.72
794.803	68.47
794.98	62.54
795.157	65.06
795.334	61.89
795.511	58.56
795.688	57.02
795.864	62.98
796.041	60.43
796.218	62.01
796.395	60.93
796.572	62.56
796.749	64.8
796.925	67.7
797.102	68.62
797.279	69.9
797.456	72.39
797.632	71.71
797.809	68.81
797.986	71.53
798.162	73.87
798.339	76.11
798.516	75.63
798.692	73.28
798.869	76.13
799.046	79.53
799.222	77.21
799.399	75.58
799.575	79.06
799.752	76.24
799.928	74.24
800.105	69.97
800.281	72.62
800.458	72.02
800.634	69.7
800.811	67.66
800.987	69.08
801.163	69.91
801.34	75.33
801.516	75.38
801.692	77.28
801.869	79.31
802.045	83.49
802.221	77.79
802.398	76.51
802.574	80.9
802.75	83.98
802.926	84.31
803.103	90.66
803.279	83.44
803.455	79.91
803.631	86.76
803.807	91.68
803.983	94.4
804.16	102.13
804.336	108.11
804.512	107.8
804.688	113.32
804.864	108.34
805.04	106.84
805.216	109.08
805.392	111.44
805.568	108.1
805.744	103.12
805.92	95.14
806.096	96.93
806.272	97.19
806.448	97
806.623	90.45
806.799	94.68
806.975	87.09
807.151	88.84
807.327	93.11
807.503	91.09
807.678	96.19
807.854	100.79
808.03	94.8
808.206	91.3
808.381	89.76
808.557	83.07
808.733	82.06
808.908	87.3
809.084	83.75
809.26	81.88
809.435	82.08
809.611	75.02
809.787	71.76
809.962	77.92
810.138	82.24
810.313	88.13
810.489	92.47
810.664	86.65
810.84	82.34
811.015	86.29
811.191	90.37
811.366	89.14
811.542	92.35
811.717	93.25
811.892	90.29
812.068	91.58
812.243	89.22
812.419	90.74
812.594	96.72
812.769	101.53
812.944	100.53
813.12	93.39
813.295	95.1
813.47	89.89
813.645	95.06
813.821	95.26
813.996	98.65
814.171	100.71
814.346	99.51
814.521	98.33
814.697	99.68
814.872	93.97
815.047	98.4
815.222	95.09
815.397	100.33
815.572	101.44
815.747	105.38
815.922	99.38
816.097	96.65
816.272	98.05
816.447	91.38
816.622	89.06
816.797	91.1
816.972	93.16
817.147	93.95
817.322	92.27
817.496	89.95
817.671	84.31
817.846	81.81
818.021	81.42
818.196	76.8
818.371	78.41
818.545	76.72
818.72	76.34
818.895	69.35
819.069	68.53
819.244	68.67
819.419	64.54
819.594	59.34
819.768	55.62
819.943	51.13
820.117	49.62
820.292	49.94
820.467	48.85
820.641	46.58
820.816	43.93
820.99	41.48
821.165	37.64
821.339	36.27
821.514	35.18
821.688	34.49
821.863	32.99
822.037	32.29
822.212	30.67
822.386	29.63
822.56	28.75
822.735	28.34
822.909	27.11
823.084	27.77
823.258	27.1
823.432	27.81
823.606	27.92
823.781	29.19
823.955	30.24
824.129	30.49
824.303	31.55
824.478	33.17
824.652	34.42
824.826	37.28
825	37.62
825.174	39.26
825.348	40.13
825.523	39.58
825.697	38.44
825.871	37.78
826.045	38.31
826.219	38.75
826.393	38.1
826.567	36.73
826.741	37.64
826.915	38.33
827.089	40.26
827.263	41.36
827.437	43.01
827.611	45.6
827.784	47.88
827.958	50.18
828.132	51.66
828.306	52.21
828.48	56.57
828.654	56.66
828.827	60.53
829.001	60.17
829.175	60.44
829.349	61.81
829.522	64.72
829.696	62.39
829.87	65.99
830.044	68.53
830.217	73.68
830.391	77.99
830.565	79.1
830.738	74.84
830.912	79.76
831.085	77.1
831.259	74.15
831.432	74.49
831.606	80.82
831.779	72.86
831.953	70.34
832.126	64.82
832.3	59.1
832.473	54.06
832.647	58.01
832.82	53.38
832.994	55.54
833.167	53.65
833.34	52.74
833.514	52.58
833.687	53.65
833.86	51.78
834.034	54.66
834.207	53.73
834.38	55.94
834.553	54.44
834.727	55.27
834.9	55.02
835.073	60.42
835.246	63.11
835.419	62.49
835.593	67.15
835.766	70.5
835.939	69.43
836.112	77.43
836.285	78.04
836.458	81.97
836.631	86.31
836.804	90.75
836.977	93.47
837.15	95.04
837.323	97.77
837.496	100.48
837.669	104.37
837.842	116.4
838.015	114.16
838.188	114.31
838.361	112.83
838.533	104.85
838.706	106.2
838.879	109.54
839.052	116.76
839.225	123.49
839.398	117.8
839.57	116.07
839.743	106.03
839.916	114.33
840.088	109.44
840.261	112.25
840.434	131.38
840.607	122.06
840.779	123.59
840.952	111.64
841.124	104.53
841.297	116.14
841.47	123.53
841.642	128.95
841.815	123.09
841.987	141.28
842.16	140.38
842.332	148.78
842.505	162.47
842.677	152.57
842.85	177.1
843.022	182.31
843.194	179.11
843.367	169.44
843.539	159.44
843.712	136.43
843.884	133.8
844.056	134.37
844.229	122.75
844.401	127.12
844.573	129.23
844.745	120.54
844.918	130.05
845.09	120.58
845.262	140.86
845.434	151.25
845.606	173.33
845.779	168.82
845.951	193.69
846.123	175.55
846.295	192.86
846.467	200.99
846.639	191.58
846.811	192.31
846.983	201.68
847.155	188.76
847.327	170.25
847.499	172.7
847.671	225.1
847.843	211.35
848.015	304.51
848.187	244.01
848.359	236.86
848.531	265.98
848.703	245.71
848.875	309.22
849.047	291.84
849.218	399.39
849.39	391.18
849.562	291.06
849.734	260.99
849.905	217.04
850.077	283.29
850.249	389.96
850.421	444.39
850.592	445.5
850.764	345.86
850.936	335
851.107	386.03
851.279	435.17
851.451	359.23
851.622	329.69
851.794	286.97
851.965	235.71
852.137	216.99
852.308	202.22
852.48	206.19
852.651	210.17
852.823	209.97
852.994	182.04
853.166	174.88
853.337	186.95
853.509	214.82
853.68	276.95
853.851	288.43
854.023	344.6
854.194	326.37
854.365	380.34
854.537	394.33
854.708	587.5
854.879	1031.28
855.05	870.05
855.222	720.16
855.393	461.6
855.564	523.95
855.735	471.59
855.906	351.3
856.078	405.36
856.249	457.2
856.42	413.19
856.591	348.31
856.762	338.42
856.933	414.15
857.104	479.27
857.275	512.04
857.446	285.15
857.617	275.78
857.788	287.74
857.959	254.95
858.13	195.33
858.301	228.48
858.472	264.26
858.643	252.58
858.814	300
858.985	274.48
859.155	290.18
859.326	413.54
859.497	432.56
859.668	382.02
859.839	636.3
860.009	425.86
860.18	298.69
860.351	239.54
860.522	242.75
860.692	193.92
860.863	215.31
861.034	196.57
861.204	166.94
861.375	170.01
861.546	177.46
861.716	163.62
861.887	197.75
862.057	252.57
862.228	218.81
862.398	236.89
862.569	228.78
862.739	231.92
862.91	220.54
863.08	289.49
863.251	278
863.421	298.32
863.592	268.34
863.762	261.94
863.932	214.41
864.103	260.56
864.273	231.13
864.443	267.45
864.614	219.65
864.784	258.86
864.954	250.49
865.125	285.63
865.295	293.16
865.465	292.31
865.635	333.33
865.805	322.17
865.976	307.99
866.146	317.81
866.316	358.46
866.486	542.32
866.656	370.22
866.826	369.88
866.996	295.51
867.166	283.93
867.336	284.43
867.506	236.02
867.676	225.31
867.846	224.85
868.016	247.97
868.186	236.33
868.356	203.73
868.526	230.05
868.696	242.91
868.866	279.87
869.036	268.43
869.206	257.56
869.376	300.15
869.545	305.25
869.715	351.23
869.885	371.77
870.055	381.63
870.224	461.54
870.394	666.47
870.564	498.32
870.734	492.41
870.903	436.61
871.073	524.32
871.243	412.29
871.412	423.01
871.582	323.08
871.751	297.83
871.921	297.67
872.091	270.92
872.26	244.52
872.43	191.45
872.599	198.65
872.769	230.34
872.938	216.06
873.108	290.29
873.277	301.68
873.446	390.91
873.616	346.78
873.785	376.27
873.955	489.2
874.124	343.37
874.293	904.1
874.463	985.63
874.632	1161.36
874.801	1237.82
874.971	382.14
875.14	416.55
875.309	288.11
875.478	275.3
875.647	281.1
875.817	227.51
875.986	255.1
876.155	261.36
876.324	260.42
876.493	250.12
876.662	230.92
876.831	250.54
877	229.24
877.17	264.53
877.339	336.65
877.508	237.86
877.677	278.39
877.846	318.07
878.015	267.44
878.184	241.4
878.352	225.12
878.521	226.18
878.69	226.58
878.859	207.02
879.028	222.4
879.197	196.66
879.366	227.32
879.534	201.08
879.703	181.15
879.872	176.49
880.041	171.86
880.21	156.11
880.378	152.05
880.547	137.26
880.716	131
880.884	110.38
881.053	99.77
881.222	90.22
881.39	84.34
881.559	76.04
881.727	70.54
881.896	66.7
882.065	68.06
882.233	66.74
882.402	68.28
882.57	66.46
882.739	66.02
882.907	65.3
883.076	68.12
883.244	71.45
883.412	71.96
883.581	68.63
883.749	73.92
883.918	71.62
884.086	72.27
884.254	74.82
884.423	76.88
884.591	79.64
884.759	80.71
884.927	76.68
885.096	72.31
885.264	80.11
885.432	91.53
885.6	87.59
885.769	97.04
885.937	103.33
886.105	98.07
886.273	100.26
886.441	96.55
886.609	107.82
886.777	126.26
886.945	148.99
887.113	149.67
887.281	165.11
887.449	169.42
887.617	164.36
887.785	182.05
887.953	195.92
888.121	198.75
888.289	225.53
888.457	280.31
888.625	354.13
888.793	259.95
888.961	287.67
889.129	212.49
889.296	230.2
889.464	253.32
889.632	212.14
889.8	229.13
889.967	248.99
890.135	269.32
