Data from JASIL_3900_Reflection_4.txt Node
Date: Sat Nov 07 20:07:52 EST 2015
User: Geneva
Spectrometer: USB4E03002
Autoset integration time: false
Trigger mode: 4
Integration Time (sec): 1.000000E-1
Scans to average: 10
Electric dark correction enabled: true
Nonlinearity correction enabled: false
Boxcar width: 5
Stray light correction enabled: false
XAxis mode: Wavelengths
Stop averaging: false
Number of Pixels in Spectrum: 3648
>>>>>Begin Spectral Data<<<<<
177.575	57.92
177.794	68.31
178.014	76.04
178.233	117.45
178.452	87.91
178.672	6.83
178.891	184.92
179.11	287.07
179.33	252.32
179.549	144
179.768	107.88
179.987	93.5
180.207	112
180.426	145.48
180.645	205.04
180.864	211.32
181.084	200.88
181.303	253.03
181.522	201.49
181.741	178.62
181.96	165.94
182.179	159.57
182.398	207.43
182.618	227.68
182.837	232.58
183.056	315.74
183.275	354.35
183.494	333.94
183.713	247.71
183.932	296.54
184.151	275.15
184.37	284.92
184.589	207.5
184.808	178.28
185.027	141.35
185.246	121
185.465	88.85
185.684	91.38
185.903	82.67
186.122	85.52
186.341	100.09
186.56	109.6
186.779	108.5
186.998	105.99
187.216	107.32
187.435	117.55
187.654	112.95
187.873	146.3
188.092	109.75
188.311	112.59
188.53	133.16
188.748	123.08
188.967	114.53
189.186	108.88
189.405	128.98
189.623	130.74
189.842	137.22
190.061	142.08
190.28	168.39
190.498	191.05
190.717	174.9
190.936	167.14
191.154	157.27
191.373	130.47
191.592	134.69
191.81	110.9
192.029	117.55
192.248	107.98
192.466	98.8
192.685	64.48
192.904	74.57
193.122	94.68
193.341	102.01
193.559	99.9
193.778	119.1
193.996	121.13
194.215	144.13
194.433	148.82
194.652	168.41
194.87	203.99
195.089	226.2
195.307	183.55
195.526	183.52
195.744	176.62
195.963	168.3
196.181	139.41
196.399	158.51
196.618	150
196.836	140.27
197.055	127.03
197.273	116.02
197.491	114.51
197.71	134.89
197.928	130.85
198.146	118.49
198.365	123.48
198.583	137.5
198.801	137.74
199.019	132.17
199.238	145.08
199.456	132.08
199.674	156.66
199.892	187.42
200.111	130.39
200.329	138.35
200.547	144.57
200.765	159.02
200.983	158.56
201.202	136.85
201.42	144.48
201.638	139.81
201.856	175.68
202.074	175.24
202.292	181.66
202.51	207.64
202.728	195.8
202.946	209.47
203.165	182.61
203.383	176.53
203.601	168.96
203.819	157.2
204.037	163.47
204.255	156.41
204.473	157.16
204.691	152.84
204.909	135.56
205.127	131.53
205.345	132.37
205.562	133.52
205.78	148.43
205.998	153.08
206.216	143.75
206.434	135.35
206.652	110.33
206.87	101.61
207.088	113.22
207.306	115.71
207.523	111.42
207.741	92.69
207.959	98.35
208.177	112.33
208.395	112.58
208.612	131.12
208.83	148.39
209.048	204.44
209.266	216.32
209.483	188.31
209.701	222.69
209.919	241.8
210.136	260.2
210.354	239.32
210.572	157.48
210.79	159.17
211.007	136.4
211.225	110.7
211.442	109.98
211.66	100.61
211.878	108.19
212.095	99.48
212.313	107.9
212.53	110.06
212.748	104.69
212.966	118.56
213.183	107.95
213.401	115.65
213.618	122.75
213.836	120.24
214.053	135.56
214.271	124.82
214.488	141.45
214.705	136.61
214.923	143.97
215.14	155.31
215.358	157.62
215.575	156.04
215.793	133.54
216.01	127.88
216.227	153.3
216.445	151.94
216.662	156.19
216.879	142.46
217.097	157.44
217.314	175.86
217.531	164.68
217.749	139.37
217.966	143.54
218.183	135.76
218.4	150.23
218.618	131.02
218.835	110.06
219.052	100.84
219.269	104.13
219.487	86.33
219.704	69.22
219.921	66.77
220.138	64.88
220.355	49.18
220.572	58.19
220.79	64.36
221.007	52.95
221.224	49.2
221.441	58.34
221.658	62.52
221.875	68.7
222.092	62.14
222.309	56.73
222.526	51.5
222.743	58.26
222.96	62.44
223.177	57.73
223.394	52.63
223.611	66.6
223.828	64.02
224.045	54.97
224.262	53.96
224.479	55.24
224.696	60.04
224.913	59.62
225.13	54.15
225.347	51.84
225.564	49.54
225.781	46.08
225.997	38.9
226.214	35.86
226.431	31.55
226.648	30.49
226.865	28.86
227.082	25.25
227.298	21.54
227.515	23.99
227.732	21.4
227.949	21.13
228.165	22.6
228.382	20.86
228.599	21.5
228.816	21.41
229.032	20.26
229.249	21.42
229.466	21.35
229.682	25.16
229.899	24.47
230.116	26.96
230.332	25.2
230.549	25.84
230.765	30.49
230.982	26.51
231.199	32.26
231.415	32.18
231.632	35.6
231.848	39.04
232.065	32.85
232.281	33.35
232.498	32.05
232.714	35.15
232.931	34.07
233.147	32.75
233.364	36.13
233.58	32.56
233.797	37.7
234.013	37.45
234.23	34.39
234.446	36.62
234.662	37.77
234.879	41.91
235.095	43.62
235.312	45.91
235.528	48.34
235.744	48
235.961	49.93
236.177	43.35
236.393	39.31
236.61	42.17
236.826	40.12
237.042	37.67
237.258	34.44
237.475	33.34
237.691	31.37
237.907	28.33
238.123	26.95
238.339	24.12
238.556	28.95
238.772	29.99
238.988	27.17
239.204	29.08
239.42	29.52
239.636	27.9
239.853	25.08
240.069	22.42
240.285	20.29
240.501	19.87
240.717	20.28
240.933	17.24
241.149	14.42
241.365	14.49
241.581	14.21
241.797	13.29
242.013	12.26
242.229	13.84
242.445	14.11
242.661	14.47
242.877	14.79
243.093	13.98
243.309	14.62
243.525	15.63
243.741	15.85
243.957	15.78
244.173	16.64
244.388	15.71
244.604	12.84
244.82	11.33
245.036	11.42
245.252	10.34
245.468	10.02
245.683	10.83
245.899	10.36
246.115	10.29
246.331	9.94
246.547	9.26
246.762	10.26
246.978	11.4
247.194	12.15
247.409	11.95
247.625	12.69
247.841	12.61
248.057	12.42
248.272	13.33
248.488	13.16
248.703	13.01
248.919	13.73
249.135	13.55
249.35	12.53
249.566	13.23
249.782	14.06
249.997	13.88
250.213	14.33
250.428	13.46
250.644	15.17
250.859	15.79
251.075	15.86
251.29	15.31
251.506	14.98
251.721	14.25
251.937	14.02
252.152	13.27
252.368	13.59
252.583	14.28
252.798	15.7
253.014	14.38
253.229	14.09
253.445	13.75
253.66	15.98
253.875	17.5
254.091	19.34
254.306	18.33
254.521	18.65
254.737	18.18
254.952	17.43
255.167	16
255.383	16.01
255.598	17.1
255.813	16.78
256.028	16.37
256.244	14.37
256.459	14.21
256.674	14.08
256.889	12.89
257.104	11.76
257.32	11.85
257.535	11.64
257.75	10.43
257.965	9.33
258.18	9.42
258.395	8.35
258.61	8.32
258.826	7.63
259.041	7.63
259.256	7.59
259.471	7.85
259.686	7.44
259.901	7.49
260.116	8.12
260.331	7.77
260.546	8.19
260.761	8.58
260.976	8.78
261.191	8.87
261.406	8.95
261.621	9.47
261.836	10.15
262.05	9.43
262.265	9.5
262.48	9
262.695	9.82
262.91	10.21
263.125	11.49
263.34	12.45
263.555	14.17
263.769	14.55
263.984	15.25
264.199	14.52
264.414	15.72
264.629	15.31
264.843	15.35
265.058	14.96
265.273	12.89
265.488	11.53
265.702	10.77
265.917	10.24
266.132	9.97
266.346	9.73
266.561	9.54
266.776	10.32
266.99	9.77
267.205	10.03
267.42	9.72
267.634	10.01
267.849	9.99
268.063	10.68
268.278	10.48
268.492	10.57
268.707	10
268.922	9.97
269.136	8.27
269.351	8.27
269.565	8.27
269.78	8.24
269.994	8.22
270.209	8.01
270.423	7.13
270.637	6.69
270.852	6.63
271.066	6.82
271.281	6.69
271.495	7.52
271.709	7.69
271.924	7.31
272.138	7.56
272.353	8.11
272.567	7.74
272.781	7.93
272.996	8.22
273.21	8.49
273.424	8.66
273.638	8.31
273.853	8.34
274.067	7.8
274.281	8.04
274.495	7.66
274.71	7.61
274.924	8.04
275.138	8.24
275.352	7.96
275.566	8.64
275.781	8.63
275.995	8.76
276.209	8.59
276.423	8.93
276.637	8.1
276.851	9.2
277.065	9.08
277.279	9.33
277.493	9.02
277.707	9.54
277.921	8.26
278.135	7.37
278.349	7.32
278.563	7.52
278.777	8.06
278.991	8.84
279.205	8.18
279.419	8.24
279.633	8.82
279.847	9.2
280.061	9.14
280.275	9.33
280.489	10.38
280.703	9.97
280.917	9.63
281.131	9.14
281.344	8.85
281.558	8.12
281.772	7.16
281.986	6.42
282.2	6.22
282.414	6.24
282.627	6.09
282.841	5.7
283.055	5.88
283.269	5.38
283.482	5.29
283.696	5.02
283.91	5.08
284.123	5.74
284.337	6.22
284.551	5.83
284.764	6.05
284.978	5.95
285.192	6.03
285.405	6.02
285.619	6.68
285.833	6.91
286.046	6.91
286.26	7.42
286.473	7.31
286.687	6.58
286.9	7.17
287.114	6.66
287.327	6.85
287.541	6.53
287.754	6.79
287.968	6.22
288.181	6.33
288.395	6.75
288.608	7.05
288.822	6.63
289.035	6.6
289.248	5.91
289.462	6.14
289.675	5.75
289.889	5.8
290.102	5.08
290.315	5.7
290.529	5.27
290.742	4.83
290.955	4.54
291.169	4.83
291.382	5.01
291.595	5.13
291.808	4.86
292.022	5.26
292.235	4.89
292.448	5.54
292.661	4.55
292.875	4.49
293.088	4.72
293.301	4.27
293.514	4.24
293.727	4.71
293.94	4.7
294.153	4.21
294.367	4.11
294.58	3.96
294.793	4.01
295.006	4.29
295.219	4.76
295.432	4.47
295.645	4.78
295.858	4.64
296.071	4.28
296.284	4.1
296.497	4.34
296.71	4.44
296.923	4.84
297.136	4.86
297.349	4.82
297.562	4.65
297.775	4.97
297.988	4.86
298.201	4.84
298.414	5.05
298.626	5.53
298.839	5.9
299.052	6.12
299.265	6.36
299.478	5.73
299.691	5.64
299.903	5.38
300.116	5.31
300.329	5
300.542	5.36
300.755	5.53
300.967	5.08
301.18	4.51
301.393	4
301.605	3.4
301.818	4.05
302.031	4.78
302.243	4.87
302.456	5.03
302.669	5.3
302.881	5.77
303.094	5.12
303.307	5.04
303.519	5.41
303.732	5.58
303.944	5.76
304.157	5.8
304.37	5.18
304.582	5.55
304.795	5.24
305.007	5.83
305.22	5.91
305.432	6.54
305.645	7.06
305.857	6.97
306.069	6.54
306.282	6.88
306.494	7.01
306.707	7.32
306.919	6.59
307.132	6.04
307.344	5.71
307.556	5.34
307.769	5.56
307.981	5.73
308.193	5.66
308.406	6.15
308.618	5.98
308.83	5.47
309.043	5
309.255	5.13
309.467	5.3
309.679	5.45
309.892	5.09
310.104	4.81
310.316	4.68
310.528	4.6
310.74	4.34
310.953	4.28
311.165	4.7
311.377	4.9
311.589	5.28
311.801	5.41
312.013	5.2
312.225	5.54
312.437	5.72
312.649	5.63
312.862	5.6
313.074	5.66
313.286	5.55
313.498	5.22
313.71	5.7
313.922	5.55
314.134	5.73
314.346	5.76
314.558	5.55
314.77	5.78
314.982	6.11
315.193	6.16
315.405	6.09
315.617	6
315.829	5.98
316.041	6.41
316.253	6.17
316.465	6.16
316.677	6.27
316.888	6.6
317.1	6.41
317.312	6.1
317.524	6.52
317.736	7.31
317.947	7.8
318.159	7.89
318.371	6.78
318.583	7.37
318.794	6.87
319.006	6.68
319.218	6.43
319.43	6.32
319.641	6.65
319.853	7.02
320.064	7.05
320.276	6.96
320.488	6.86
320.699	7
320.911	6.78
321.123	7.57
321.334	7.99
321.546	7.98
321.757	8.17
321.969	8.02
322.18	7.67
322.392	7.06
322.603	6.67
322.815	6.72
323.026	6.74
323.238	6.28
323.449	5.6
323.661	5.2
323.872	5.33
324.083	5.11
324.295	4.92
324.506	4.96
324.718	5.57
324.929	5.48
325.14	5.47
325.352	5.58
325.563	5.95
325.774	6.32
325.986	6.61
326.197	6.6
326.408	6.65
326.62	6.73
326.831	6.72
327.042	6.25
327.253	6.35
327.464	6.85
327.676	7.12
327.887	7.18
328.098	7.09
328.309	6.82
328.52	6.64
328.732	6.55
328.943	6.62
329.154	6.78
329.365	7.3
329.576	7.77
329.787	7.43
329.998	7.45
330.209	7.4
330.42	7.36
330.631	7.46
330.842	7.61
331.053	7.44
331.264	7.46
331.475	7.44
331.686	6.88
331.897	6.5
332.108	6.28
332.319	5.63
332.53	5.65
332.741	5.64
332.952	5.76
333.163	6.04
333.374	6.36
333.585	6.28
333.795	6.19
334.006	6.53
334.217	6.55
334.428	7.23
334.639	7.95
334.849	7.53
335.06	7.65
335.271	7.47
335.482	7.51
335.692	7.49
335.903	7.53
336.114	7.62
336.325	7.55
336.535	7.81
336.746	7.67
336.957	7.37
337.167	7.55
337.378	7.66
337.589	7.84
337.799	7.61
338.01	7.5
338.22	7.09
338.431	6.45
338.642	6.32
338.852	5.97
339.063	5.27
339.273	5.44
339.484	5.35
339.694	5.55
339.905	5.45
340.115	5.6
340.326	6.13
340.536	6.09
340.746	6.55
340.957	6.34
341.167	6.62
341.378	7.04
341.588	7.04
341.799	7.01
342.009	6.54
342.219	6.36
342.43	6.3
342.64	5.88
342.85	5.97
343.061	5.83
343.271	5.95
343.481	5.82
343.691	5.67
343.902	5.43
344.112	5.69
344.322	5.88
344.532	6.3
344.743	6.01
344.953	5.68
345.163	5.54
345.373	5.81
345.583	5.85
345.793	5.76
346.004	6
346.214	6.08
346.424	5.99
346.634	6.12
346.844	5.9
347.054	5.94
347.264	6.6
347.474	7.18
347.684	7.06
347.894	7.2
348.104	7.64
348.314	7.72
348.524	7.8
348.734	7.58
348.944	7.58
349.154	7.82
349.364	7.89
349.574	7.26
349.784	7.17
349.994	6.97
350.204	6.51
350.413	5.87
350.623	5.71
350.833	5.41
351.043	5.29
351.253	5.1
351.463	4.52
351.672	4.36
351.882	4.36
352.092	4.08
352.302	4.14
352.511	4.43
352.721	4.78
352.931	4.47
353.141	4.69
353.35	5.16
353.56	5.02
353.77	5.45
353.979	5.45
354.189	5.58
354.399	5.27
354.608	5.03
354.818	4.92
355.027	4.77
355.237	4.93
355.447	4.85
355.656	4.68
355.866	4.83
356.075	4.73
356.285	4.74
356.494	4.76
356.704	4.96
356.913	5.18
357.123	5.41
357.332	5.39
357.542	5.51
357.751	5.41
357.96	5.43
358.17	5.21
358.379	5.06
358.589	5.35
358.798	5.18
359.007	5.25
359.217	4.88
359.426	4.66
359.635	4.66
359.845	4.77
360.054	4.62
360.263	4.7
360.472	4.79
360.682	4.83
360.891	4.37
361.1	4.47
361.309	4.51
361.519	4.63
361.728	4.78
361.937	4.76
362.146	4.58
362.355	4.69
362.564	4.39
362.774	4.42
362.983	4.56
363.192	4.95
363.401	5.14
363.61	4.99
363.819	5.15
364.028	5.01
364.237	4.87
364.446	4.85
364.655	4.87
364.864	5.02
365.073	5.01
365.282	4.94
365.491	4.68
365.7	4.67
365.909	5.02
366.118	4.97
366.327	4.65
366.536	4.94
366.745	5.15
366.954	5.15
367.162	5.19
367.371	4.98
367.58	4.87
367.789	5.15
367.998	5.24
368.207	4.99
368.415	5.14
368.624	5.49
368.833	5.31
369.042	5.55
369.25	5.5
369.459	5.53
369.668	5.53
369.877	5.28
370.085	5.15
370.294	4.79
370.503	4.77
370.711	4.82
370.92	4.77
371.129	4.76
371.337	3.99
371.546	3.88
371.754	3.91
371.963	4.05
372.171	4.06
372.38	4.15
372.589	4.06
372.797	4.21
373.006	3.95
373.214	4.01
373.423	3.88
373.631	4.17
373.84	4.23
374.048	4.1
374.256	3.97
374.465	4.36
374.673	4.11
374.882	4.26
375.09	3.92
375.298	3.9
375.507	3.53
375.715	3.74
375.923	3.57
376.132	3.58
376.34	3.63
376.548	3.59
376.757	3.28
376.965	3.47
377.173	3.49
377.381	3.85
377.59	4.19
377.798	4.43
378.006	4.01
378.214	4.19
378.423	4.18
378.631	4.17
378.839	4.26
379.047	4.28
379.255	4.08
379.463	4.09
379.671	3.77
379.879	3.64
380.088	3.91
380.296	4.33
380.504	4.34
380.712	4.59
380.92	4.6
381.128	4.87
381.336	4.7
381.544	4.75
381.752	4.69
381.96	4.89
382.168	4.71
382.376	4.42
382.584	4.53
382.791	4.62
382.999	4.55
383.207	4.5
383.415	4.38
383.623	4.65
383.831	4.69
384.039	4.84
384.247	4.74
384.454	4.78
384.662	4.84
384.87	4.7
385.078	4.84
385.285	4.44
385.493	4.54
385.701	4.4
385.909	4.31
386.116	4.46
386.324	4.33
386.532	4.12
386.739	4.09
386.947	3.94
387.155	4.13
387.362	3.94
387.57	4.25
387.778	4.12
387.985	4.14
388.193	4.16
388.4	4.07
388.608	4.15
388.816	4.31
389.023	4.24
389.231	4.34
389.438	4.36
389.646	4.24
389.853	4.19
390.061	4.14
390.268	4.17
390.475	4.05
390.683	4.09
390.89	3.95
391.098	3.89
391.305	3.92
391.512	3.84
391.72	3.56
391.927	3.62
392.135	3.6
392.342	3.59
392.549	3.63
392.756	3.73
392.964	3.55
393.171	3.72
393.378	3.81
393.586	3.54
393.793	3.52
394	3.44
394.207	3.46
394.414	3.55
394.622	3.59
394.829	3.62
395.036	3.7
395.243	3.62
395.45	3.38
395.657	3.43
395.864	3.7
396.072	3.6
396.279	3.79
396.486	3.65
396.693	3.47
396.9	3.59
397.107	3.33
397.314	3.2
397.521	3.39
397.728	3.44
397.935	3.52
398.142	3.28
398.349	3.42
398.556	3.34
398.763	3.35
398.97	3.4
399.177	3.3
399.383	3.39
399.59	3.35
399.797	3.28
400.004	3.16
400.211	3.15
400.418	3.34
400.625	3.27
400.831	3.34
401.038	3.25
401.245	3.34
401.452	3.33
401.658	3.4
401.865	3.39
402.072	3.45
402.279	3.42
402.485	3.06
402.692	3.04
402.899	3.11
403.105	3.06
403.312	3.36
403.519	3.43
403.725	3.36
403.932	3.53
404.138	3.43
404.345	3.31
404.552	3.48
404.758	3.73
404.965	3.79
405.171	3.83
405.378	3.73
405.584	3.64
405.791	3.29
405.997	3.46
406.204	3.41
406.41	3.7
406.617	3.78
406.823	3.59
407.029	3.5
407.236	3.44
407.442	3.44
407.649	3.68
407.855	3.44
408.061	3.65
408.268	3.58
408.474	3.32
408.68	3.18
408.887	3.29
409.093	3.39
409.299	3.44
409.505	3.4
409.712	3.27
409.918	3.22
410.124	3.25
410.33	3.19
410.537	3.16
410.743	3.26
410.949	3.15
411.155	3.15
411.361	3.24
411.567	3.28
411.773	3.35
411.98	3.29
412.186	3.43
412.392	3.57
412.598	3.59
412.804	3.37
413.01	3.33
413.216	3.36
413.422	3.29
413.628	3.05
413.834	2.81
414.04	2.98
414.246	3.1
414.452	2.92
414.658	2.79
414.864	2.77
415.07	2.88
415.275	2.83
415.481	2.81
415.687	2.86
415.893	2.97
416.099	3.02
416.305	2.73
416.511	2.68
416.716	2.63
416.922	2.67
417.128	2.66
417.334	2.69
417.539	2.72
417.745	2.63
417.951	2.58
418.157	2.52
418.362	2.49
418.568	2.58
418.774	2.58
418.979	2.61
419.185	2.62
419.391	2.62
419.596	2.52
419.802	2.5
420.008	2.49
420.213	2.57
420.419	2.61
420.624	2.69
420.83	2.65
421.035	2.63
421.241	2.66
421.446	2.61
421.652	2.64
421.857	2.7
422.063	2.68
422.268	2.73
422.474	2.62
422.679	2.59
422.885	2.55
423.09	2.47
423.295	2.42
423.501	2.31
423.706	2.3
423.911	2.22
424.117	2.18
424.322	2.23
424.527	2.27
424.733	2.21
424.938	2.23
425.143	2.22
425.349	2.35
425.554	2.49
425.759	2.55
425.964	2.63
426.169	2.65
426.375	2.65
426.58	2.67
426.785	2.58
426.99	2.67
427.195	2.78
427.4	2.75
427.605	2.78
427.811	2.73
428.016	2.85
428.221	2.87
428.426	2.96
428.631	3.1
428.836	2.98
429.041	3.06
429.246	3.03
429.451	3.05
429.656	3.21
429.861	3.14
430.066	3.12
430.271	3.04
430.476	2.96
430.681	2.89
430.886	2.81
431.09	2.85
431.295	2.74
431.5	2.68
431.705	2.42
431.91	2.17
432.115	2.19
432.32	2.23
432.524	2.13
432.729	2.11
432.934	2.01
433.139	2.02
433.343	2.01
433.548	2.09
433.753	2.2
433.958	2.34
434.162	2.48
434.367	2.49
434.572	2.41
434.776	2.56
434.981	2.58
435.186	2.8
435.39	2.79
435.595	2.86
435.799	2.75
436.004	2.67
436.209	2.64
436.413	2.58
436.618	2.44
436.822	2.25
437.027	2.15
437.231	2.19
437.436	2
437.64	2.01
437.845	1.95
438.049	2.12
438.253	2.07
438.458	2.04
438.662	2.17
438.867	2.27
439.071	2.42
439.275	2.48
439.48	2.46
439.684	2.5
439.888	2.49
440.093	2.5
440.297	2.38
440.501	2.47
440.706	2.44
440.91	2.33
441.114	2.31
441.318	2.31
441.523	2.33
441.727	2.34
441.931	2.43
442.135	2.47
442.339	2.43
442.543	2.47
442.748	2.35
442.952	2.37
443.156	2.39
443.36	2.41
443.564	2.39
443.768	2.22
443.972	2.18
444.176	2.03
444.38	2.03
444.584	2.03
444.788	2.1
444.992	2.11
445.196	2.09
445.4	2.01
445.604	1.98
445.808	1.94
446.012	1.99
446.216	1.96
446.42	2.09
446.624	2.08
446.828	2.05
447.032	1.96
447.235	1.97
447.439	1.99
447.643	2.11
447.847	2.18
448.051	2.26
448.254	2.25
448.458	2.32
448.662	2.28
448.866	2.28
449.069	2.22
449.273	2.34
449.477	2.32
449.681	2.4
449.884	2.35
450.088	2.32
450.292	2.25
450.495	2.23
450.699	2.25
450.902	2.27
451.106	2.28
451.31	2.44
451.513	2.29
451.717	2.35
451.92	2.32
452.124	2.3
452.327	2.28
452.531	2.38
452.734	2.4
452.938	2.38
453.141	2.41
453.345	2.35
453.548	2.39
453.752	2.47
453.955	2.56
454.158	2.51
454.362	2.56
454.565	2.63
454.769	2.66
454.972	2.74
455.175	2.8
455.379	2.66
455.582	2.68
455.785	2.45
455.988	2.45
456.192	2.34
456.395	2.34
456.598	2.33
456.801	2.16
457.005	2.06
457.208	2.02
457.411	1.9
457.614	1.98
457.817	1.98
458.021	2.01
458.224	2.11
458.427	2.08
458.63	2.08
458.833	2.05
459.036	2.05
459.239	2.06
459.442	2.07
459.645	2.08
459.848	2.1
460.051	2.05
460.254	2.15
460.457	2.04
460.66	2.14
460.863	2.17
461.066	2.13
461.269	2.15
461.472	2.21
461.675	2.19
461.878	2.17
462.081	2.13
462.284	2.22
462.486	2.1
462.689	2.22
462.892	2.04
463.095	2
463.298	2.05
463.5	2.04
463.703	1.95
463.906	2
464.109	2.08
464.311	2.03
464.514	2.11
464.717	2.17
464.92	2.14
465.122	2.2
465.325	2.28
465.528	2.29
465.73	2.34
465.933	2.37
466.135	2.16
466.338	2.14
466.541	2.16
466.743	2.08
466.946	2.03
467.148	1.98
467.351	2.05
467.553	2.03
467.756	1.99
467.958	1.89
468.161	1.94
468.363	2.03
468.566	2.03
468.768	1.95
468.971	2.01
469.173	2.06
469.375	2.09
469.578	1.89
469.78	1.84
469.983	1.88
470.185	2.03
470.387	2
470.59	2.19
470.792	2.25
470.994	2.25
471.196	2.18
471.399	2.16
471.601	2.01
471.803	2.09
472.005	2.12
472.208	2.14
472.41	2.01
472.612	1.95
472.814	1.96
473.016	1.93
473.218	2.07
473.421	2.05
473.623	2.15
473.825	2.3
474.027	2.4
474.229	2.4
474.431	2.44
474.633	2.51
474.835	2.55
475.037	2.35
475.239	2.36
475.441	2.29
475.643	2.36
475.845	2.29
476.047	2.28
476.249	2.19
476.451	2.17
476.653	2.02
476.855	2
477.057	1.99
477.258	2.05
477.46	1.98
477.662	2.04
477.864	2.01
478.066	2.01
478.268	1.96
478.469	1.94
478.671	2.01
478.873	2.07
479.075	2.05
479.276	2.01
479.478	2.06
479.68	2.08
479.882	2.06
480.083	2.05
480.285	2.02
480.487	2.03
480.688	2.04
480.89	1.98
481.091	1.88
481.293	1.91
481.495	1.92
481.696	1.91
481.898	1.94
482.099	1.91
482.301	1.87
482.502	1.87
482.704	1.83
482.905	1.82
483.107	1.79
483.308	1.82
483.51	1.77
483.711	1.77
483.913	1.76
484.114	1.71
484.315	1.71
484.517	1.73
484.718	1.73
484.92	1.75
485.121	1.74
485.322	1.74
485.524	1.76
485.725	1.78
485.926	1.75
486.127	1.73
486.329	1.72
486.53	1.75
486.731	1.71
486.932	1.7
487.134	1.67
487.335	1.68
487.536	1.71
487.737	1.69
487.938	1.69
488.139	1.72
488.341	1.69
488.542	1.73
488.743	1.7
488.944	1.71
489.145	1.7
489.346	1.79
489.547	1.79
489.748	1.74
489.949	1.76
490.15	1.76
490.351	1.72
490.552	1.78
490.753	1.77
490.954	1.73
491.155	1.75
491.356	1.76
491.557	1.72
491.758	1.75
491.959	1.82
492.159	1.83
492.36	1.87
492.561	1.91
492.762	1.92
492.963	1.91
493.164	2.07
493.364	2.1
493.565	2.2
493.766	2.2
493.967	2.21
494.167	2.21
494.368	2.25
494.569	2.23
494.769	2.21
494.97	2.19
495.171	2.25
495.371	2.11
495.572	2.08
495.773	2.01
495.973	2.06
496.174	2.03
496.375	2.02
496.575	1.92
496.776	1.95
496.976	1.96
497.177	1.91
497.377	1.96
497.578	2
497.778	2.05
497.979	2.05
498.179	2.09
498.38	2.12
498.58	2.12
498.78	2.18
498.981	2.18
499.181	2.21
499.382	2.25
499.582	2.17
499.782	2.21
499.983	2.26
500.183	2.3
500.383	2.24
500.584	2.23
500.784	2.17
500.984	2.2
501.184	2.16
501.385	2.16
501.585	2.18
501.785	2.14
501.985	2.17
502.185	2.2
502.386	2.25
502.586	2.22
502.786	2.22
502.986	2.31
503.186	2.35
503.386	2.45
503.586	2.56
503.786	2.54
503.987	2.64
504.187	2.62
504.387	2.57
504.587	2.49
504.787	2.46
504.987	2.48
505.187	2.4
505.387	2.37
505.587	2.34
505.786	2.26
505.986	2.3
506.186	2.27
506.386	2.33
506.586	2.29
506.786	2.33
506.986	2.33
507.186	2.36
507.386	2.42
507.585	2.46
507.785	2.51
507.985	2.47
508.185	2.47
508.384	2.44
508.584	2.34
508.784	2.35
508.984	2.39
509.183	2.5
509.383	2.44
509.583	2.41
509.782	2.35
509.982	2.26
510.182	2.25
510.381	2.29
510.581	2.38
510.781	2.41
510.98	2.45
511.18	2.41
511.379	2.34
511.579	2.41
511.778	2.45
511.978	2.5
512.177	2.61
512.377	2.65
512.576	2.64
512.776	2.61
512.975	2.68
513.175	2.68
513.374	2.75
513.573	2.76
513.773	2.79
513.972	2.77
514.172	2.87
514.371	2.83
514.57	2.98
514.77	3.05
514.969	3.05
515.168	3.09
515.367	3.1
515.567	3.11
515.766	3.16
515.965	3.14
516.164	3.17
516.364	3.14
516.563	3.09
516.762	2.99
516.961	2.98
517.16	3.05
517.359	2.94
517.559	2.92
517.758	2.87
517.957	2.83
518.156	2.83
518.355	2.84
518.554	2.82
518.753	2.95
518.952	2.91
519.151	2.88
519.35	2.84
519.549	2.91
519.748	3
519.947	3.1
520.146	3.16
520.345	3.18
520.544	3.3
520.743	3.26
520.942	3.19
521.141	3.24
521.339	3.33
521.538	3.45
521.737	3.42
521.936	3.37
522.135	3.35
522.333	3.39
522.532	3.39
522.731	3.26
522.93	3.36
523.129	3.38
523.327	3.43
523.526	3.44
523.725	3.37
523.923	3.45
524.122	3.51
524.321	3.48
524.519	3.49
524.718	3.54
524.917	3.55
525.115	3.53
525.314	3.54
525.512	3.59
525.711	3.56
525.909	3.64
526.108	3.59
526.306	3.6
526.505	3.69
526.703	3.68
526.902	3.7
527.1	3.72
527.299	3.75
527.497	3.77
527.696	3.74
527.894	3.74
528.092	3.68
528.291	3.72
528.489	3.73
528.688	3.72
528.886	3.73
529.084	3.76
529.283	3.81
529.481	3.84
529.679	3.87
529.877	3.94
530.076	4.01
530.274	4.1
530.472	4.14
530.67	4.14
530.869	4.1
531.067	4.16
531.265	4.11
531.463	4.17
531.661	4.16
531.859	4.16
532.057	4.16
532.255	4.11
532.454	4.1
532.652	4.12
532.85	4.14
533.048	4.21
533.246	4.2
533.444	4.27
533.642	4.27
533.84	4.27
534.038	4.3
534.236	4.33
534.434	4.47
534.632	4.57
534.83	4.6
535.027	4.68
535.225	4.65
535.423	4.64
535.621	4.63
535.819	4.58
536.017	4.59
536.215	4.54
536.412	4.53
536.61	4.49
536.808	4.4
537.006	4.39
537.203	4.39
537.401	4.45
537.599	4.55
537.797	4.59
537.994	4.56
538.192	4.6
538.39	4.63
538.587	4.67
538.785	4.67
538.983	4.75
539.18	4.84
539.378	4.85
539.575	4.87
539.773	4.84
539.97	4.83
540.168	4.95
540.366	4.99
540.563	5.07
540.761	5.08
540.958	5.1
541.155	5.09
541.353	5.07
541.55	5.08
541.748	5.07
541.945	5.1
542.143	5.13
542.34	5.17
542.537	5.13
542.735	5.12
542.932	5.12
543.129	5.14
543.327	5.19
543.524	5.25
543.721	5.28
543.919	5.4
544.116	5.41
544.313	5.47
544.51	5.44
544.708	5.55
544.905	5.58
545.102	5.74
545.299	5.8
545.496	5.82
545.693	5.79
545.891	5.83
546.088	5.78
546.285	5.89
546.482	5.85
546.679	5.84
546.876	5.84
547.073	5.86
547.27	5.82
547.467	5.82
547.664	5.84
547.861	5.85
548.058	5.92
548.255	6.04
548.452	6
548.649	6.11
548.846	6.25
549.043	6.29
549.24	6.32
549.437	6.29
549.633	6.31
549.83	6.31
550.027	6.46
550.224	6.48
550.421	6.4
550.618	6.36
550.814	6.44
551.011	6.41
551.208	6.37
551.405	6.34
551.601	6.31
551.798	6.32
551.995	6.41
552.191	6.41
552.388	6.41
552.585	6.55
552.781	6.5
552.978	6.51
553.175	6.62
553.371	6.64
553.568	6.75
553.764	6.89
553.961	6.95
554.157	7
554.354	6.96
554.55	7
554.747	6.98
554.943	7.17
555.14	7.08
555.336	7.05
555.533	7.19
555.729	7.24
555.926	7.26
556.122	7.26
556.318	7.24
556.515	7.23
556.711	7.14
556.907	7.11
557.104	7.11
557.3	7.28
557.496	7.33
557.693	7.19
557.889	7.18
558.085	7.2
558.281	7.32
558.478	7.35
558.674	7.48
558.87	7.55
559.066	7.55
559.262	7.55
559.459	7.58
559.655	7.55
559.851	7.71
560.047	7.78
560.243	7.7
560.439	7.67
560.635	7.62
560.831	7.64
561.027	7.66
561.223	7.7
561.419	7.72
561.615	7.71
561.811	7.87
562.007	7.89
562.203	7.8
562.399	7.9
562.595	7.87
562.791	8.06
562.987	8.05
563.183	8.11
563.379	8.24
563.575	8.29
563.771	8.31
563.966	8.21
564.162	8.26
564.358	8.3
564.554	8.29
564.75	8.3
564.945	8.26
565.141	8.41
565.337	8.4
565.533	8.34
565.728	8.36
565.924	8.37
566.12	8.39
566.315	8.39
566.511	8.43
566.707	8.43
566.902	8.6
567.098	8.65
567.293	8.49
567.489	8.46
567.684	8.59
567.88	8.59
568.076	8.73
568.271	8.82
568.467	8.79
568.662	8.79
568.858	8.96
569.053	8.86
569.248	8.81
569.444	8.89
569.639	8.92
569.835	8.79
570.03	8.88
570.225	8.81
570.421	8.9
570.616	8.97
570.812	9.03
571.007	8.89
571.202	8.92
571.397	8.97
571.593	8.9
571.788	8.96
571.983	9.03
572.178	9
572.374	9.03
572.569	8.87
572.764	8.84
572.959	8.78
573.154	8.89
573.35	8.85
573.545	8.92
573.74	9.04
573.935	9.12
574.13	9.11
574.325	9.13
574.52	9.15
574.715	9.27
574.91	9.23
575.105	9.37
575.3	9.4
575.495	9.51
575.69	9.46
575.885	9.56
576.08	9.6
576.275	9.58
576.47	9.6
576.665	9.55
576.86	9.51
577.055	9.55
577.25	9.43
577.444	9.29
577.639	9.35
577.834	9.33
578.029	9.21
578.224	9.07
578.418	9.23
578.613	9.13
578.808	9.07
579.003	9.13
579.197	9.22
579.392	9.26
579.587	9.38
579.781	9.12
579.976	9.23
580.171	9.24
580.365	9.28
580.56	9.23
580.755	9.32
580.949	9.38
581.144	9.34
581.338	9.26
581.533	9.38
581.727	9.45
581.922	9.66
582.116	9.51
582.311	9.52
582.505	9.43
582.7	9.51
582.894	9.52
583.089	9.44
583.283	9.4
583.478	9.49
583.672	9.51
583.866	9.48
584.061	9.5
584.255	9.62
584.449	9.53
584.644	9.56
584.838	9.49
585.032	9.54
585.226	9.72
585.421	9.82
585.615	9.82
585.809	9.69
586.003	9.71
586.198	9.63
586.392	9.6
586.586	9.71
586.78	9.79
586.974	9.8
587.168	9.63
587.363	9.64
587.557	9.48
587.751	9.46
587.945	9.59
588.139	9.67
588.333	9.83
588.527	9.94
588.721	10.05
588.915	10.09
589.109	10.13
589.303	10.29
589.497	10.13
589.691	10.25
589.885	10.3
590.079	10.17
590.273	10.02
590.466	9.96
590.66	9.91
590.854	9.92
591.048	9.87
591.242	9.82
591.436	9.73
591.629	9.9
591.823	9.99
592.017	9.92
592.211	10.04
592.404	10.12
592.598	9.93
592.792	9.88
592.986	9.73
593.179	9.7
593.373	9.73
593.567	9.75
593.76	9.71
593.954	9.67
594.147	9.66
594.341	9.7
594.535	9.67
594.728	9.74
594.922	9.79
595.115	9.91
595.309	9.95
595.502	9.95
595.696	9.99
595.889	9.96
596.083	9.93
596.276	9.96
596.47	9.91
596.663	9.93
596.856	10.06
597.05	10.05
597.243	9.99
597.437	10.05
597.63	10.12
597.823	10.17
598.017	10.17
598.21	10.19
598.403	10.15
598.596	10.13
598.79	10.12
598.983	9.92
599.176	9.87
599.369	9.88
599.563	9.9
599.756	9.86
599.949	9.9
600.142	9.89
600.335	9.88
600.528	10.03
600.722	10.08
600.915	10.14
601.108	10.1
601.301	10.26
601.494	10.22
601.687	10.03
601.88	10.01
602.073	9.79
602.266	9.8
602.459	9.88
602.652	9.85
602.845	9.94
603.038	9.79
603.231	9.96
603.424	9.83
603.617	9.94
603.809	10.01
604.002	10.04
604.195	10.18
604.388	10.19
604.581	10.07
604.774	10.03
604.966	9.86
605.159	10.02
605.352	9.91
605.545	10
605.737	9.86
605.93	9.96
606.123	10.04
606.316	10.04
606.508	10.17
606.701	10.39
606.894	10.4
607.086	10.51
607.279	10.45
607.471	10.56
607.664	10.58
607.857	10.67
608.049	10.74
608.242	10.72
608.434	10.71
608.627	10.68
608.819	10.65
609.012	10.76
609.204	10.86
609.397	10.91
609.589	10.83
609.782	10.93
609.974	11.03
610.166	11.12
610.359	11.2
610.551	11.23
610.743	11.13
610.936	11.22
611.128	11.04
611.32	10.97
611.513	10.99
611.705	11.14
611.897	11.07
612.09	10.9
612.282	10.67
612.474	10.55
612.666	10.58
612.858	10.77
613.051	10.7
613.243	10.8
613.435	10.88
613.627	10.92
613.819	10.95
614.011	11.34
614.203	11.39
614.395	11.51
614.588	11.49
614.78	11.46
614.972	11.43
615.164	11.32
615.356	11.45
615.548	11.36
615.74	11.41
615.932	11.11
616.124	10.73
616.315	10.88
616.507	10.83
616.699	10.86
616.891	10.95
617.083	10.91
617.275	10.95
617.467	10.94
617.659	10.97
617.85	10.92
618.042	11.15
618.234	11.03
618.426	11.02
618.618	11.11
618.809	10.98
619.001	10.95
619.193	10.87
619.384	10.99
619.576	10.95
619.768	10.96
619.959	10.89
620.151	10.74
620.343	10.97
620.534	10.97
620.726	10.77
620.917	10.88
621.109	10.76
621.301	10.88
621.492	10.76
621.684	10.89
621.875	10.91
622.067	10.91
622.258	10.99
622.45	10.82
622.641	10.63
622.832	10.72
623.024	10.61
623.215	10.88
623.407	10.8
623.598	10.81
623.789	10.77
623.981	10.74
624.172	10.86
624.363	10.94
624.555	11.03
624.746	11.08
624.937	11.16
625.129	11.27
625.32	11.18
625.511	11.23
625.702	11.11
625.893	11.03
626.085	11.09
626.276	10.84
626.467	10.91
626.658	11.01
626.849	10.98
627.04	10.83
627.231	10.86
627.422	10.77
627.614	10.7
627.805	10.79
627.996	10.75
628.187	10.74
628.378	10.88
628.569	10.75
628.76	10.61
628.951	10.65
629.142	10.67
629.332	10.53
629.523	10.59
629.714	10.63
629.905	10.76
630.096	10.71
630.287	10.72
630.478	10.69
630.669	10.74
630.859	10.73
631.05	10.72
631.241	10.73
631.432	10.78
631.623	10.72
631.813	10.6
632.004	10.48
632.195	10.59
632.385	10.43
632.576	10.6
632.767	10.58
632.957	10.61
633.148	10.86
633.339	10.9
633.529	11.05
633.72	10.92
633.91	11.09
634.101	10.97
634.292	10.99
634.482	10.9
634.673	10.97
634.863	11.11
635.054	11.02
635.244	10.71
635.435	10.67
635.625	10.49
635.815	10.6
636.006	10.52
636.196	10.73
636.387	10.74
636.577	11.08
636.767	10.98
636.958	11.04
637.148	11.08
637.338	11.18
637.529	11.2
637.719	11.19
637.909	11.28
638.099	11.33
638.29	11.29
638.48	11.33
638.67	11.2
638.86	11.14
639.05	10.94
639.241	11
639.431	10.86
639.621	11.05
639.811	11.14
640.001	11.1
640.191	11.11
640.381	10.86
640.571	10.79
640.761	10.72
640.951	10.74
641.141	10.79
641.331	10.91
641.521	10.94
641.711	10.88
641.901	10.82
642.091	10.83
642.281	10.6
642.471	10.74
642.661	10.85
642.851	10.9
643.041	11.02
643.231	11.02
643.42	10.93
643.61	11.03
643.8	10.91
643.99	11.04
644.18	10.94
644.369	11.29
644.559	11.3
644.749	11.14
644.939	11.12
645.128	11.06
645.318	10.87
645.508	10.75
645.697	10.58
645.887	10.62
646.076	10.57
646.266	10.53
646.456	10.39
646.645	10.45
646.835	10.44
647.024	10.4
647.214	10.36
647.403	10.5
647.593	10.48
647.782	10.63
647.972	10.69
648.161	10.7
648.351	10.79
648.54	10.83
648.73	10.89
648.919	10.9
649.108	10.8
649.298	10.85
649.487	10.74
649.677	10.7
649.866	10.81
650.055	10.72
650.244	10.7
650.434	10.77
650.623	10.8
650.812	10.9
651.002	10.97
651.191	11.04
651.38	10.93
651.569	10.9
651.758	10.99
651.947	11.14
652.137	11.3
652.326	11.1
652.515	11.07
652.704	11.01
652.893	10.83
653.082	10.94
653.271	10.92
653.46	10.96
653.649	11.16
653.838	11.18
654.027	10.86
654.216	10.65
654.405	10.85
654.594	10.91
654.783	11.04
654.972	11.04
655.161	10.91
655.35	11.01
655.539	11
655.728	11.14
655.916	11.19
656.105	11.28
656.294	11.4
656.483	11.38
656.672	11.48
656.86	11.27
657.049	11.41
657.238	11.48
657.427	11.48
657.615	11.42
657.804	11.45
657.993	11.39
658.181	11.38
658.37	11.41
658.559	11.41
658.747	11.25
658.936	11.22
659.125	11.23
659.313	11.16
659.502	11.22
659.69	11.4
659.879	11.27
660.067	11.25
660.256	11.12
660.444	11.19
660.633	11.13
660.821	11.3
661.01	11.59
661.198	11.66
661.387	11.65
661.575	11.64
661.763	11.52
661.952	11.48
662.14	11.62
662.328	11.75
662.517	11.58
662.705	11.63
662.893	11.62
663.082	11.65
663.27	11.37
663.458	11.57
663.646	11.64
663.834	11.8
664.023	11.9
664.211	11.74
664.399	11.91
664.587	11.82
664.775	11.8
664.963	11.72
665.152	11.52
665.34	11.5
665.528	11.4
665.716	11.4
665.904	11.23
666.092	11.27
666.28	11.35
666.468	11.25
666.656	11.36
666.844	11.82
667.032	11.88
667.22	12.03
667.408	12.12
667.596	12.41
667.784	12.22
667.971	12.22
668.159	12.18
668.347	12.11
668.535	12
668.723	11.86
668.911	11.66
669.098	11.49
669.286	11.4
669.474	11.5
669.662	11.33
669.849	11.61
670.037	11.57
670.225	11.55
670.413	11.63
670.6	11.62
670.788	11.76
670.976	11.64
671.163	11.73
671.351	11.63
671.538	11.56
671.726	11.53
671.913	11.26
672.101	11.33
672.289	11.24
672.476	11.34
672.664	11.45
672.851	11.35
673.039	11.45
673.226	11.73
673.413	11.76
673.601	11.7
673.788	11.53
673.976	11.39
674.163	11.46
674.35	11.55
674.538	11.52
674.725	11.46
674.912	11.57
675.1	11.49
675.287	11.21
675.474	11.29
675.662	11.2
675.849	11.32
676.036	11.28
676.223	11.2
676.411	11.24
676.598	11.17
676.785	11.35
676.972	11.26
677.159	11.19
677.346	11.03
677.533	10.79
677.721	11.04
677.908	11
678.095	11.18
678.282	11.13
678.469	11
678.656	11.32
678.843	11.13
679.03	11.29
679.217	11.45
679.404	11.57
679.591	11.65
679.778	11.72
679.964	11.81
680.151	11.98
680.338	12.04
680.525	11.91
680.712	11.72
680.899	11.82
681.086	11.7
681.272	11.58
681.459	11.59
681.646	11.75
681.833	11.6
682.02	11.63
682.206	11.59
682.393	11.75
682.58	12.03
682.766	12.07
682.953	12.46
683.14	12.38
683.326	12.71
683.513	12.76
683.7	12.81
683.886	12.63
684.073	12.42
684.259	12.3
684.446	12.3
684.632	12.34
684.819	12.15
685.005	11.73
685.192	11.81
685.378	11.43
685.565	11.46
685.751	11.3
685.938	11.56
686.124	11.78
686.31	11.7
686.497	11.33
686.683	11.04
686.87	11.03
687.056	11.01
687.242	11.05
687.429	11.06
687.615	11
687.801	11.07
687.987	10.91
688.174	10.86
688.36	10.88
688.546	11.1
688.732	11.23
688.918	11.1
689.105	11.5
689.291	11.78
689.477	11.89
689.663	12.06
689.849	12
690.035	12.33
690.221	12.37
690.407	12.74
690.593	12.95
690.779	13.08
690.965	13.54
691.151	13.2
691.337	12.97
691.523	13.21
691.709	13.24
691.895	13.27
692.081	13.02
692.267	13.11
692.453	12.83
692.639	13.08
692.825	12.84
693.011	12.71
693.196	12.77
693.382	12.5
693.568	12.16
693.754	11.93
693.94	11.88
694.125	11.68
694.311	11.38
694.497	11.38
694.682	10.91
694.868	11.23
695.054	11.22
695.239	11.12
695.425	11.27
695.611	11.4
695.796	11.55
695.982	11.42
696.168	11.53
696.353	11.6
696.539	11.76
696.724	11.78
696.91	11.88
697.095	11.86
697.281	11.92
697.466	11.92
697.652	11.96
697.837	12.06
698.023	12.15
698.208	12.15
698.393	12.37
698.579	12.21
698.764	12.09
698.949	11.82
699.135	11.6
699.32	11.58
699.505	11.58
699.691	11.46
699.876	11.11
700.061	11.1
700.246	11.29
700.432	11.19
700.617	11.19
700.802	11.28
700.987	11.6
701.172	11.9
701.358	11.82
701.543	12.33
701.728	12.28
701.913	12.78
702.098	13.06
702.283	13.06
702.468	12.98
702.653	13.47
702.838	13.92
703.023	13.69
703.208	13.61
703.393	13.62
703.578	13.18
703.763	13.55
703.948	13.16
704.133	13.28
704.318	13.16
704.503	13.12
704.688	12.91
704.873	12.31
705.057	12.26
705.242	12.1
705.427	12.23
705.612	12.24
705.797	12.44
705.981	12.67
706.166	12.43
706.351	11.96
706.536	11.66
706.72	11.59
706.905	11.99
707.09	12.26
707.274	12.47
707.459	12.64
707.644	12.68
707.828	12.3
708.013	12.3
708.197	12.28
708.382	12.77
708.567	12.86
708.751	12.74
708.936	12.5
709.12	12.37
709.305	12.62
709.489	12.3
709.673	12.37
709.858	12.17
710.042	11.99
710.227	11.98
710.411	12.22
710.596	12.2
710.78	12.33
710.964	12.41
711.149	12.35
711.333	11.97
711.517	11.99
711.702	12.36
711.886	12.53
712.07	12.57
712.254	12.76
712.438	12.48
712.623	12.44
712.807	12.36
712.991	12.67
713.175	12.87
713.359	12.83
713.544	13.18
713.728	12.65
713.912	12.81
714.096	12.68
714.28	12.51
714.464	12.63
714.648	13.01
714.832	13.09
715.016	13.06
715.2	12.75
715.384	13.11
715.568	12.99
715.752	12.93
715.936	12.8
716.12	13.03
716.304	13.28
716.488	12.86
716.671	12.68
716.855	12.74
717.039	12.66
717.223	12.83
717.407	12.69
717.59	12.75
717.774	13.32
717.958	13.62
718.142	13.5
718.325	13.12
718.509	13.98
718.693	14.03
718.877	13.66
719.06	13.11
719.244	13.33
719.428	13.23
719.611	12.91
719.795	12.62
719.978	12.74
720.162	13.16
720.345	13.5
720.529	13.14
720.713	13.35
720.896	13.72
721.08	13.93
721.263	14.02
721.446	14.44
721.63	14.44
721.813	14.32
721.997	13.85
722.18	13.59
722.364	13.55
722.547	13.14
722.73	13.03
722.914	12.75
723.097	12.98
723.28	12.54
723.464	12.18
723.647	12.21
723.83	12.51
724.013	12.66
724.197	12.79
724.38	12.98
724.563	12.96
724.746	12.88
724.929	13.33
725.112	13.62
725.296	13.68
725.479	13.66
725.662	13.76
725.845	13.52
726.028	13.14
726.211	13.23
726.394	12.9
726.577	12.94
726.76	12.85
726.943	12.61
727.126	12.41
727.309	12.72
727.492	12.8
727.675	12.63
727.858	12.5
728.041	12.97
728.224	12.87
728.407	13.04
728.589	13.47
728.772	13.41
728.955	13.52
729.138	13.51
729.321	13.13
729.503	13.33
729.686	13.57
729.869	13.86
730.052	13.96
730.234	13.58
730.417	13.45
730.6	13.31
730.782	13.35
730.965	13.25
731.148	13.21
731.33	13.4
731.513	13.4
731.695	13.27
731.878	13.21
732.061	12.54
732.243	12.68
732.426	12.16
732.608	12.21
732.791	12.44
732.973	12.54
733.156	12.72
733.338	12.5
733.52	12.4
733.703	12.61
733.885	12.94
734.068	13.32
734.25	13.83
734.432	14.17
734.615	13.97
734.797	13.46
734.979	12.81
735.162	12.25
735.344	13.01
735.526	13.13
735.708	12.64
735.891	11.92
736.073	11.98
736.255	11.72
736.437	11.75
736.619	12.08
736.802	12.39
736.984	12.7
737.166	13.23
737.348	12.86
737.53	12.68
737.712	12.89
737.894	13.36
738.076	13.49
738.258	13.61
738.44	13.75
738.622	13.62
738.804	13.4
738.986	13.8
739.168	13.47
739.35	13.58
739.532	13.34
739.714	13.83
739.896	13.25
740.078	13.19
740.259	12.86
740.441	12.83
740.623	12.6
740.805	12.93
740.987	12.78
741.168	12.71
741.35	12.77
741.532	12.86
741.714	12.78
741.895	13.22
742.077	13.01
742.259	12.94
742.44	12.95
742.622	13.4
742.804	13.24
742.985	13.65
743.167	13.67
743.348	13.49
743.53	13.16
743.711	13.57
743.893	13.6
744.075	12.94
744.256	13.39
744.438	13.06
744.619	12.82
744.8	13.17
744.982	12.57
745.163	12.27
745.345	12.23
745.526	13.02
745.707	12.67
745.889	12.67
746.07	13.52
746.252	13.88
746.433	14.41
746.614	14.44
746.795	13.65
746.977	14.27
747.158	14.96
747.339	15.36
747.52	14.85
747.702	14.2
747.883	13.93
748.064	14.48
748.245	13.13
748.426	13.13
748.607	13.61
748.788	13.77
748.97	13.63
749.151	13.14
749.332	12.69
749.513	12.67
749.694	13.59
749.875	13.53
750.056	13.23
750.237	14.09
750.418	14.05
750.599	13.51
750.78	14.3
750.96	13.98
751.141	14.45
751.322	14.16
751.503	14.76
751.684	14.78
751.865	14.93
752.046	14.46
752.226	14.8
752.407	15.02
752.588	15.21
752.769	15.2
752.949	15.14
753.13	15.21
753.311	15.25
753.492	14.94
753.672	14.74
753.853	15.47
754.034	15.4
754.214	15.11
754.395	14.81
754.575	14.47
754.756	13.98
754.937	13.99
755.117	14.04
755.298	14.58
755.478	14.41
755.659	13.96
755.839	12.93
756.02	13.52
756.2	13.62
756.381	13.91
756.561	14.33
756.741	14.63
756.922	15.03
757.102	14.67
757.283	14.31
757.463	14.33
757.643	14.87
757.823	15.27
758.004	14.54
758.184	14.05
758.364	14.2
758.545	14.1
758.725	14.22
758.905	13.69
759.085	14.1
759.265	14.16
759.446	14.12
759.626	14.1
759.806	14.15
759.986	15.08
760.166	15.39
760.346	14.99
760.526	14.88
760.706	14.54
760.886	14.62
761.066	14.1
761.246	14.02
761.426	14.37
761.606	13.57
761.786	13.16
761.966	12.91
762.146	12.86
762.326	13.12
762.506	13.15
762.686	13.32
762.866	13.32
763.046	13.2
763.225	13.22
763.405	12.7
763.585	12.8
763.765	12.93
763.945	12.82
764.124	12.77
764.304	12.65
764.484	12.21
764.664	11.86
764.843	11.99
765.023	12.04
765.203	12.09
765.382	12.24
765.562	12.26
765.741	12.2
765.921	12.2
766.101	12.02
766.28	11.82
766.46	12.31
766.639	12.96
766.819	13.35
766.998	13.69
767.178	13.28
767.357	13.74
767.537	13.91
767.716	14.33
767.896	14.31
768.075	14.15
768.254	13.55
768.434	13.6
768.613	13.4
768.792	12.71
768.972	12.96
769.151	12.59
769.33	11.47
769.51	12.35
769.689	12.44
769.868	12.84
770.047	14.08
770.226	14.64
770.406	14.63
770.585	14.45
770.764	14.72
770.943	14.57
771.122	14.88
771.301	16.55
771.48	16.34
771.66	16.31
771.839	15.74
772.018	14.92
772.197	14.1
772.376	13.88
772.555	13.6
772.734	13.44
772.913	13.67
773.092	13.91
773.271	13.09
773.449	12.15
773.628	12.08
773.807	11.7
773.986	11.96
774.165	12.65
774.344	13.37
774.523	13.38
774.701	13.62
774.88	13.1
775.059	13.04
775.238	13.58
775.417	14.36
775.595	14.54
775.774	14.98
775.953	14.38
776.131	15.28
776.31	14.53
776.489	14.17
776.667	14.16
776.846	13.34
777.025	13.26
777.203	12.18
777.382	12.79
777.56	12.5
777.739	13.01
777.917	12.91
778.096	12.66
778.274	13.79
778.453	14.52
778.631	14.48
778.81	15.54
778.988	15.52
779.166	15.54
779.345	14.95
779.523	14.67
779.702	14.86
779.88	16.33
780.058	16.23
780.237	15.23
780.415	14.85
780.593	14.47
780.771	14.86
780.95	15.69
781.128	16.13
781.306	15.93
781.484	16.48
781.662	15.12
781.841	13.79
782.019	13.91
782.197	14.24
782.375	14.29
782.553	14.18
782.731	13.86
782.909	13.56
783.087	13.84
783.265	14.23
783.443	13.64
783.621	15.07
783.799	15.44
783.977	15.7
784.155	15.47
784.333	17.26
784.511	17.23
784.689	17.14
784.867	16.8
785.045	16.72
785.223	15.97
785.4	15.86
785.578	14.92
785.756	14.95
785.934	14.05
786.112	14.29
786.289	13.19
786.467	13.7
786.645	13.2
786.823	13.18
787	13.7
787.178	13.93
787.356	14.17
787.533	14.88
787.711	15.46
787.889	15.82
788.066	16.15
788.244	15.65
788.421	15.75
788.599	15.6
788.776	16.07
788.954	15.96
789.131	16.08
789.309	16.54
789.486	16.14
789.664	15.35
789.841	15.91
790.019	15.29
790.196	15.7
790.373	14.91
790.551	15.87
790.728	15.21
790.906	15.59
791.083	14.75
791.26	13.92
791.437	14.63
791.615	14.59
791.792	14.11
791.969	14.39
792.146	13.85
792.324	14.86
792.501	15.08
792.678	15.79
792.855	14.9
793.032	15
793.209	15.45
793.387	14.94
793.564	15.41
793.741	15.08
793.918	15.91
794.095	16.02
794.272	15.14
794.449	13.72
794.626	14.18
794.803	14.38
794.98	15.03
795.157	15.15
795.334	15.66
795.511	15.39
795.688	15.23
795.864	14.38
796.041	14.42
796.218	15.46
796.395	16.12
796.572	15
796.749	14.39
796.925	15.28
797.102	15.49
797.279	15
797.456	14.81
797.632	15.4
797.809	15.34
797.986	15.89
798.162	15.65
798.339	15.84
798.516	18.01
798.692	18.91
798.869	17.31
799.046	16.56
799.222	16.58
799.399	16.41
799.575	16.1
799.752	16.28
799.928	16.17
800.105	16.44
800.281	15.51
800.458	14.83
800.634	14.18
800.811	14.22
800.987	14.82
801.163	14.33
801.34	14.92
801.516	15.51
801.692	15.87
801.869	17.02
802.045	16.47
802.221	17.11
802.398	15.42
802.574	15.31
802.75	16.85
802.926	16.97
803.103	17.69
803.279	17.2
803.455	16.7
803.631	16.75
803.807	15.38
803.983	15.57
804.16	15.71
804.336	16.19
804.512	16.62
804.688	16.14
804.864	15.6
805.04	15.1
805.216	15.96
805.392	16.13
805.568	15.99
805.744	16.15
805.92	17.38
806.096	18.47
806.272	20.67
806.448	19.8
806.623	19.22
806.799	18.95
806.975	19.03
807.151	18.31
807.327	17.16
807.503	16.54
807.678	15.99
807.854	14.63
808.03	13.83
808.206	11.75
808.381	12.78
808.557	12.14
808.733	13.75
808.908	13.7
809.084	13.19
809.26	14.13
809.435	14.71
809.611	14.89
809.787	15.3
809.962	15.44
810.138	15.77
810.313	16.16
810.489	16.95
810.664	16.46
810.84	16.18
811.015	18.09
811.191	18.4
811.366	19.16
811.542	20.24
811.717	20
811.892	21.05
812.068	21.96
812.243	21.19
812.419	21.08
812.594	21.28
812.769	21.41
812.944	21.46
813.12	20.94
813.295	20.7
813.47	20.39
813.645	21.15
813.821	20.46
813.996	21.91
814.171	22.48
814.346	22.51
814.521	22.01
814.697	23.78
814.872	22.56
815.047	23.33
815.222	24.74
815.397	23.87
815.572	22.89
815.747	22.37
815.922	19.43
816.097	19.51
816.272	19.24
816.447	19.05
816.622	18.29
816.797	17.97
816.972	17.2
817.147	15.18
817.322	15.14
817.496	14.92
817.671	14.71
817.846	14.96
818.021	14.31
818.196	15.19
818.371	15.58
818.545	14.18
818.72	14.99
818.895	15.64
819.069	15.37
819.244	16.45
819.419	16
819.594	16.39
819.768	16.27
819.943	15.8
820.117	15.41
820.292	14.87
820.467	15.52
820.641	14.97
820.816	14.64
820.99	14.58
821.165	14.24
821.339	14.26
821.514	14.2
821.688	14.03
821.863	13.92
822.037	13.66
822.212	13.65
822.386	13.35
822.56	13.49
822.735	13.6
822.909	13.45
823.084	13.44
823.258	13.55
823.432	13.32
823.606	13.58
823.781	14
823.955	14.42
824.129	14.39
824.303	14.44
824.478	14.23
824.652	14.09
824.826	13.78
825	13.37
825.174	13.34
825.348	13.37
825.523	12.59
825.697	12.76
825.871	12.74
826.045	13.36
826.219	13.39
826.393	13.6
826.567	13.62
826.741	14.25
826.915	14.55
827.089	14.39
827.263	14.59
827.437	14.98
827.611	14.27
827.784	13.94
827.958	13.44
828.132	13.29
828.306	13.26
828.48	13.12
828.654	13.62
828.827	13.85
829.001	13.75
829.175	13.89
829.349	14.49
829.522	14.87
829.696	15.65
829.87	16.58
830.044	18.16
830.217	18.13
830.391	18.7
830.565	17.69
830.738	17.91
830.912	18.02
831.085	17.87
831.259	18.34
831.432	18.45
831.606	18.24
831.779	16.91
831.953	16.21
832.126	15.89
832.3	15.91
832.473	16.62
832.647	15.94
832.82	15.73
832.994	15.27
833.167	14.71
833.34	14.8
833.514	14.25
833.687	15.11
833.86	15.16
834.034	15.32
834.207	15.53
834.38	15.13
834.553	15.31
834.727	15.93
834.9	15.97
835.073	15.69
835.246	15.21
835.419	15.93
835.593	15.16
835.766	15.14
835.939	15.52
836.112	14.77
836.285	14.94
836.458	15.51
836.631	15.43
836.804	16.23
836.977	16.16
837.15	17.83
837.323	17.92
837.496	18.58
837.669	17.43
837.842	18.68
838.015	19.36
838.188	18.73
838.361	19.16
838.533	17.49
838.706	18.39
838.879	19.06
839.052	17.68
839.225	18.39
839.398	18.55
839.57	19.9
839.743	18.98
839.916	17.94
840.088	18.96
840.261	18.48
840.434	19.18
840.607	18.47
840.779	18.86
840.952	19.19
841.124	18.15
841.297	18.69
841.47	18.17
841.642	17.65
841.815	17.68
841.987	18.47
842.16	17.15
842.332	17.93
842.505	18.68
842.677	17.25
842.85	16.03
843.022	16.69
843.194	15.25
843.367	17.03
843.539	18.45
843.712	19.93
843.884	18.19
844.056	21.7
844.229	23.26
844.401	23.38
844.573	25.55
844.745	26.62
844.918	27.33
845.09	28.63
845.262	30.64
845.434	31.88
845.606	32.03
845.779	35.45
845.951	35.89
846.123	36.51
846.295	35.77
846.467	37.43
846.639	39.99
846.811	37.54
846.983	36.16
847.155	32.65
847.327	30.48
847.499	32.75
847.671	30.4
847.843	28.24
848.015	26.9
848.187	27.27
848.359	24.89
848.531	24.28
848.703	23.63
848.875	24.47
849.047	22.5
849.218	22.83
849.39	18.09
849.562	16.85
849.734	16.13
849.905	15.6
850.077	15.59
850.249	18.17
850.421	17.87
850.592	18.71
850.764	19.07
850.936	21.89
851.107	22.87
851.279	25.77
851.451	25.49
851.622	27.21
851.794	28.66
851.965	26.53
852.137	27.5
852.308	28.58
852.48	31.44
852.651	32.35
852.823	29.7
852.994	28.2
853.166	30.25
853.337	32.08
853.509	29.24
853.68	26.49
853.851	31.13
854.023	29.76
854.194	28.37
854.365	26.15
854.537	24.94
854.708	26.21
854.879	27.88
855.05	27.16
855.222	27.29
855.393	29.08
855.564	32.59
855.735	28.33
855.906	27.5
856.078	27.21
856.249	28.2
856.42	29.29
856.591	31.46
856.762	28.86
856.933	29.6
857.104	31.09
857.275	33.27
857.446	32.75
857.617	30.96
857.788	29.85
857.959	32.46
858.13	31.97
858.301	31.68
858.472	29.11
858.643	33.6
858.814	32.52
858.985	30.7
859.155	28.62
859.326	29.7
859.497	31.03
859.668	31.62
859.839	33.13
860.009	32.25
860.18	32.68
860.351	32.14
860.522	26.78
860.692	25.13
860.863	25.41
861.034	25.49
861.204	23.06
861.375	25.76
861.546	25.45
861.716	23.59
861.887	26.65
862.057	25.55
862.228	25.2
862.398	29.86
862.569	31.08
862.739	33.5
862.91	33.12
863.08	33.92
863.251	35.7
863.421	35.14
863.592	34.69
863.762	33.8
863.932	32.96
864.103	33.38
864.273	28.69
864.443	28.43
864.614	26.82
864.784	26.71
864.954	25.95
865.125	26.92
865.295	30.01
865.465	27.85
865.635	25.94
865.805	26.17
865.976	28.75
866.146	31.66
866.316	29.82
866.486	28.62
866.656	28.74
866.826	27.03
866.996	22.46
867.166	21.51
867.336	23.64
867.506	23.06
867.676	26.08
867.846	28.23
868.016	28.26
868.186	28.95
868.356	29.55
868.526	29.29
868.696	31
868.866	32.87
869.036	33.41
869.206	30.32
869.376	31.27
869.545	31.74
869.715	25.96
869.885	25.62
870.055	25.81
870.224	22.25
870.394	26.09
870.564	28.21
870.734	27.8
870.903	28.98
871.073	29.6
871.243	31.31
871.412	32.24
871.582	35.33
871.751	36.2
871.921	40.1
872.091	39.3
872.26	38.97
872.43	35.4
872.599	37.72
872.769	37.49
872.938	38.52
873.108	37.99
873.277	34.16
873.446	29.54
873.616	28.02
873.785	27.33
873.955	28.3
874.124	28.68
874.293	30.06
874.463	28
874.632	26.96
874.801	27.02
874.971	25.28
875.14	27.1
875.309	31.31
875.478	32.36
875.647	29.11
875.817	31.34
875.986	30.38
876.155	31.83
876.324	31.61
876.493	33.12
876.662	30.26
876.831	30.67
877	29.34
877.17	27.51
877.339	27.43
877.508	30.22
877.677	30.12
877.846	27.36
878.015	24.52
878.184	24.47
878.352	20.89
878.521	23.43
878.69	23.91
878.859	23.94
879.028	24.47
879.197	23.98
879.366	21.37
879.534	20.59
879.703	18.96
879.872	19.39
880.041	19.09
880.21	19.21
880.378	17.3
880.547	16.53
880.716	15.67
880.884	15.35
881.053	14.54
881.222	14.63
881.39	14.22
881.559	14.72
881.727	15.01
881.896	14.86
882.065	14.89
882.233	15.08
882.402	15.11
882.57	15.35
882.739	14.8
882.907	14.92
883.076	14.73
883.244	14.79
883.412	15.58
883.581	14.97
883.749	14.79
883.918	14.57
884.086	15.35
884.254	16.01
884.423	17.14
884.591	19.32
884.759	19.18
884.927	19.88
885.096	20.09
885.264	19.92
885.432	21.59
885.6	21.24
885.769	20.44
885.937	20.77
886.105	18.69
886.273	16.75
886.441	13.49
886.609	16.77
886.777	15.99
886.945	17.51
887.113	15.85
887.281	14.32
887.449	15.45
887.617	17.88
887.785	17.76
887.953	19.67
888.121	20.42
888.289	21.58
888.457	19.34
888.625	19.99
888.793	21.23
888.961	22.88
889.129	23.5
889.296	25.31
889.464	25.96
889.632	24.63
889.8	24.66
889.967	24.59
890.135	26.05
