Data from JASIL_3022_Reflection_01.txt Node
Date: Mon Nov 09 10:46:22 EST 2015
User: Geneva
Spectrometer: USB4E03002
Autoset integration time: false
Trigger mode: 4
Integration Time (sec): 1.000000E-1
Scans to average: 10
Electric dark correction enabled: false
Nonlinearity correction enabled: false
Boxcar width: 5
Stray light correction enabled: false
XAxis mode: Wavelengths
Stop averaging: false
Number of Pixels in Spectrum: 3648
>>>>>Begin Spectral Data<<<<<
177.575	18.28
177.794	26.04
178.014	50.27
178.233	69.2
178.452	42.51
178.672	-22.81
178.891	269.57
179.11	58.54
179.33	881.82
179.549	38.46
179.768	80.72
179.987	243.06
180.207	-245
180.426	-364.18
180.645	-74.74
180.864	-29.26
181.084	-11.72
181.303	-6.71
181.522	3.04
181.741	30.1
181.96	-94.47
182.179	11.94
182.398	43.21
182.618	10.65
182.837	25.73
183.056	-11.58
183.275	28.15
183.494	14.44
183.713	-362.5
183.932	-105.32
184.151	-381.82
184.37	21.47
184.589	-1394.44
184.808	166.16
185.027	126.82
185.246	54.77
185.465	46.57
185.684	121.97
185.903	90.1
186.122	104.31
186.341	131.61
186.56	164.83
186.779	285.71
186.998	-3.3
187.216	-7.6
187.435	-85.94
187.654	-125.95
187.873	-94.79
188.092	-119.93
188.311	-76.94
188.53	-47.44
188.748	-33.71
188.967	-169.39
189.186	622.58
189.405	315.73
189.623	388.79
189.842	477.78
190.061	-3120
190.28	-26.6
190.498	83.81
190.717	15.24
190.936	-0.57
191.154	16.84
191.373	46.73
191.592	135.66
191.81	72.05
192.029	79.89
192.248	6.93
192.466	23.01
192.685	-17.73
192.904	-639.13
193.122	49.28
193.341	-3440
193.559	1258.33
193.778	165.91
193.996	426.79
194.215	278.72
194.433	463.3
194.652	204.43
194.87	200.31
195.089	232.11
195.307	556
195.526	500.62
195.744	369.76
195.963	662.5
196.181	-2051.06
196.399	-571.69
196.618	-600
196.836	-265.75
197.055	-283.64
197.273	-253.4
197.491	-168
197.71	-102.26
197.928	-118.6
198.146	-146.94
198.365	-197.65
198.583	-5900
198.801	227.88
199.019	228.19
199.238	180.76
199.456	272.24
199.674	315.52
199.892	539.81
200.111	385
200.329	325
200.547	-1583.33
200.765	38.96
200.983	42.38
201.202	54.17
201.42	83.48
201.638	90.88
201.856	204.44
202.074	218.18
202.292	533.33
202.51	298.61
202.728	5450
202.946	-55.3
203.165	815.79
203.383	-326.92
203.601	-909.09
203.819	156.98
204.037	257.5
204.255	80.5
204.473	91.73
204.691	-8.82
204.909	533.33
205.127	-763.64
205.345	-205.88
205.562	546.3
205.78	-302
205.998	-314.49
206.216	-77.36
206.434	-156.18
206.652	-1857.14
206.87	338.98
207.088	135.15
207.306	69.43
207.523	59.09
207.741	29.67
207.959	-35.14
208.177	-0
208.395	83.33
208.612	127.24
208.83	104.89
209.048	149.66
209.266	263.24
209.483	726.23
209.701	-1458.62
209.919	16500
210.136	967.27
210.354	5233.33
210.572	-1361.7
210.79	-1286.11
211.007	378.83
211.225	374.85
211.442	1197.37
211.66	-150.82
211.878	2.63
212.095	-128.3
212.313	-6866.67
212.53	-24.59
212.748	4.27
212.966	-253.66
213.183	-2700
213.401	101.77
213.618	89
213.836	82.87
214.053	61.5
214.271	-40.27
214.488	11.42
214.705	32.79
214.923	40.51
215.14	70.87
215.358	119.55
215.575	100.71
215.793	0
216.01	-216.67
216.227	-131.48
216.445	132.7
216.662	255.1
216.879	116.98
217.097	150.7
217.314	214.52
217.531	484.48
217.749	-151.16
217.966	-255.38
218.183	-22.62
218.4	-10.22
218.618	12.43
218.835	30.03
219.052	49.85
219.269	38.6
219.487	44.52
219.704	15.47
219.921	49.66
220.138	148.15
220.355	137.06
220.572	4033.33
220.79	-135.19
221.007	-54.41
221.224	82.29
221.441	157.72
221.658	-44.55
221.875	-7.84
222.092	12.99
222.309	-8.12
222.526	-32.14
222.743	-13.49
222.96	-30.15
223.177	-16.09
223.394	-3.92
223.611	9.4
223.828	12.73
224.045	10.35
224.262	15.78
224.479	14.79
224.696	20.34
224.913	19.3
225.13	4.3
225.347	15.43
225.564	-7.94
225.781	-7.96
225.997	3.52
226.214	9.34
226.431	11.82
226.648	2.87
226.865	7.29
227.082	10.68
227.298	11.51
227.515	9.49
227.732	8.45
227.949	11.84
228.165	6.84
228.382	5.24
228.599	3.69
228.816	2.58
229.032	-0.87
229.249	-3.59
229.466	-4.44
229.682	-12.76
229.899	-7.97
230.116	-8.97
230.332	3.91
230.549	7.34
230.765	2.95
230.982	2.51
231.199	3.07
231.415	7.57
231.632	10.32
231.848	-2.51
232.065	10.56
232.281	-13.31
232.498	-14.91
232.714	-19.94
232.931	-8.88
233.147	-11.47
233.364	-15.05
233.58	-24.01
233.797	-13.41
234.013	-19.33
234.23	-14.87
234.446	-19.69
234.662	0.79
234.879	7.48
235.095	0.51
235.312	-4.77
235.528	-11.91
235.744	-2.43
235.961	4.29
236.177	-3.47
236.393	-6.38
236.61	-19.11
236.826	-19.1
237.042	-13.07
237.258	-15.87
237.475	-8.84
237.691	-10.26
237.907	-3.2
238.123	-7.25
238.339	-5.77
238.556	0.31
238.772	4.94
238.988	7.84
239.204	15.24
239.42	14.54
239.636	10.2
239.853	11.56
240.069	10.14
240.285	5.71
240.501	5.29
240.717	6.71
240.933	3.49
241.149	2.67
241.365	1.51
241.581	-0.92
241.797	-1.82
242.013	1.3
242.229	1.02
242.445	-0.1
242.661	4.27
242.877	1.99
243.093	-0.16
243.309	5.19
243.525	1.5
243.741	12.36
243.957	9.54
244.173	9.16
244.388	7.35
244.604	7.16
244.82	8.33
245.036	8.44
245.252	10.19
245.468	10.67
245.683	8
245.899	10.48
246.115	8.66
246.331	9.64
246.547	9.06
246.762	8.03
246.978	6.55
247.194	8.63
247.409	7.3
247.625	4.65
247.841	3.2
248.057	4.06
248.272	2.54
248.488	0.44
248.703	-1.37
248.919	1.65
249.135	3.33
249.35	4.19
249.566	1.18
249.782	-1.73
249.997	1.13
250.213	2.36
250.428	1.63
250.644	2
250.859	2.32
251.075	4.24
251.29	2.61
251.506	4.61
251.721	4.91
251.937	2.57
252.152	9.46
252.368	12.16
252.583	12.84
252.798	22.44
253.014	26.32
253.229	28.3
253.445	25.65
253.66	20.4
253.875	12.58
254.091	5.78
254.306	6.77
254.521	8.45
254.737	-4.85
254.952	-4.47
255.167	-12.62
255.383	-20.9
255.598	-17.74
255.813	-16.77
256.028	-14.53
256.244	-4.4
256.459	-2.01
256.674	-0.21
256.889	-3.28
257.104	3.59
257.32	4.72
257.535	1.9
257.75	5.2
257.965	5.47
258.18	6.46
258.395	6.26
258.61	4.24
258.826	4.33
259.041	2.87
259.256	1.97
259.471	2.42
259.686	2.6
259.901	5.08
260.116	2.11
260.331	1.78
260.546	1.55
260.761	2.88
260.976	4.53
261.191	5.12
261.406	6.55
261.621	9.75
261.836	8.46
262.05	6.77
262.265	3.67
262.48	6.93
262.695	7.9
262.91	6.85
263.125	3.73
263.34	0.54
263.555	3.69
263.769	6.13
263.984	8.06
264.199	7.22
264.414	5.63
264.629	6.31
264.843	5.57
265.058	2.32
265.273	4.05
265.488	3.98
265.702	5.68
265.917	5.39
266.132	5.73
266.346	3.98
266.561	6.01
266.776	8
266.99	5.18
267.205	5.8
267.42	6.21
267.634	5.75
267.849	7.84
268.063	8.01
268.278	8.07
268.492	8.52
268.707	9.75
268.922	7.78
269.136	5.27
269.351	6.3
269.565	6.85
269.78	5.2
269.994	3.9
270.209	4.44
270.423	3.63
270.637	2.03
270.852	1.42
271.066	0.01
271.281	-0.42
271.495	1.13
271.709	2.32
271.924	1.92
272.138	2.2
272.353	0.99
272.567	1.57
272.781	1.24
272.996	0.91
273.21	-3.15
273.424	-3.06
273.638	-2.13
273.853	-3.94
274.067	-6.16
274.281	-6.76
274.495	-6.45
274.71	-6.06
274.924	-6.1
275.138	-3.92
275.352	-2.9
275.566	-1.1
275.781	-3.42
275.995	-2.62
276.209	-1.5
276.423	-1.39
276.637	-2.91
276.851	-1.52
277.065	0.18
277.279	-1.92
277.493	-1.89
277.707	-4.8
277.921	-0.55
278.135	0.31
278.349	0.8
278.563	-2.93
278.777	-0.12
278.991	0.41
279.205	0.9
279.419	1.45
279.633	1.01
279.847	1.03
280.061	1.58
280.275	-4.26
280.489	-5.59
280.703	-8.92
280.917	-5.91
281.131	-6.97
281.344	-9.39
281.558	-9.43
281.772	-11.3
281.986	-10.54
282.2	-13.11
282.414	-10.65
282.627	-7.24
282.841	-6.57
283.055	-3.93
283.269	-4.73
283.482	-6.02
283.696	-4.45
283.91	-3.74
284.123	-1.45
284.337	-1.07
284.551	-0.74
284.764	-0.7
284.978	0.82
285.192	3.41
285.405	1.84
285.619	2.25
285.833	3.9
286.046	4.68
286.26	2.56
286.473	1.74
286.687	1
286.9	1.63
287.114	-1.09
287.327	-3.18
287.541	-6.07
287.754	-4.36
287.968	-1.17
288.181	-1.66
288.395	-2.53
288.608	0.7
288.822	-0.41
289.035	1.08
289.248	1.02
289.462	4.3
289.675	3.87
289.889	3.9
290.102	3.28
290.315	1.81
290.529	1.77
290.742	6.3
290.955	4.37
291.169	5.87
291.382	4.45
291.595	5.13
291.808	5.52
292.022	2.56
292.235	3.17
292.448	3.65
292.661	4.04
292.875	3.59
293.088	-0.82
293.301	0.22
293.514	-2.54
293.727	-2.4
293.94	-3.84
294.153	-5.03
294.367	-2.44
294.58	-3.9
294.793	-1.27
295.006	-2.19
295.219	-2.82
295.432	-2.71
295.645	-2.87
295.858	-1.81
296.071	-3.3
296.284	-2.61
296.497	-1.51
296.71	-2.69
296.923	-2.12
297.136	-5.97
297.349	-6.67
297.562	-6.36
297.775	-4.86
297.988	-5.75
298.201	-5.45
298.414	-5.22
298.626	-5.74
298.839	-6.41
299.052	-4.18
299.265	-3.25
299.478	-0.77
299.691	1.18
299.903	1.35
300.116	1.07
300.329	1.65
300.542	4.8
300.755	5.98
300.967	6.58
301.18	4.93
301.393	5.75
301.605	5.81
301.818	4.56
302.031	2.1
302.243	1.75
302.456	0.65
302.669	0.11
302.881	-2.56
303.094	-4.18
303.307	-3.42
303.519	-2.94
303.732	-6.32
303.944	-7.71
304.157	-7.71
304.37	-8.12
304.582	-8.66
304.795	-9.72
305.007	-8.3
305.22	-8.9
305.432	-8.97
305.645	-12.45
305.857	-13.95
306.069	-13.09
306.282	-13.08
306.494	-11.37
306.707	-10.37
306.919	-8.97
307.132	-8.12
307.344	-8.98
307.556	-6.88
307.769	-4.92
307.981	-2.04
308.193	0.44
308.406	1.19
308.618	1.54
308.83	0.56
309.043	1.53
309.255	2.49
309.467	1.94
309.679	4.1
309.892	3.84
310.104	3.62
310.316	5.65
310.528	3.51
310.74	5.04
310.953	6.76
311.165	6.84
311.377	8.78
311.589	5.92
311.801	8.28
312.013	8.09
312.225	6.97
312.437	7.05
312.649	2.3
312.862	3.81
313.074	0.2
313.286	2.37
313.498	4.19
313.71	2.39
313.922	4.98
314.134	2.43
314.346	0.07
314.558	2.79
314.77	2.1
314.982	2.25
315.193	3.03
315.405	6.04
315.617	3.48
315.829	5.08
316.041	7.37
316.253	7.66
316.465	9.78
316.677	10.57
316.888	9.14
317.1	11.85
317.312	12.72
317.524	11.54
317.736	9.79
317.947	9.32
318.159	10.21
318.371	8.1
318.583	7.95
318.794	7.55
319.006	5.77
319.218	5.73
319.43	3.2
319.641	6.07
319.853	6.95
320.064	7.12
320.276	7.65
320.488	6.59
320.699	6.01
320.911	7.35
321.123	4.87
321.334	6.05
321.546	6.06
321.757	8.31
321.969	9.98
322.18	10.25
322.392	11.05
322.603	9.71
322.815	6.96
323.026	6.64
323.238	7.53
323.449	8.12
323.661	10.28
323.872	9.51
324.083	8.28
324.295	6.22
324.506	4.84
324.718	5.47
324.929	4.99
325.14	6.18
325.352	5.03
325.563	3.62
325.774	2.71
325.986	0.44
326.197	-0.34
326.408	0.48
326.62	2.66
326.831	4
327.042	7.09
327.253	8.68
327.464	8.3
327.676	10.11
327.887	10.11
328.098	12.72
328.309	11.8
328.52	13.93
328.732	13.74
328.943	10.49
329.154	11.26
329.365	7.08
329.576	6.86
329.787	6.92
329.998	6.3
330.209	5.3
330.42	2.77
330.631	6.28
330.842	5.13
331.053	5.11
331.264	6.81
331.475	4.62
331.686	7.46
331.897	7.43
332.108	5.88
332.319	8.22
332.53	8.7
332.741	11.5
332.952	9.84
333.163	10.62
333.374	8.69
333.585	9.19
333.795	11.42
334.006	10.47
334.217	10.46
334.428	12.22
334.639	7.66
334.849	7.47
335.06	6.19
335.271	7.5
335.482	8.79
335.692	10.64
335.903	9.78
336.114	9.47
336.325	8.64
336.535	11.81
336.746	12.27
336.957	14.61
337.167	14.54
337.378	13.98
337.589	13.51
337.799	12.43
338.01	12.17
338.22	13.35
338.431	12.53
338.642	11.21
338.852	6.44
339.063	4.22
339.273	4.59
339.484	4.65
339.694	4.38
339.905	4.37
340.115	4.81
340.326	5.94
340.536	2.47
340.746	3.2
340.957	3.64
341.167	5.17
341.378	4.48
341.588	4.25
341.799	2.83
342.009	3.7
342.219	3.47
342.43	4.28
342.64	2.13
342.85	5.76
343.061	6.65
343.271	5.58
343.481	6.34
343.691	7.34
343.902	7.1
344.112	8.83
344.322	6.68
344.532	7.25
344.743	6.24
344.953	6.02
345.163	7.57
345.373	8.95
345.583	10.76
345.793	9.15
346.004	9.6
346.214	9.86
346.424	9.55
346.634	11.47
346.844	12.18
347.054	12.81
347.264	12.58
347.474	10.67
347.684	7.69
347.894	8.68
348.104	10.3
348.314	10.18
348.524	11.42
348.734	12.01
348.944	11.23
349.154	12.38
349.364	13.73
349.574	14.47
349.784	11.95
349.994	12.42
350.204	11.68
350.413	9.61
350.623	9.72
350.833	7.58
351.043	5.24
351.253	4.86
351.463	0.93
351.672	-2
351.882	1.74
352.092	3.48
352.302	3.89
352.511	4.91
352.721	6.02
352.931	6.18
353.141	6.48
353.35	8.39
353.56	10.51
353.77	12.66
353.979	12.62
354.189	11.49
354.399	12.74
354.608	14.24
354.818	10.99
355.027	10.25
355.237	9.97
355.447	11.62
355.656	10.77
355.866	9
356.075	8.77
356.285	9.51
356.494	9.31
356.704	7.87
356.913	5.23
357.123	7.53
357.332	8.76
357.542	9.24
357.751	6.73
357.96	6.98
358.17	8.52
358.379	6.52
358.589	5.93
358.798	3.37
359.007	4.37
359.217	6.73
359.426	7.61
359.635	7.6
359.845	7.78
360.054	8.17
360.263	7.99
360.472	8.19
360.682	8.83
360.891	9.12
361.1	10.83
361.309	10.33
361.519	8.24
361.728	7.08
361.937	6.5
362.146	6.75
362.355	8.12
362.564	7.88
362.774	7.97
362.983	8.84
363.192	8.94
363.401	8.56
363.61	8.66
363.819	8.75
364.028	9.38
364.237	9.32
364.446	7.99
364.655	6.74
364.864	7.99
365.073	6.86
365.282	5.43
365.491	6.47
365.7	8.48
365.909	8.04
366.118	9.16
366.327	9.24
366.536	9.87
366.745	11.23
366.954	12.52
367.162	11.2
367.371	12.42
367.58	12.38
367.789	11.12
367.998	9.65
368.207	11.24
368.415	10.46
368.624	9.42
368.833	9.26
369.042	7.87
369.25	6.38
369.459	7.41
369.668	6.46
369.877	6.71
370.085	6.87
370.294	6.66
370.503	5.48
370.711	6.59
370.92	5.76
371.129	4.58
371.337	5.17
371.546	6.13
371.754	4.93
371.963	3.99
372.171	6.32
372.38	7.02
372.589	7.52
372.797	8.74
373.006	7.72
373.214	7.66
373.423	8.42
373.631	9.05
373.84	8.95
374.048	8.75
374.256	9.98
374.465	8.89
374.673	8.23
374.882	6.54
375.09	6.25
375.298	6.09
375.507	8.12
375.715	9.15
375.923	8.71
376.132	9.86
376.34	10.76
376.548	9.18
376.757	9.93
376.965	9.43
377.173	10.15
377.381	10.77
377.59	11.99
377.798	11.7
378.006	10.11
378.214	10
378.423	10.37
378.631	10.1
378.839	11.4
379.047	10.12
379.255	10.72
379.463	9.66
379.671	9.05
379.879	8.93
380.088	8.21
380.296	9.42
380.504	9.54
380.712	9.09
380.92	9.51
381.128	9.97
381.336	10.41
381.544	10.9
381.752	12.41
381.96	12.39
382.168	11.12
382.376	12.07
382.584	12.81
382.791	12.2
382.999	11.21
383.207	11.96
383.415	12.1
383.623	11.77
383.831	10.29
384.039	10.87
384.247	10.38
384.454	10.03
384.662	9.06
384.87	8.62
385.078	8.81
385.285	8.9
385.493	8.37
385.701	7.63
385.909	8.63
386.116	8.82
386.324	8.01
386.532	8.89
386.739	10.21
386.947	10.74
387.155	10
387.362	9.83
387.57	10.05
387.778	9.66
387.985	9.29
388.193	7.96
388.4	9.17
388.608	8.93
388.816	7.69
389.023	6.7
389.231	6.41
389.438	6.3
389.646	4.87
389.853	4.93
390.061	4.93
390.268	5.77
390.475	7.03
390.683	5.9
390.89	5.8
391.098	6.91
391.305	7.93
391.512	8.35
391.72	8.72
391.927	10.98
392.135	11.14
392.342	11.6
392.549	10.17
392.756	9.67
392.964	11.14
393.171	11.94
393.378	11.65
393.586	10.75
393.793	10.16
394	11.35
394.207	10.97
394.414	10.79
394.622	10.2
394.829	10.94
395.036	11.83
395.243	11.87
395.45	10.93
395.657	10.51
395.864	10.94
396.072	10.34
396.279	9.32
396.486	9.35
396.693	9.41
396.9	9.54
397.107	10.3
397.314	8.55
397.521	7.5
397.728	7.96
397.935	8.07
398.142	8.71
398.349	10.28
398.556	9.81
398.763	9.07
398.97	9.5
399.177	9.67
399.383	10.18
399.59	10.75
399.797	10.88
400.004	10.76
400.211	10.77
400.418	9.7
400.625	9.25
400.831	9.1
401.038	10.4
401.245	10.43
401.452	10.5
401.658	9.92
401.865	10.24
402.072	11.11
402.279	10.81
402.485	10.09
402.692	10.91
402.899	10.2
403.105	10.35
403.312	9.88
403.519	9.77
403.725	9.84
403.932	9.49
404.138	10.24
404.345	9.44
404.552	9.1
404.758	9.5
404.965	8.84
405.171	9.41
405.378	9.31
405.584	8.59
405.791	7.61
405.997	7.44
406.204	7.47
406.41	6.39
406.617	6.34
406.823	7.64
407.029	8.8
407.236	9.38
407.442	9.22
407.649	9.05
407.855	9.74
408.061	10.44
408.268	10.84
408.474	10.68
408.68	11.71
408.887	12.19
409.093	11.88
409.299	9.91
409.505	9.63
409.712	9.37
409.918	9.65
410.124	10.13
410.33	9.7
410.537	9.5
410.743	9
410.949	7.23
411.155	7.28
411.361	7.9
411.567	9.03
411.773	9.74
411.98	10.03
412.186	9.79
412.392	9.16
412.598	9.35
412.804	9.51
413.01	10.44
413.216	11.52
413.422	12.28
413.628	10.97
413.834	10.87
414.04	10.38
414.246	9.49
414.452	9.5
414.658	9.7
414.864	10.02
415.07	8.94
415.275	7.72
415.481	6.41
415.687	5.2
415.893	4.8
416.099	5.32
416.305	5.49
416.511	6.3
416.716	6.61
416.922	6.79
417.128	6.33
417.334	7.01
417.539	7.88
417.745	8.34
417.951	8.33
418.157	9.27
418.362	9.05
418.568	8.58
418.774	8.06
418.979	7.82
419.185	8.23
419.391	8.08
419.596	8.06
419.802	7.53
420.008	7.59
420.213	3.44
420.419	2.81
420.624	2.73
420.83	3.04
421.035	3.27
421.241	3.58
421.446	2.96
421.652	3.3
421.857	3.25
422.063	3.86
422.268	4.26
422.474	8.2
422.679	7.86
422.885	7.72
423.09	7.48
423.295	7.62
423.501	7.56
423.706	7.47
423.911	7.36
424.117	7.17
424.322	6.9
424.527	6.69
424.733	7.24
424.938	7.54
425.143	7.62
425.349	7.6
425.554	7.39
425.759	7.5
425.964	7.98
426.169	8.39
426.375	8.37
426.58	8.91
426.785	9.31
426.99	8.72
427.195	8.81
427.4	8.94
427.605	9.21
427.811	9.89
428.016	9.22
428.221	8.68
428.426	7.37
428.631	7.49
428.836	7.3
429.041	5.98
429.246	6.2
429.451	6.71
429.656	5.66
429.861	5.52
430.066	5.42
430.271	5.98
430.476	6.42
430.681	7.24
430.886	7.21
431.09	6.69
431.295	7.02
431.5	6.78
431.705	6.69
431.91	7.21
432.115	7.87
432.32	6.74
432.524	6.84
432.729	5.87
432.934	5.78
433.139	6.04
433.343	5.86
433.548	5.81
433.753	5.94
433.958	5.9
434.162	5.56
434.367	5.24
434.572	5.57
434.776	5.47
434.981	5.84
435.186	5.1
435.39	4.44
435.595	5.02
435.799	5.03
436.004	4.97
436.209	4.53
436.413	5
436.618	4.48
436.822	5.32
437.027	5.02
437.231	5.12
437.436	5.3
437.64	5.58
437.845	5.77
438.049	5.74
438.253	6.05
438.458	6.62
438.662	6.1
438.867	5.7
439.071	5.31
439.275	5.21
439.48	5.03
439.684	5.42
439.888	5.75
440.093	5.37
440.297	5.4
440.501	5.32
440.706	5.18
440.91	5.83
441.114	6.16
441.318	6.41
441.523	6.04
441.727	6.26
441.931	6.36
442.135	6.17
442.339	6.8
442.543	7.23
442.748	7.38
442.952	7.22
443.156	6.89
443.36	7.13
443.564	7.09
443.768	7.94
443.972	7.88
444.176	6.69
444.38	7.03
444.584	7.17
444.788	6.86
444.992	6.7
445.196	6.41
445.4	6.74
445.604	6.29
445.808	6
446.012	5.92
446.216	5.84
446.42	6.83
446.624	6.2
446.828	5.59
447.032	5.83
447.235	5.58
447.439	5.59
447.643	5.66
447.847	5.79
448.051	5.84
448.254	4.8
448.458	4.78
448.662	5.13
448.866	5.31
449.069	4.9
449.273	4.69
449.477	4.87
449.681	6.05
449.884	6.43
450.088	6.93
450.292	7.37
450.495	8.69
450.699	8.78
450.902	8.69
451.106	8.51
451.31	8.63
451.513	8.38
451.717	8.72
451.92	8.09
452.124	7.72
452.327	7.28
452.531	6.68
452.734	5.85
452.938	5.61
453.141	4.78
453.345	5
453.548	4.6
453.752	4.78
453.955	4.61
454.158	4.2
454.362	3.66
454.565	4.17
454.769	3.95
454.972	4.49
455.175	4.83
455.379	4.26
455.582	4.25
455.785	4.48
455.988	4.33
456.192	4.54
456.395	5.09
456.598	5.51
456.801	4.45
457.005	4.89
457.208	4.29
457.411	4.4
457.614	5.36
457.817	5.62
458.021	6.32
458.224	6.08
458.427	6.35
458.63	6.53
458.833	6.31
459.036	6.92
459.239	6.8
459.442	6.86
459.645	6.62
459.848	6.63
460.051	6.6
460.254	6.4
460.457	6.33
460.66	5.51
460.863	4.87
461.066	4.62
461.269	4.44
461.472	4.43
461.675	4.78
461.878	4.66
462.081	4.42
462.284	3.48
462.486	3.37
462.689	3.8
462.892	4.25
463.095	4.49
463.298	4.91
463.5	4.76
463.703	4.71
463.906	5.17
464.109	5.42
464.311	5.23
464.514	5.56
464.717	5.06
464.92	5.25
465.122	4.89
465.325	5.18
465.528	5.48
465.73	5.64
465.933	6.46
466.135	5.64
466.338	5.54
466.541	5.63
466.743	5.4
466.946	5.62
467.148	5.38
467.351	6.21
467.553	5.82
467.756	5.72
467.958	5.74
468.161	4.71
468.363	5.24
468.566	5.87
468.768	6.37
468.971	6.71
469.173	7.03
469.375	6.76
469.578	6.18
469.78	6.15
469.983	5.86
470.185	6.45
470.387	6.7
470.59	6.78
470.792	6.09
470.994	5.73
471.196	6.27
471.399	6.63
471.601	7.26
471.803	6.84
472.005	6.64
472.208	6.02
472.41	5.53
472.612	5.66
472.814	5.36
473.016	5.51
473.218	5.05
473.421	4.59
473.623	4.14
473.825	4.02
474.027	5.01
474.229	5.41
474.431	5.86
474.633	6.1
474.835	6.29
475.037	6.09
475.239	6.26
475.441	6.88
475.643	6.41
475.845	6.03
476.047	6.2
476.249	5.68
476.451	5.25
476.653	5.98
476.855	5.59
477.057	5.51
477.258	5.45
477.46	5.87
477.662	5.4
477.864	6.28
478.066	7.11
478.268	6.94
478.469	6.79
478.671	7.05
478.873	6.4
479.075	6.34
479.276	6.85
479.478	6.84
479.68	6.68
479.882	6.85
480.083	6.39
480.285	5.85
480.487	5.93
480.688	5.91
480.89	5.6
481.091	5.38
481.293	5.7
481.495	5.4
481.696	5.54
481.898	5.69
482.099	5.55
482.301	5.72
482.502	5.88
482.704	5.83
482.905	6.03
483.107	6.12
483.308	6.28
483.51	6.14
483.711	6.24
483.913	6.27
484.114	5.92
484.315	6.09
484.517	6.05
484.718	5.91
484.92	5.92
485.121	5.74
485.322	5.72
485.524	5.86
485.725	5.95
485.926	6.07
486.127	6.06
486.329	6.21
486.53	6.18
486.731	6.34
486.932	6.33
487.134	6.24
487.335	6.32
487.536	6.48
487.737	6.39
487.938	6.43
488.139	6.29
488.341	6.29
488.542	6.08
488.743	6.02
488.944	5.94
489.145	5.97
489.346	6.17
489.547	6.1
489.748	6.06
489.949	6.07
490.15	5.95
490.351	5.97
490.552	5.93
490.753	6.2
490.954	6.33
491.155	6.23
491.356	6.19
491.557	6.13
491.758	6.34
491.959	6.26
492.159	6.05
492.36	6.3
492.561	6.35
492.762	6.56
492.963	6.37
493.164	6.56
493.364	6.51
493.565	6.74
493.766	6.98
493.967	6.58
494.167	6.67
494.368	6.8
494.569	6.48
494.769	6.02
494.97	5.5
495.171	6.25
495.371	6.06
495.572	5.77
495.773	5.87
495.973	5.84
496.174	5.96
496.375	6.15
496.575	6.05
496.776	6.39
496.976	6.35
497.177	6.71
497.377	6.09
497.578	5.63
497.778	6.2
497.979	5.93
498.179	5.87
498.38	5.9
498.58	5.66
498.78	6.19
498.981	5.75
499.181	5.7
499.382	6.04
499.582	6.09
499.782	6.77
499.983	6.52
500.183	6.55
500.383	6.3
500.584	6.49
500.784	6.75
500.984	6.26
501.184	6.37
501.385	7.01
501.585	6.53
501.785	6.49
501.985	6.4
502.185	6.43
502.386	6.37
502.586	6.81
502.786	6.07
502.986	6.17
503.186	6.35
503.386	6.69
503.586	6.29
503.786	6.22
503.987	6.68
504.187	6.62
504.387	6.88
504.587	7.2
504.787	6.99
504.987	7.46
505.187	7.78
505.387	7.85
505.587	7.51
505.786	7.41
505.986	8.27
506.186	8.12
506.386	8.15
506.586	7.65
506.786	7.62
506.986	7.83
507.186	8.03
507.386	7.87
507.585	8.14
507.785	8.94
507.985	9.52
508.185	9.15
508.384	9.14
508.584	9.15
508.784	9.43
508.984	9.85
509.183	9.82
509.383	10.26
509.583	10.04
509.782	10.17
509.982	9.56
510.182	9.33
510.381	9.48
510.581	9.33
510.781	9.45
510.98	9.77
511.18	9.36
511.379	9.44
511.579	9.01
511.778	9.27
511.978	9.42
512.177	9.59
512.377	9.65
512.576	9.75
512.776	10.11
512.975	10.58
513.175	10.15
513.374	10.33
513.573	10.12
513.773	9.85
513.972	9.8
514.172	9.47
514.371	9.59
514.57	9.79
514.77	9.83
514.969	9.83
515.168	9.01
515.367	9.02
515.567	8.73
515.766	9.15
515.965	9.61
516.164	9.67
516.364	9.83
516.563	9.93
516.762	10.03
516.961	9.65
517.16	9.53
517.359	9.83
517.559	10.3
517.758	10.42
517.957	10.44
518.156	10.6
518.355	10.81
518.554	10.82
518.753	10.94
518.952	10.58
519.151	11.06
519.35	11.49
519.549	11.86
519.748	11.98
519.947	12.71
520.146	12.71
520.345	12.63
520.544	12.78
520.743	12.81
520.942	12.71
521.141	13.31
521.339	13.23
521.538	13.13
521.737	13.32
521.936	13.51
522.135	13.32
522.333	13.5
522.532	13.44
522.731	13.1
522.93	13.06
523.129	13.13
523.327	13.14
523.526	13.3
523.725	13.41
523.923	13.57
524.122	13.55
524.321	13.42
524.519	13.56
524.718	13.61
524.917	13.76
525.115	14.01
525.314	14
525.512	13.73
525.711	13.77
525.909	13.66
526.108	13.29
526.306	13.24
526.505	13.4
526.703	13.06
526.902	12.98
527.1	12.94
527.299	13.07
527.497	13.17
527.696	13.31
527.894	13.36
528.092	13.58
528.291	13.64
528.489	13.79
528.688	13.61
528.886	13.85
529.084	14.23
529.283	14.31
529.481	14.38
529.679	14.46
529.877	14.47
530.076	14.48
530.274	14.51
530.472	14.37
530.67	14.23
530.869	14.34
531.067	14.41
531.265	14.42
531.463	14.45
531.661	14.59
531.859	14.42
532.057	14.76
532.255	14.79
532.454	14.79
532.652	15
532.85	15.03
533.048	15.19
533.246	15.38
533.444	15.42
533.642	15.62
533.84	15.41
534.038	15.65
534.236	15.21
534.434	15.46
534.632	15.57
534.83	15.84
535.027	15.96
535.225	15.97
535.423	16.16
535.621	16.23
535.819	16.48
536.017	16.63
536.215	16.97
536.412	17.92
536.61	18.02
536.808	18.24
537.006	18.06
537.203	18.14
537.401	18.48
537.599	18.55
537.797	18.26
537.994	18.06
538.192	17.95
538.39	18
538.587	17.43
538.785	17.45
538.983	17.05
539.18	16.97
539.378	17.02
539.575	16.99
539.773	16.58
539.97	16.81
540.168	16.83
540.366	16.76
540.563	16.62
540.761	16.8
540.958	16.66
541.155	16.78
541.353	17.16
541.55	16.97
541.748	16.99
541.945	17.27
542.143	17.32
542.34	17.79
542.537	17.95
542.735	17.84
542.932	17.63
543.129	18.02
543.327	18.16
543.524	18.2
543.721	18.61
543.919	18.84
544.116	18.97
544.313	19.14
544.51	18.59
544.708	18.83
544.905	18.6
545.102	18.97
545.299	18.45
545.496	18.73
545.693	18.86
545.891	18.85
546.088	18.73
546.285	18.92
546.482	18.98
546.679	19.47
546.876	19.36
547.073	20.29
547.27	20.18
547.467	20.51
547.664	20.06
547.861	19.92
548.058	20.04
548.255	20.45
548.452	20.48
548.649	20.54
548.846	20.37
549.043	20.75
549.24	20.35
549.437	20.59
549.633	20.65
549.83	20.9
550.027	21.15
550.224	21.63
550.421	21.38
550.618	21.03
550.814	20.9
551.011	20.68
551.208	20.43
551.405	20.8
551.601	20.07
551.798	20.37
551.995	20.62
552.191	20.28
552.388	19.89
552.585	20.22
552.781	21.18
552.978	21.25
553.175	21.54
553.371	21.81
553.568	22.2
553.764	22.79
553.961	23.29
554.157	23.56
554.354	24.22
554.55	24.53
554.747	24.72
554.943	24.05
555.14	24.19
555.336	24.88
555.533	25.14
555.729	24.75
555.926	24.86
556.122	25
556.318	25.41
556.515	25.28
556.711	26.21
556.907	25.96
557.104	26.2
557.3	26.39
557.496	25.91
557.693	25.32
557.889	25.41
558.085	26.03
558.281	25.46
558.478	24.85
558.674	25.29
558.87	24.69
559.066	24.71
559.262	24.71
559.459	25.02
559.655	25.65
559.851	25.74
560.047	26.03
560.243	25.49
560.439	26.16
560.635	26.4
560.831	26.32
561.027	26.98
561.223	27.01
561.419	27.53
561.615	27.41
561.811	27.22
562.007	27.11
562.203	27.34
562.399	27.88
562.595	28.02
562.791	28.37
562.987	27.57
563.183	27.14
563.379	27.38
563.575	26.74
563.771	26.78
563.966	26.59
564.162	27.16
564.358	26.93
564.554	26.71
564.75	26.42
564.945	26.06
565.141	26.84
565.337	26.75
565.533	26.4
565.728	26.97
565.924	26.67
566.12	26.83
566.315	26.63
566.511	26.78
566.707	27
566.902	27.31
567.098	27.38
567.293	27.06
567.489	27.01
567.684	27.63
567.88	26.64
568.076	26.91
568.271	26.97
568.467	27.15
568.662	26.66
568.858	25.99
569.053	25.56
569.248	25.95
569.444	25.94
569.639	26.28
569.835	25.56
570.03	26.23
570.225	25.98
570.421	26.11
570.616	25.87
570.812	25.96
571.007	26.56
571.202	26.78
571.397	26.82
571.593	27.31
571.788	27.36
571.983	27.21
572.178	27.73
572.374	28.01
572.569	27.41
572.764	27.98
572.959	28.35
573.154	28.43
573.35	28.38
573.545	28.3
573.74	27.73
573.935	27.68
574.13	28.05
574.325	27.66
574.52	28.26
574.715	28.8
574.91	28.78
575.105	28.83
575.3	29.01
575.495	29.05
575.69	29.44
575.885	29.99
576.08	29.47
576.275	30.02
576.47	30.2
576.665	30.25
576.86	30.57
577.055	30.7
577.25	30.28
577.444	30.33
577.639	29.83
577.834	29.39
578.029	29.16
578.224	29.23
578.418	29.35
578.613	28.18
578.808	27.15
579.003	27.14
579.197	27.32
579.392	28.24
579.587	28.55
579.781	29.42
579.976	29.71
580.171	29.68
580.365	30.16
580.56	30.42
580.755	31.73
580.949	33.12
581.144	32.86
581.338	32.88
581.533	33.23
581.727	33.72
581.922	34.09
582.116	34.46
582.311	34.57
582.505	34.48
582.7	34.73
582.894	34.55
583.089	34.28
583.283	34.24
583.478	33.51
583.672	33.27
583.866	33.07
584.061	33.06
584.255	32.54
584.449	32.7
584.644	33.27
584.838	32.64
585.032	32.25
585.226	32.78
585.421	32.62
585.615	32.99
585.809	32.88
586.003	31.96
586.198	32.03
586.392	31.8
586.586	30.92
586.78	30.58
586.974	30.24
587.168	30.95
587.363	29.11
587.557	29.32
587.751	29
587.945	28.54
588.139	29.32
588.333	28.58
588.527	28.97
588.721	29.03
588.915	28.7
589.109	28.95
589.303	28.68
589.497	28.98
589.691	29.09
589.885	29.52
590.079	29.87
590.273	29.53
590.466	30.56
590.66	30.46
590.854	31.54
591.048	32.32
591.242	32.43
591.436	32.19
591.629	32.72
591.823	33.12
592.017	33.18
592.211	32.95
592.404	33.05
592.598	32.13
592.792	31.9
592.986	31.55
593.179	31.05
593.373	31.26
593.567	31.76
593.76	32.26
593.954	31.59
594.147	31.49
594.341	31.26
594.535	31.08
594.728	30.91
594.922	30.98
595.115	30.57
595.309	30.34
595.502	30.09
595.696	30.01
595.889	29.97
596.083	30.13
596.276	29.72
596.47	30.32
596.663	30.18
596.856	30.43
597.05	30.76
597.243	31.18
597.437	32.01
597.63	32.22
597.823	32.46
598.017	31.99
598.21	32.21
598.403	33.43
598.596	33.49
598.79	33.81
598.983	34.26
599.176	33.68
599.369	33.74
599.563	33.69
599.756	34.37
599.949	33.59
600.142	34.18
600.335	33.58
600.528	33.78
600.722	33.45
600.915	32.93
601.108	33.32
601.301	32.95
601.494	33.44
601.687	33.05
601.88	32.26
602.073	32.7
602.266	32.44
602.459	32.91
602.652	32.38
602.845	32.46
603.038	33.09
603.231	32.56
603.424	33.36
603.617	32.77
603.809	32.32
604.002	32.1
604.195	32.08
604.388	32.55
604.581	32.58
604.774	32.67
604.966	32.91
605.159	32.83
605.352	32.61
605.545	32.57
605.737	33.25
605.93	33.94
606.123	35.21
606.316	35.78
606.508	35.57
606.701	35.69
606.894	35.98
607.086	35.54
607.279	35.43
607.471	35.64
607.664	35.51
607.857	35.78
608.049	35.32
608.242	34.15
608.434	33.87
608.627	33.63
608.819	33.4
609.012	33.76
609.204	33.78
609.397	33.9
609.589	33.66
609.782	33.97
609.974	33.95
610.166	34.54
610.359	35.82
610.551	36.78
610.743	36.68
610.936	37.65
611.128	37.42
611.32	37.8
611.513	37.77
611.705	38.41
611.897	38.51
612.09	37.86
612.282	38.42
612.474	38.14
612.666	38.1
612.858	39
613.051	38.55
613.243	37.46
613.435	36.79
613.627	36.46
613.819	36.06
614.011	35.93
614.203	36.71
614.395	35.78
614.588	36.44
614.78	35.31
614.972	35.02
615.164	34.44
615.356	35.11
615.548	35.97
615.74	36.38
615.932	36.09
616.124	36.27
616.315	35.98
616.507	37.28
616.699	35.78
616.891	36.58
617.083	36.49
617.275	37.83
617.467	37.46
617.659	36.63
617.85	36.9
618.042	38.55
618.234	37.6
618.426	37.1
618.618	37.24
618.809	37.23
619.001	36.84
619.193	37.13
619.384	36.74
619.576	37.07
619.768	37.93
619.959	37.87
620.151	37.06
620.343	38.06
620.534	38.39
620.726	37.35
620.917	37.45
621.109	38.19
621.301	37.6
621.492	37.61
621.684	38.68
621.875	38.19
622.067	37.55
622.258	36.43
622.45	35.91
622.641	35.34
622.832	35.69
623.024	36.6
623.215	35.62
623.407	35.8
623.598	35.61
623.789	35.21
623.981	35.05
624.172	34.85
624.363	36.28
624.555	36.39
624.746	36.29
624.937	36.66
625.129	35.98
625.32	35.82
625.511	35.93
625.702	35.76
625.893	35.67
626.085	36.24
626.276	36.44
626.467	36.19
626.658	36.48
626.849	36.96
627.04	36.86
627.231	37.16
627.422	38.09
627.614	38.07
627.805	37.79
627.996	37.88
628.187	37.57
628.378	37.84
628.569	38.12
628.76	38.08
628.951	38.48
629.142	38.2
629.332	38.42
629.523	37.97
629.714	38.4
629.905	38.83
630.096	38.4
630.287	38.4
630.478	39.51
630.669	40.07
630.859	40.18
631.05	40.32
631.241	40.66
631.432	41.01
631.623	41.65
631.813	41.35
632.004	41.73
632.195	41.52
632.385	41.41
632.576	41.56
632.767	41.08
632.957	40.1
633.148	40.3
633.339	40.29
633.529	40.21
633.72	39.61
633.91	39.78
634.101	39.17
634.292	38.73
634.482	39.99
634.673	39.17
634.863	39.02
635.054	39.95
635.244	39.48
635.435	39.02
635.625	38.55
635.815	38.51
636.006	38.56
636.196	39.45
636.387	40.4
636.577	39.86
636.767	40.13
636.958	40.27
637.148	40.08
637.338	39.73
637.529	39.7
637.719	39.85
637.909	41.1
638.099	41.17
638.29	39.41
638.48	39.23
638.67	39.8
638.86	39.57
639.05	38.84
639.241	39.19
639.431	39.91
639.621	40.86
639.811	41.06
640.001	40.31
640.191	40.87
640.381	43.4
640.571	43.46
640.761	43.49
640.951	43.98
641.141	44.88
641.331	45.01
641.521	45.42
641.711	44.08
641.901	43.72
642.091	43.21
642.281	43.16
642.471	40.86
642.661	41.44
642.851	41.48
643.041	40.65
643.231	42.31
643.42	41.58
643.61	41.06
643.8	41.22
643.99	41.25
644.18	41.79
644.369	40.47
644.559	41.29
644.749	40.34
644.939	38.81
645.128	39.78
645.318	37.6
645.508	37.38
645.697	37.5
645.887	36.76
646.076	37.54
646.266	37.46
646.456	37.37
646.645	39.4
646.835	40.28
647.024	41.08
647.214	39.91
647.403	40.45
647.593	41.09
647.782	41.06
647.972	42.6
648.161	42.31
648.351	42.89
648.54	44.33
648.73	42.22
648.919	40.5
649.108	39.72
649.298	39.56
649.487	39.2
649.677	39.28
649.866	40.06
650.055	39.16
650.244	38.6
650.434	38.41
650.623	37.98
650.812	38.44
651.002	40.87
651.191	40.95
651.38	42.27
651.569	41.79
651.758	42.31
651.947	40.67
652.137	40.39
652.326	40.9
652.515	40.63
652.704	41.63
652.893	42.12
653.082	40.38
653.271	41.24
653.46	40.08
653.649	39.93
653.838	39.39
654.027	40.71
654.216	40.15
654.405	39.65
654.594	39.89
654.783	39.21
654.972	38.66
655.161	39.89
655.35	39.29
655.539	40.64
655.728	41.8
655.916	41.7
656.105	41.72
656.294	42.15
656.483	42.65
656.672	41.21
656.86	40.42
657.049	40.22
657.238	40.4
657.427	40.07
657.615	39.77
657.804	39.04
657.993	39.1
658.181	38.62
658.37	38.79
658.559	38.47
658.747	39.39
658.936	39.71
659.125	39.53
659.313	38.4
659.502	39.26
659.69	39.12
659.879	39.23
660.067	38.83
660.256	38.12
660.444	38.64
660.633	38.27
660.821	38.47
661.01	39.23
661.198	40.45
661.387	41.27
661.575	41.49
661.763	41.16
661.952	41.2
662.14	41.66
662.328	44.3
662.517	45.36
662.705	46.34
662.893	45.68
663.082	44.7
663.27	43.94
663.458	44.04
663.646	44.26
663.834	46.33
664.023	46.04
664.211	45.58
664.399	44.33
664.587	44.06
664.775	43.81
664.963	44.3
665.152	44.19
665.34	44.6
665.528	43.67
665.716	42.94
665.904	41.71
666.092	42.7
666.28	43.08
666.468	42.47
666.656	41.46
666.844	41.57
667.032	40.94
667.22	41.44
667.408	42.22
667.596	42.22
667.784	41.98
667.971	41.21
668.159	41.27
668.347	42.08
668.535	42.7
668.723	43.56
668.911	43.19
669.098	43.95
669.286	43.54
669.474	42.78
669.662	43.59
669.849	42.9
670.037	42.22
670.225	42.72
670.413	43
670.6	43.19
670.788	41.03
670.976	41.21
671.163	41.58
671.351	41.92
671.538	41.97
671.726	42.32
671.913	41.73
672.101	42.94
672.289	42.85
672.476	41.69
672.664	41.76
672.851	43.47
673.039	43.22
673.226	43.88
673.413	41.72
673.601	41.99
673.788	41.82
673.976	42.38
674.163	42.39
674.35	42.79
674.538	44.05
674.725	42.32
674.912	42.36
675.1	42.76
675.287	41.43
675.474	44.05
675.662	43.84
675.849	44.05
676.036	44.98
676.223	45.53
676.411	46.11
676.598	45.29
676.785	45.34
676.972	45.86
677.159	45.2
677.346	45.66
677.533	45.35
677.721	45.46
677.908	44.91
678.095	45.03
678.282	44.02
678.469	43.06
678.656	42.61
678.843	42.77
679.03	41.9
679.217	42.65
679.404	43.52
679.591	42.85
679.778	42.52
679.964	42.65
680.151	43
680.338	42.99
680.525	42.74
680.712	44.86
680.899	45.45
681.086	46.6
681.272	46.83
681.459	44.56
681.646	45.69
681.833	44.93
682.02	45.63
682.206	44.51
682.393	43.5
682.58	43.75
682.766	41.56
682.953	41.46
683.14	39.95
683.326	39.24
683.513	40.68
683.7	40.98
683.886	41.05
684.073	40.31
684.259	40.27
684.446	40.53
684.632	40.31
684.819	41.08
685.005	40.52
685.192	40.84
685.378	40.41
685.565	40.65
685.751	39.07
685.938	40.42
686.124	40.01
686.31	39.78
686.497	40.25
686.683	40.44
686.87	38.75
687.056	39.65
687.242	39.42
687.429	38.81
687.615	38.78
687.801	39.7
687.987	38.52
688.174	39.94
688.36	40.27
688.546	40.17
688.732	40.98
688.918	42.3
689.105	42.05
689.291	41
689.477	42.8
689.663	41.8
689.849	41.55
690.035	41.73
690.221	40.75
690.407	41.06
690.593	41.45
690.779	41.45
690.965	42.33
691.151	43.62
691.337	45.94
691.523	43.71
691.709	43.58
691.895	43.22
692.081	42.52
692.267	41.9
692.453	43.06
692.639	44.28
692.825	42.43
693.011	42.28
693.196	41.59
693.382	41.01
693.568	41.39
693.754	40.8
693.94	40.54
694.125	40.93
694.311	41.01
694.497	39.97
694.682	39.86
694.868	39.18
695.054	39.26
695.239	37.99
695.425	39.04
695.611	40.3
695.796	38.79
695.982	39.66
696.168	39.45
696.353	39.05
696.539	39.99
696.724	38.5
696.91	38.85
697.095	37.8
697.281	36.9
697.466	35.59
697.652	35.31
697.837	37.12
698.023	36.44
698.208	36.32
698.393	37.85
698.579	37.47
698.764	38.86
698.949	39.43
699.135	39.11
699.32	40.13
699.505	41.71
699.691	42.22
699.876	41.66
700.061	43.15
700.246	44.49
700.432	45.4
700.617	46.19
700.802	45.6
700.987	44.68
701.172	47.31
701.358	47.83
701.543	48.12
701.728	49.85
701.913	51.11
702.098	50.75
702.283	50.23
702.468	49.2
702.653	51.03
702.838	53.25
703.023	54.6
703.208	53.33
703.393	53.36
703.578	51.11
703.763	48.18
703.948	47.25
704.133	46.66
704.318	48.51
704.503	48.96
704.688	46.99
704.873	45.59
705.057	45.3
705.242	44.17
705.427	45.45
705.612	46.63
705.797	47.73
705.981	47.76
706.166	47.84
706.351	47.2
706.536	46.94
706.72	46.7
706.905	47.22
707.09	47.95
707.274	47.9
707.459	45.56
707.644	44.74
707.828	45.37
708.013	45.55
708.197	45.05
708.382	44.66
708.567	44.57
708.751	44.37
708.936	44.69
709.12	45.06
709.305	46.07
709.489	46.88
709.673	49.32
709.858	48.73
710.042	50.15
710.227	50.17
710.411	49.48
710.596	48.61
710.78	48.94
710.964	49.15
711.149	46.84
711.333	46.29
711.517	48.47
711.702	46.87
711.886	47.22
712.07	46.78
712.254	46.32
712.438	47.32
712.623	47.3
712.807	47.63
712.991	45.84
713.175	46.45
713.359	47.19
713.544	44.64
713.728	43.86
713.912	42.67
714.096	41.64
714.28	41.89
714.464	40.61
714.648	40.86
714.832	39.66
715.016	40.32
715.2	40.16
715.384	38.49
715.568	39.49
715.752	41.25
715.936	42.37
716.12	43.46
716.304	44.43
716.488	45.24
716.671	45.53
716.855	46.22
717.039	45.83
717.223	46.45
717.407	46.87
717.59	48.07
717.774	44.3
717.958	44.42
718.142	44.9
718.325	42.82
718.509	39.95
718.693	41.12
718.877	40.57
719.06	39.9
719.244	40.1
719.428	43.15
719.611	39.03
719.795	42.69
719.978	42.46
720.162	42.09
720.345	43.04
720.529	42.97
720.713	42.52
720.896	40.91
721.08	44.12
721.263	41.55
721.446	39.12
721.63	38.02
721.813	36.61
721.997	32.93
722.18	31.72
722.364	30.68
722.547	33.16
722.73	29.82
722.914	31.88
723.097	30.44
723.28	34.7
723.464	33.02
723.647	36.7
723.83	36.64
724.013	39.76
724.197	40.24
724.38	39.88
724.563	40.46
724.746	46.43
724.929	43.32
725.112	40.66
725.296	39.45
725.479	39.99
725.662	41.11
725.845	40.16
726.028	38.48
726.211	37.07
726.394	39.4
726.577	39.47
726.76	37.05
726.943	37.05
727.126	37.68
727.309	38.39
727.492	38.29
727.675	37.72
727.858	38.75
728.041	40.28
728.224	42.02
728.407	40.79
728.589	40.77
728.772	39.04
728.955	41.53
729.138	41.67
729.321	42.95
729.503	43.98
729.686	45.3
729.869	44.36
730.052	43.95
730.234	45.05
730.417	47.01
730.6	45.46
730.782	43.65
730.965	43.07
731.148	43.99
731.33	40.25
731.513	40.97
731.695	38.93
731.878	41.68
732.061	42.36
732.243	40.78
732.426	39.73
732.608	41.41
732.791	43.74
732.973	44.76
733.156	43.85
733.338	46
733.52	43.37
733.703	43.43
733.885	41.08
734.068	42.71
734.25	45.07
734.432	46.41
734.615	46.48
734.797	48.45
734.979	46.64
735.162	49.83
735.344	49.64
735.526	52.81
735.708	55.12
735.891	55.27
736.073	54.87
736.255	51.15
736.437	51.6
736.619	50.56
736.802	50.6
736.984	53.28
737.166	49.74
737.348	52.22
737.53	51.83
737.712	51.1
737.894	50.69
738.076	50.36
738.258	54.41
738.44	53.87
738.622	55.99
738.804	55.06
738.986	52.35
739.168	53.68
739.35	54.26
739.532	53.57
739.714	53.04
739.896	54.36
740.078	52.58
740.259	49.57
740.441	49.07
740.623	50.78
740.805	50.2
740.987	50.9
741.168	52.3
741.35	55.39
741.532	56.98
741.714	57.62
741.895	58.22
742.077	62.24
742.259	65.34
742.44	68.05
742.622	66.25
742.804	69.69
742.985	70.5
743.167	71.41
743.348	67.8
743.53	67.02
743.711	70.72
743.893	70.96
744.075	70.35
744.256	70.86
744.438	67.26
744.619	66.61
744.8	67.93
744.982	71.45
745.163	70.26
745.345	68.53
745.526	71.58
745.707	67.78
745.889	67.74
746.07	63.54
746.252	66.02
746.433	68.33
746.614	68.11
746.795	63.34
746.977	62.33
747.158	64.44
747.339	65.34
747.52	66.12
747.702	69.59
747.883	69.6
748.064	74.81
748.245	68.67
748.426	68.14
748.607	68.81
748.788	71.78
748.97	71.77
749.151	69.37
749.332	71.7
749.513	68.43
749.694	69.25
749.875	65.8
750.056	62.9
750.237	64.68
750.418	65.79
750.599	65.78
750.78	62.69
750.96	62.16
751.141	62.2
751.322	62.45
751.503	66.92
751.684	64.26
751.865	67.52
752.046	71.34
752.226	68.64
752.407	66.36
752.588	63.74
752.769	63.58
752.949	62.3
753.13	61.13
753.311	58.34
753.492	54.99
753.672	57.75
753.853	57.23
754.034	53.21
754.214	54.92
754.395	56.85
754.575	60.69
754.756	63.82
754.937	65.32
755.117	67.72
755.298	68.28
755.478	68.67
755.659	63.79
755.839	63.42
756.02	65.76
756.2	64.28
756.381	63.36
756.561	61.03
756.741	59.01
756.922	56.19
757.102	50.18
757.283	48.89
757.463	47.79
757.643	47.51
757.823	42.93
758.004	36.96
758.184	37.13
758.364	35.38
758.545	37.23
758.725	34.41
758.905	34.01
759.085	35.96
759.265	35.06
759.446	32.89
759.626	31.91
759.806	32.69
759.986	35.33
760.166	34.15
760.346	34.32
760.526	29.57
760.706	33.16
760.886	36.01
761.066	34.31
761.246	33.48
761.426	34.28
761.606	37.95
761.786	38.5
761.966	35.91
762.146	35.45
762.326	35.51
762.506	36.27
762.686	33.46
762.866	32.85
763.046	34.05
763.225	35.21
763.405	34.44
763.585	32.03
763.765	31.22
763.945	33.1
764.124	33.94
764.304	33.98
764.484	38.04
764.664	41.68
764.843	42.07
765.023	45.68
765.203	49.19
765.382	54.8
765.562	54.25
765.741	59
765.921	59.78
766.101	63.52
766.28	68.74
766.46	64.84
766.639	68.47
766.819	68.93
766.998	73.79
767.178	71.15
767.357	70.79
767.537	69.53
767.716	69.78
767.896	72.21
768.075	73.05
768.254	67.52
768.434	68.15
768.613	68.15
768.792	70.14
768.972	69.47
769.151	74.58
769.33	75.75
769.51	78.51
769.689	82.77
769.868	77.47
770.047	78.35
770.226	82.52
770.406	87.51
770.585	90.11
770.764	89.25
770.943	84.6
771.122	80.17
771.301	84.07
771.48	86.02
771.66	79.21
771.839	88.65
772.018	87.01
772.197	81.83
772.376	81.54
772.555	77.28
772.734	76.79
772.913	78.35
773.092	76.44
773.271	72.13
773.449	73.73
773.628	78.15
773.807	75.22
773.986	74.34
774.165	78.94
774.344	73.74
774.523	73.09
774.701	70.18
774.88	67.52
775.059	71.36
775.238	69.02
775.417	67.71
775.595	71.06
775.774	72.13
775.953	73.85
776.131	77.03
776.31	81.94
776.489	86.72
776.667	92.23
776.846	92.33
777.025	90.16
777.203	95.05
777.382	97.23
777.56	98.81
777.739	104.9
777.917	98.39
778.096	98.27
778.274	96.74
778.453	89.27
778.631	84.6
778.81	89.38
778.988	91.07
779.166	86.01
779.345	80.78
779.523	74.43
779.702	72.9
779.88	76.46
780.058	70.2
780.237	69.81
780.415	71.1
780.593	73.17
780.771	72.74
780.95	71.28
781.128	74.3
781.306	74.05
781.484	79.81
781.662	78.23
781.841	76.99
782.019	71.4
782.197	70.98
782.375	83.48
782.553	87.39
782.731	90.12
782.909	100.87
783.087	85.42
783.265	91.24
783.443	86.71
783.621	82.13
783.799	84.17
783.977	92.04
784.155	92.4
784.333	83.26
784.511	79.7
784.689	79.87
784.867	79.05
785.045	80.74
785.223	75.92
785.4	68.31
785.578	70.62
785.756	78.77
785.934	82.58
786.112	76.88
786.289	72.11
786.467	69.95
786.645	65.61
786.823	61.08
787	65.67
787.178	66.27
787.356	71.73
787.533	69.22
787.711	62.87
787.889	58.49
788.066	60.76
788.244	64.17
788.421	63.33
788.599	59.98
788.776	56.53
788.954	56.44
789.131	56.87
789.309	59
789.486	61.19
789.664	59.88
789.841	58.99
790.019	54.23
790.196	41.99
790.373	47.86
790.551	55.9
790.728	54.01
790.906	49.43
791.083	65.84
791.26	53.38
791.437	54.88
791.615	61.5
791.792	65.62
791.969	72.27
792.146	75.85
792.324	72.9
792.501	62.28
792.678	66.16
792.855	66.34
793.032	56.85
793.209	58.7
793.387	50
793.564	49.25
793.741	56.27
793.918	61.9
794.095	66.65
794.272	66.76
794.449	66.35
794.626	75.07
794.803	76.45
794.98	78.83
795.157	87.04
795.334	96.33
795.511	97.73
795.688	93.48
795.864	91.42
796.041	98.96
796.218	89.31
796.395	89.76
796.572	84.86
796.749	77.46
796.925	74.23
797.102	66.06
797.279	59.37
797.456	56.11
797.632	49.3
797.809	46.23
797.986	47.5
798.162	51.84
798.339	47.16
798.516	44.02
798.692	46.35
798.869	39.57
799.046	38.76
799.222	46.15
799.399	44.33
799.575	55.18
799.752	59.94
799.928	57.54
800.105	55.9
800.281	57.72
800.458	59.9
800.634	71.12
800.811	70.19
800.987	78.83
801.163	76.2
801.34	80.2
801.516	68.76
801.692	57.57
801.869	64.23
802.045	64.95
802.221	69.74
802.398	67.64
802.574	70.09
802.75	78.86
802.926	70.83
803.103	74.28
803.279	77.61
803.455	82.68
803.631	88.66
803.807	85.96
803.983	95.08
804.16	99.04
804.336	92.72
804.512	95.96
804.688	91.44
804.864	97.56
805.04	98.33
805.216	97.87
805.392	89.25
805.568	91.34
805.744	83.59
805.92	79.41
806.096	77.23
806.272	88.46
806.448	82.36
806.623	79.48
806.799	71.44
806.975	75.76
807.151	64.46
807.327	72.76
807.503	80.12
807.678	92.59
807.854	82.16
808.03	87.3
808.206	70.03
808.381	76.15
808.557	83.51
808.733	97.26
808.908	101.43
809.084	97.57
809.26	90.78
809.435	87.56
809.611	67.85
809.787	71.06
809.962	55.44
810.138	65.23
810.313	36.04
810.489	36.99
810.664	27.88
810.84	18.97
811.015	40.15
811.191	51.06
811.366	42.03
811.542	50.06
811.717	51.37
811.892	62.91
812.068	62.39
812.243	95.33
812.419	91.54
812.594	95.93
812.769	83.55
812.944	71.45
813.12	61.68
813.295	54.68
813.47	46.12
813.645	54.78
813.821	59.07
813.996	72.87
814.171	65.48
814.346	91.85
814.521	93.35
814.697	81.14
814.872	77.59
815.047	82.16
815.222	81.31
815.397	87.33
815.572	83.59
815.747	84.7
815.922	71.21
816.097	69.88
816.272	48.24
816.447	34.71
816.622	40
816.797	44.55
816.972	43.92
817.147	46.88
817.322	47.8
817.496	46.01
817.671	45.18
817.846	45.24
818.021	48.9
818.196	48.08
818.371	56.05
818.545	51.79
818.72	52.79
818.895	49.4
819.069	41.16
819.244	36.76
819.419	34.29
819.594	31.1
819.768	30.28
819.943	24.02
820.117	23.7
820.292	23.09
820.467	25.64
820.641	24.28
820.816	23.53
820.99	23.79
821.165	24.21
821.339	24.2
821.514	24.49
821.688	23.79
821.863	25.52
822.037	25.99
822.212	26.63
822.386	26.21
822.56	26.85
822.735	27.34
822.909	28.95
823.084	31.6
823.258	34.41
823.432	34.53
823.606	36.57
823.781	36.72
823.955	37.43
824.129	37.59
824.303	38.58
824.478	37.7
824.652	42.14
824.826	45.65
825	39.95
825.174	33.08
825.348	32.83
825.523	33.21
825.697	35.77
825.871	35.14
826.045	37.59
826.219	39.64
826.393	44.61
826.567	41.16
826.741	38.52
826.915	41.72
827.089	45.47
827.263	51.79
827.437	55.23
827.611	53.9
827.784	57.43
827.958	54.55
828.132	52.78
828.306	44.95
828.48	47.07
828.654	51.05
828.827	53.23
829.001	59.99
829.175	57.31
829.349	52.24
829.522	58.31
829.696	60.51
829.87	59.92
830.044	46.23
830.217	54.97
830.391	60.98
830.565	55.98
830.738	54.15
830.912	46.05
831.085	35.24
831.259	35.96
831.432	23.98
831.606	17.36
831.779	12.8
831.953	21.51
832.126	22.05
832.3	25.95
832.473	24.46
832.647	27.78
832.82	23.77
832.994	27.67
833.167	28.41
833.34	29.7
833.514	31.04
833.687	35.9
833.86	43.37
834.034	44.29
834.207	40.64
834.38	40.77
834.553	44.66
834.727	55.56
834.9	56.17
835.073	60.6
835.246	51.22
835.419	53.71
835.593	51.05
835.766	53.09
835.939	51.64
836.112	69
836.285	103.9
836.458	77.43
836.631	62.02
836.804	59.12
836.977	57.4
837.15	79.4
837.323	95.73
837.496	115.88
837.669	101.42
837.842	75.27
838.015	57.01
838.188	54.87
838.361	47.61
838.533	43.15
838.706	45.5
838.879	40.22
839.052	41.78
839.225	40.59
839.398	39.45
839.57	37.87
839.743	45.05
839.916	46.6
840.088	32.15
840.261	31.73
840.434	32.13
840.607	27.07
840.779	33.4
840.952	35.3
841.124	37.81
841.297	37.48
841.47	25.1
841.642	61.76
841.815	95.45
841.987	105.03
842.16	176.69
842.332	137.34
842.505	121.8
842.677	81.7
842.85	67.06
843.022	58.49
843.194	39.29
843.367	45.35
843.539	8.61
843.712	11.8
843.884	19.72
844.056	1.77
844.229	7.07
844.401	9.9
844.573	79.34
844.745	102.19
844.918	156.79
845.09	270
845.262	219.94
845.434	338.3
845.606	569.64
845.779	-1484.09
845.951	16950
846.123	-2029.41
846.295	1567.35
846.467	-1834.21
846.639	-2721.74
846.811	812.5
846.983	303.59
847.155	647.5
847.327	489.62
847.499	213.69
847.671	215.74
847.843	347.73
848.015	356.52
848.187	304.08
848.359	181.05
848.531	201.73
848.703	188
848.875	252.23
849.047	700
849.218	1025
849.39	-292.59
849.562	3880
849.734	-317.86
849.905	4514.29
850.077	-335.14
850.249	-171.43
850.421	909.52
850.592	522.76
850.764	209.24
850.936	159.94
851.107	183.98
851.279	138.62
851.451	89
851.622	145.81
851.794	80.65
851.965	19.63
852.137	-23.6
852.308	-2322.22
852.48	213.89
852.651	2.62
852.823	-148.41
852.994	-1155.56
853.166	2237.5
853.337	-822.22
853.509	190.95
853.68	2925
853.851	227.78
854.023	216.78
854.194	327.97
854.365	230.19
854.537	145.82
854.708	119.16
854.879	71.79
855.05	126.14
855.222	142.86
855.393	287.18
855.564	218.49
855.735	217.42
855.906	278.91
856.078	309.65
856.249	195.21
856.42	255.56
856.591	324.26
856.762	-2800
856.933	-2030.77
857.104	-510.67
857.275	10600
857.446	621.54
857.617	-6766.67
857.788	20750
857.959	281.14
858.13	1163.27
858.301	397.67
858.472	314.44
858.643	226.45
858.814	178.18
858.985	201.76
859.155	114.06
859.326	48.51
859.497	65.67
859.668	34.39
859.839	-11.61
860.009	-64.88
860.18	-63.23
860.351	18.12
860.522	35.34
860.692	37
860.863	32.85
861.034	89.47
861.204	128.26
861.375	161.24
861.546	121.2
861.716	115.65
861.887	113.75
862.057	300
862.228	600
862.398	8.83
862.569	1.96
862.739	-54.55
862.91	221.74
863.08	657.14
863.251	-938.1
863.421	-201.33
863.592	-1225
863.762	-174.03
863.932	636.59
864.103	-202.22
864.273	144.21
864.443	171.43
864.614	76.44
864.784	-21.51
864.954	10.31
865.125	-14.49
865.295	-19.33
865.465	-17.5
865.635	-28.66
865.805	-32.29
865.976	-5.54
866.146	11.4
866.316	25.91
866.486	32.64
866.656	63.72
866.826	76.35
866.996	77.56
867.166	83.39
867.336	83.9
867.506	66.27
867.676	58.84
867.846	46
868.016	32.08
868.186	51.46
868.356	89.16
868.526	-93.94
868.696	1064.71
868.866	408.96
869.036	1003.7
869.206	-789.19
869.376	459.26
869.545	-436
869.715	309.52
869.885	-139.71
870.055	70.94
870.224	-13.36
870.394	-8.91
870.564	-27.91
870.734	31.25
870.903	61.57
871.073	83.8
871.243	120.97
871.412	161.47
871.582	210.87
871.751	-763.64
871.921	-234.18
872.091	-26.1
872.26	-63.05
872.43	-55.5
872.599	-100.73
872.769	-87.65
872.938	-127.88
873.108	-92.96
873.277	-262.1
873.446	3861.54
873.616	-340.86
873.785	136.58
873.955	210.26
874.124	202.07
874.293	334.54
874.463	1770.27
874.632	-634.78
874.801	-484.55
874.971	-97.99
875.14	-38.48
875.309	-20.81
875.478	-154.95
875.647	-14.36
875.817	47.74
875.986	15.08
876.155	500
876.324	37.88
876.493	12.74
876.662	-6.8
876.831	13.87
877	29.87
877.17	43.29
877.339	121.25
877.508	154.59
877.677	0
877.846	-575
878.015	-173.33
878.184	-34.75
878.352	-4000
878.521	486.76
878.69	244.77
878.859	165.48
879.028	115.88
879.197	83.16
879.366	75.93
879.534	61.5
879.703	59.46
879.872	57.88
880.041	47.93
880.21	43.04
880.378	41.9
880.547	27.4
880.716	31.61
880.884	22.24
881.053	23.69
881.222	11.2
881.39	3.31
881.559	16.35
881.727	13.21
881.896	13.71
882.065	7.92
882.233	2.52
882.402	7.62
882.57	-10.58
882.739	-2.07
882.907	-6.1
883.076	-3.24
883.244	-3
883.412	-18.25
883.581	-0.09
883.749	-4.16
883.918	8.77
884.086	13.77
884.254	27.25
884.423	45.88
884.591	54.21
884.759	63.05
884.927	78.67
885.096	86.39
885.264	98.8
885.432	72.31
885.6	76.37
885.769	50.47
885.937	47.87
886.105	33.05
886.273	43.38
886.441	38.35
886.609	38.97
886.777	40.95
886.945	43.34
887.113	29.96
887.281	48.94
887.449	73.63
887.617	84.66
887.785	81.95
887.953	102.77
888.121	120.63
888.289	242.5
888.457	488.46
888.625	171.43
888.793	-621.05
888.961	1237.5
889.129	2975
889.296	404.69
889.464	607.69
889.632	563.08
889.8	324.07
889.967	165.09
890.135	109.75
