Data from JASIL_3107_Reflection_1.txt Node
Date: Thu Nov 12 19:47:28 EST 2015
User: Geneva
Spectrometer: USB4E03002
Autoset integration time: false
Trigger mode: 4
Integration Time (sec): 1.000000E-1
Scans to average: 10
Electric dark correction enabled: true
Nonlinearity correction enabled: false
Boxcar width: 5
Stray light correction enabled: false
XAxis mode: Wavelengths
Stop averaging: false
Number of Pixels in Spectrum: 3648
>>>>>Begin Spectral Data<<<<<
177.575	-177.02
177.794	318.97
178.014	-767.53
178.233	-81.29
178.452	8.09
178.672	7.4
178.891	63.89
179.11	298.18
179.33	119.55
179.549	150.55
179.768	140.57
179.987	106.99
180.207	80.97
180.426	76.44
180.645	138.58
180.864	37.86
181.084	72.16
181.303	14.29
181.522	-109.64
181.741	-23.09
181.96	5.54
182.179	20.49
182.398	28.74
182.618	-4.42
182.837	2.8
183.056	-751.37
183.275	876.7
183.494	370.53
183.713	124.84
183.932	-863.77
184.151	-713.75
184.37	821.23
184.589	1144.92
184.808	371.76
185.027	871.1
185.246	-128.66
185.465	-221.76
185.684	-191.39
185.903	-328.44
186.122	-245.29
186.341	-628.29
186.56	-718.84
186.779	-338.35
186.998	8482.67
187.216	667.43
187.435	683.27
187.654	208.06
187.873	129.34
188.092	157.44
188.311	-486.16
188.53	154.65
188.748	684.11
188.967	-386.02
189.186	169.76
189.405	582.51
189.623	2946.49
189.842	-245.54
190.061	-180.97
190.28	-252.07
190.498	-213.61
190.717	1015.77
190.936	-920.52
191.154	586.13
191.373	355
191.592	-2733.96
191.81	1183.66
192.029	-844.43
192.248	-196.57
192.466	-224.38
192.685	-476.97
192.904	1215.85
193.122	443.2
193.341	206.29
193.559	230.8
193.778	225.26
193.996	230.9
194.215	923.49
194.433	284.11
194.652	190.85
194.87	189.06
195.089	254.78
195.307	50
195.526	634.4
195.744	-424.12
195.963	180.43
196.181	-166.07
196.399	-403.22
196.618	-249.51
196.836	-376.43
197.055	-839.19
197.273	-135.68
197.491	-50.46
197.71	-5.81
197.928	-5.98
198.146	-59.44
198.365	-89
198.583	-3.68
198.801	53.75
199.019	48.25
199.238	59.85
199.456	60.53
199.674	39.91
199.892	16.35
200.111	-161.18
200.329	51.69
200.547	-181.21
200.765	-64.07
200.983	-29.83
201.202	-15.29
201.42	-15.96
201.638	-53.76
201.856	-42.58
202.074	-26.72
202.292	-132.95
202.51	-252.87
202.728	-199.95
202.946	-230.77
203.165	1991.93
203.383	609.99
203.601	235.43
203.819	957.63
204.037	-1583.65
204.255	-359.26
204.473	2640.49
204.691	-165.06
204.909	-397.49
205.127	-891.84
205.345	180.57
205.562	201.83
205.78	133.35
205.998	280.93
206.216	115.31
206.434	63.44
206.652	66.55
206.87	73.99
207.088	36.78
207.306	60.69
207.523	52.22
207.741	42.8
207.959	211.45
208.177	27090
208.395	305.64
208.612	270.66
208.83	-586.02
209.048	-612.98
209.266	-493.21
209.483	-207.17
209.701	-112.55
209.919	-157.02
210.136	-106.31
210.354	-62.24
210.572	-12.17
210.79	13
211.007	4.92
211.225	8.2
211.442	18.33
211.66	8.53
211.878	35.04
212.095	47.14
212.313	59.83
212.53	64.14
212.748	33.05
212.966	46.17
213.183	135.56
213.401	172.69
213.618	57.39
213.836	47.59
214.053	29.43
214.271	322.87
214.488	193.25
214.705	629.77
214.923	-376.28
215.14	-5735.8
215.358	1358.2
215.575	-20123.64
215.793	-481.98
216.01	-1242.74
216.227	1574.34
216.445	719.54
216.662	-318.96
216.879	-4324.06
217.097	371.62
217.314	227.22
217.531	320.44
217.749	-76.56
217.966	-319.09
218.183	-161.52
218.4	-35.76
218.618	585.77
218.835	-290.07
219.052	43.97
219.269	1.47
219.487	-16.15
219.704	13.46
219.921	31.21
220.138	92.2
220.355	148.13
220.572	117.78
220.79	84.96
221.007	19.4
221.224	55.89
221.441	86.88
221.658	212.24
221.875	336
222.092	558.78
222.309	515.64
222.526	1848.91
222.743	1653.75
222.96	517.15
223.177	-2618.1
223.394	-700.86
223.611	-411.1
223.828	-5052.05
224.045	1348.86
224.262	-598.8
224.479	-1046.37
224.696	-198.4
224.913	-113.79
225.13	-31.17
225.347	-40.47
225.564	-43.61
225.781	-32.72
225.997	-48.01
226.214	-41.72
226.431	-46.61
226.648	-57.07
226.865	-28.57
227.082	-30.94
227.298	-35.87
227.515	-35.22
227.732	-31.52
227.949	-28.87
228.165	-26.59
228.382	-18.27
228.599	-12.56
228.816	-5.01
229.032	2.96
229.249	5.35
229.466	-0.55
229.682	-4.52
229.899	-3.73
230.116	-0.54
230.332	-8.3
230.549	-7.89
230.765	-8.1
230.982	-11.95
231.199	-5.52
231.415	-16.2
231.632	-53.54
231.848	-48.75
232.065	-44.85
232.281	-35.18
232.498	-41.92
232.714	-17.65
232.931	-26.32
233.147	-28.11
233.364	-42.6
233.58	-56.1
233.797	-40.98
234.013	-6.26
234.23	-6.36
234.446	-11.36
234.662	-16.69
234.879	-29.42
235.095	-46.41
235.312	-29.41
235.528	-24.81
235.744	-12.24
235.961	-20.26
236.177	-13.56
236.393	-25.03
236.61	-13.28
236.826	-3.32
237.042	-24.51
237.258	-20.16
237.475	-11.2
237.691	-21.14
237.907	-22.89
238.123	-24.98
238.339	-35.34
238.556	-31.68
238.772	-29.67
238.988	-33.42
239.204	-41.84
239.42	-22.53
239.636	-4.77
239.853	-10.79
240.069	-5.13
240.285	-8.73
240.501	-5.08
240.717	3.89
240.933	4.31
241.149	4.45
241.365	5.83
241.581	4.18
241.797	5.94
242.013	0.73
242.229	5.42
242.445	3.96
242.661	12.32
242.877	12.38
243.093	13.12
243.309	11.46
243.525	10.28
243.741	3.25
243.957	2.79
244.173	2.55
244.388	4.44
244.604	5.47
244.82	8.5
245.036	4.69
245.252	4.87
245.468	0.53
245.683	-0.53
245.899	0.07
246.115	0.35
246.331	0.43
246.547	2.74
246.762	1.35
246.978	1.9
247.194	-0.01
247.409	-2.1
247.625	-6.36
247.841	-5.23
248.057	-5.37
248.272	-4.37
248.488	-5.06
248.703	-3.58
248.919	-10.64
249.135	-12.93
249.35	-22.65
249.566	-28.35
249.782	-27.62
249.997	-22.49
250.213	-22.66
250.428	-20.54
250.644	-23.73
250.859	-15.34
251.075	-15.61
251.29	-6.47
251.506	-4.69
251.721	-1.03
251.937	3
252.152	-1.07
252.368	1.59
252.583	3.72
252.798	1.89
253.014	2.92
253.229	1.89
253.445	4.2
253.66	2.14
253.875	4.72
254.091	1.12
254.306	7.62
254.521	7.03
254.737	0.46
254.952	-2.8
255.167	-3.02
255.383	2.27
255.598	3.48
255.813	1.45
256.028	-7.4
256.244	-10.39
256.459	-5.21
256.674	-10.87
256.889	-6.32
257.104	-5.45
257.32	-7.88
257.535	-5.46
257.75	-5.7
257.965	-4.1
258.18	-4.13
258.395	-1.62
258.61	-3.63
258.826	-2.5
259.041	-2.93
259.256	-1.23
259.471	-0.94
259.686	1.95
259.901	0.29
260.116	0.78
260.331	1.04
260.546	1.7
260.761	1.85
260.976	4.43
261.191	3.37
261.406	6.39
261.621	3.52
261.836	5.03
262.05	1.17
262.265	3.15
262.48	-3.86
262.695	-8.06
262.91	-10.69
263.125	-7.49
263.34	-3.68
263.555	-8.68
263.769	-11.1
263.984	-6.09
264.199	-1.06
264.414	3.31
264.629	0.68
264.843	4.54
265.058	2.03
265.273	-0.58
265.488	0.5
265.702	-3.13
265.917	0.5
266.132	-0.4
266.346	-0.7
266.561	-4.07
266.776	-1.9
266.99	1.85
267.205	1.73
267.42	4.16
267.634	7.76
267.849	4.84
268.063	7.41
268.278	3.31
268.492	3.14
268.707	-0.61
268.922	1.03
269.136	-2.82
269.351	-3.29
269.565	-0.31
269.78	2.28
269.994	1.1
270.209	1.56
270.423	-0.7
270.637	1.89
270.852	2.34
271.066	4.1
271.281	4.75
271.495	7.28
271.709	5.92
271.924	4.7
272.138	1.29
272.353	-0.84
272.567	-0.87
272.781	-1.1
272.996	-2.81
273.21	-3.45
273.424	-5.61
273.638	-6.91
273.853	-8.98
274.067	-7.15
274.281	-7.66
274.495	-5.68
274.71	-5.78
274.924	-8.43
275.138	-5.93
275.352	-7.1
275.566	-7.88
275.781	-7
275.995	-7.93
276.209	-6.42
276.423	-8.19
276.637	-7.45
276.851	-8.25
277.065	-6.5
277.279	-4.16
277.493	-3.06
277.707	0.64
277.921	0.45
278.135	4.49
278.349	4.99
278.563	3.28
278.777	4.85
278.991	5.4
279.205	5.49
279.419	7.27
279.633	6.82
279.847	3.51
280.061	2.89
280.275	4.5
280.489	0.12
280.703	0.71
280.917	1.08
281.131	1.67
281.344	1.37
281.558	0.28
281.772	-3.44
281.986	-3.1
282.2	-0.69
282.414	-2.66
282.627	-2.92
282.841	-0.66
283.055	-1.55
283.269	0.48
283.482	-0.1
283.696	-3.83
283.91	-0.73
284.123	2.19
284.337	2.26
284.551	-1.01
284.764	-0.91
284.978	-0.96
285.192	-1.78
285.405	-3.42
285.619	-6.69
285.833	-7.75
286.046	-3.93
286.26	-7.65
286.473	-8.51
286.687	-7.75
286.9	-6.02
287.114	-4.7
287.327	-3.11
287.541	-1.27
287.754	0.69
287.968	2.31
288.181	2.87
288.395	0.15
288.608	3.16
288.822	4.41
289.035	4.03
289.248	2.97
289.462	1.3
289.675	-2.01
289.889	-2.98
290.102	-4.65
290.315	-6.15
290.529	-5.21
290.742	-2.32
290.955	-1.82
291.169	-4.84
291.382	-5
291.595	-5.66
291.808	-4.41
292.022	-1.21
292.235	-4.43
292.448	-0.44
292.661	1.26
292.875	0.67
293.088	-3.04
293.301	-4.54
293.514	-2.69
293.727	-3.02
293.94	-2.05
294.153	-3.08
294.367	-4.51
294.58	-4
294.793	-4.9
295.006	-5.75
295.219	-4.6
295.432	-2.81
295.645	-3.6
295.858	-4.05
296.071	-4.62
296.284	-3.86
296.497	-2.45
296.71	-1.03
296.923	1.95
297.136	2
297.349	2.23
297.562	1.21
297.775	1.91
297.988	2.66
298.201	3.2
298.414	3.82
298.626	3.07
298.839	2.44
299.052	1.79
299.265	-0.36
299.478	-3.13
299.691	-3.34
299.903	-2.01
300.116	-4.24
300.329	-2.81
300.542	-2.96
300.755	-2.38
300.967	-0.66
301.18	0.83
301.393	-0.55
301.605	-0.79
301.818	2.18
302.031	2.41
302.243	1.44
302.456	0.18
302.669	-1.41
302.881	-1.2
303.094	0.29
303.307	-0.43
303.519	-1.83
303.732	-1.16
303.944	-1.44
304.157	-3
304.37	-0.92
304.582	0.65
304.795	4.54
305.007	2.69
305.22	5.88
305.432	3.43
305.645	2.83
305.857	4.05
306.069	3.81
306.282	5.39
306.494	6.69
306.707	4.75
306.919	0.28
307.132	-2.18
307.344	-0.16
307.556	-2.21
307.769	-2.55
307.981	-2.24
308.193	-3.38
308.406	-1.82
308.618	-1.69
308.83	-0.83
309.043	0.65
309.255	3.43
309.467	4.82
309.679	4.23
309.892	5.17
310.104	5.57
310.316	4.8
310.528	4.9
310.74	3.71
310.953	2.98
311.165	4.64
311.377	3.59
311.589	1.95
311.801	0.68
312.013	1.59
312.225	-0.08
312.437	0.64
312.649	2.26
312.862	4.1
313.074	3.78
313.286	2.65
313.498	-2.33
313.71	-2.59
313.922	-1.92
314.134	-1
314.346	-3.54
314.558	-3.4
314.77	-4.14
314.982	-4.29
315.193	-3
315.405	-2.34
315.617	-1.37
315.829	0.28
316.041	-1.09
316.253	0.31
316.465	-0.06
316.677	1.52
316.888	1.88
317.1	3.98
317.312	6.73
317.524	3.4
317.736	2.41
317.947	3.09
318.159	1.8
318.371	3.01
318.583	1.54
318.794	2.09
319.006	3.11
319.218	3.32
319.43	2.47
319.641	0.28
319.853	1.45
320.064	4.55
320.276	7.4
320.488	8.56
320.699	11.1
320.911	11.28
321.123	10.99
321.334	9.8
321.546	8.34
321.757	6.41
321.969	7.53
322.18	6.75
322.392	6.06
322.603	5.79
322.815	5.24
323.026	3.18
323.238	4.44
323.449	2.16
323.661	4.54
323.872	1.83
324.083	2.55
324.295	3.25
324.506	4.6
324.718	4.03
324.929	2.61
325.14	5.95
325.352	6.24
325.563	7.74
325.774	10.92
325.986	9.88
326.197	12.46
326.408	13.25
326.62	13.25
326.831	13.74
327.042	13.52
327.253	14.45
327.464	13.23
327.676	14.93
327.887	13.64
328.098	12.73
328.309	11.02
328.52	9.95
328.732	11.34
328.943	9.5
329.154	7.55
329.365	9
329.576	9.2
329.787	10.16
329.998	9.54
330.209	8.68
330.42	7.96
330.631	9.95
330.842	12.23
331.053	9.56
331.264	10.26
331.475	13.4
331.686	13.11
331.897	11.55
332.108	10.98
332.319	11.89
332.53	14.23
332.741	14.16
332.952	14.67
333.163	15.37
333.374	18.36
333.585	18.1
333.795	14.65
334.006	13.5
334.217	12.96
334.428	12.45
334.639	11.05
334.849	9.08
335.06	9.34
335.271	10.98
335.482	8.53
335.692	6.95
335.903	6.51
336.114	8.17
336.325	10.1
336.535	10.49
336.746	9.69
336.957	7.46
337.167	10.02
337.378	11.2
337.589	11.52
337.799	12.72
338.01	11.81
338.22	11.94
338.431	10.41
338.642	10.07
338.852	10.42
339.063	12.6
339.273	14.92
339.484	12.69
339.694	12.36
339.905	10.7
340.115	13.14
340.326	13.97
340.536	12.94
340.746	14.31
340.957	12.92
341.167	13.76
341.378	11.51
341.588	10.81
341.799	12.14
342.009	10.71
342.219	9.55
342.43	6.22
342.64	5.17
342.85	4.47
343.061	5.06
343.271	4.82
343.481	2.92
343.691	4.57
343.902	3.82
344.112	2.18
344.322	1.75
344.532	4.14
344.743	5.79
344.953	5.71
345.163	5.44
345.373	4.61
345.583	4.97
345.793	5.09
346.004	4.01
346.214	5.81
346.424	6.44
346.634	9.24
346.844	7.89
347.054	7.43
347.264	8.48
347.474	9.12
347.684	10.14
347.894	11.75
348.104	14.6
348.314	15.55
348.524	16.22
348.734	15.91
348.944	15.61
349.154	16.37
349.364	17.17
349.574	15.08
349.784	16.48
349.994	16.37
350.204	16.14
350.413	15.8
350.623	16.37
350.833	13.86
351.043	13.74
351.253	13.96
351.463	14.13
351.672	13.06
351.882	16.82
352.092	16.13
352.302	15.62
352.511	14.48
352.721	15.27
352.931	16.09
353.141	16.33
353.35	17.46
353.56	16.58
353.77	14.49
353.979	14.39
354.189	12
354.399	13
354.608	12.26
354.818	12.52
355.027	11.83
355.237	10.68
355.447	11.54
355.656	10.57
355.866	9.97
356.075	9.86
356.285	10.45
356.494	10.75
356.704	10.62
356.913	11.68
357.123	10.57
357.332	9.72
357.542	8.71
357.751	8.58
357.96	9.43
358.17	9.6
358.379	10.27
358.589	10.83
358.798	11
359.007	11.39
359.217	10.41
359.426	12.12
359.635	11.28
359.845	11.96
360.054	12.25
360.263	12.26
360.472	11.92
360.682	13.65
360.891	12.33
361.1	12.75
361.309	11.53
361.519	12.71
361.728	13.07
361.937	13.9
362.146	13.73
362.355	14.31
362.564	13.73
362.774	14.85
362.983	15.09
363.192	15.27
363.401	15.32
363.61	15.76
363.819	14.94
364.028	13.01
364.237	13.18
364.446	12.57
364.655	11.59
364.864	12.26
365.073	10.47
365.282	8.64
365.491	10.07
365.7	10.46
365.909	11.09
366.118	11.89
366.327	13.29
366.536	12.27
366.745	12.48
366.954	12.87
367.162	13.37
367.371	14.21
367.58	14.81
367.789	13.43
367.998	11.71
368.207	11.58
368.415	10.25
368.624	10.1
368.833	11.32
369.042	12.21
369.25	12.95
369.459	12.48
369.668	12.17
369.877	11.36
370.085	12.63
370.294	13.64
370.503	12.16
370.711	12.76
370.92	11.99
371.129	11.67
371.337	11.19
371.546	9.64
371.754	9.38
371.963	10.05
372.171	10.94
372.38	10.23
372.589	11.74
372.797	12.62
373.006	12.19
373.214	12.41
373.423	12.66
373.631	12.68
373.84	13.28
374.048	12.43
374.256	10.4
374.465	10.11
374.673	9.11
374.882	8.99
375.09	10.51
375.298	10.44
375.507	11.3
375.715	11.03
375.923	10.77
376.132	11.12
376.34	11.19
376.548	12.86
376.757	12.28
376.965	13.61
377.173	13.43
377.381	11.97
377.59	12.34
377.798	11.69
378.006	11.52
378.214	13.14
378.423	12.96
378.631	12.62
378.839	12.78
379.047	12.54
379.255	13.18
379.463	12.33
379.671	13.12
379.879	14.3
380.088	15.24
380.296	15.67
380.504	14.55
380.712	15.91
380.92	17.08
381.128	15.58
381.336	16.91
381.544	16.55
381.752	16.84
381.96	16.21
382.168	14.11
382.376	12.4
382.584	11.96
382.791	11.63
382.999	10.79
383.207	9.93
383.415	11.6
383.623	10.75
383.831	10.18
384.039	9.3
384.247	9.42
384.454	11.29
384.662	12.16
384.87	12.57
385.078	12.37
385.285	12.36
385.493	13.67
385.701	12.4
385.909	11.89
386.116	11.23
386.324	11.13
386.532	11.41
386.739	10.84
386.947	11.64
387.155	10.23
387.362	11.03
387.57	11.43
387.778	10.64
387.985	10.57
388.193	10.43
388.4	10.42
388.608	10.53
388.816	10.64
389.023	11.17
389.231	11.16
389.438	12.28
389.646	13.28
389.853	12.63
390.061	12.2
390.268	12.91
390.475	13.19
390.683	12.83
390.89	13.28
391.098	13.67
391.305	13.88
391.512	12.99
391.72	13.24
391.927	11.77
392.135	12
392.342	12.84
392.549	12.37
392.756	13.71
392.964	14.65
393.171	14.85
393.378	14.77
393.586	13.38
393.793	13.8
394	13.67
394.207	14.51
394.414	14.29
394.622	13.5
394.829	13.67
395.036	12.01
395.243	11.5
395.45	10.86
395.657	10.37
395.864	11.63
396.072	10.15
396.279	9.54
396.486	8.89
396.693	8.73
396.9	9.22
397.107	9.84
397.314	10.09
397.521	10.52
397.728	10.91
397.935	10.49
398.142	9.53
398.349	10.79
398.556	11.22
398.763	10.87
398.97	11.06
399.177	12.53
399.383	13.69
399.59	14.43
399.797	14.36
400.004	15.05
400.211	15.13
400.418	15.12
400.625	15.98
400.831	16.25
401.038	17.03
401.245	17.24
401.452	15.74
401.658	14.33
401.865	14.04
402.072	14.43
402.279	13.31
402.485	12.88
402.692	13.36
402.899	12.06
403.105	10.83
403.312	11.03
403.519	10.26
403.725	9.8
403.932	9.91
404.138	9.21
404.345	8.51
404.552	9.41
404.758	10.48
404.965	10.63
405.171	11.21
405.378	11.43
405.584	10.39
405.791	11.8
405.997	11.97
406.204	13.04
406.41	14.06
406.617	14.19
406.823	13.77
407.029	12.87
407.236	13.26
407.442	13.91
407.649	14.42
407.855	15.19
408.061	14.31
408.268	15.13
408.474	14.07
408.68	13.7
408.887	13.57
409.093	13.99
409.299	15.08
409.505	14.37
409.712	13.43
409.918	12.84
410.124	13.11
410.33	13.28
410.537	12.57
410.743	13.76
410.949	12.96
411.155	13.55
411.361	12.57
411.567	12.01
411.773	11.07
411.98	10.6
412.186	11.36
412.392	10.54
412.598	9.89
412.804	9.88
413.01	8.27
413.216	8.89
413.422	8.68
413.628	9.66
413.834	9.19
414.04	9.89
414.246	10.36
414.452	10.62
414.658	11.43
414.864	11.82
415.07	12.34
415.275	12.86
415.481	13.13
415.687	12.78
415.893	12.23
416.099	12.22
416.305	12.35
416.511	12.54
416.716	12.12
416.922	12.35
417.128	12.42
417.334	12.7
417.539	12.27
417.745	12.5
417.951	12.56
418.157	12.82
418.362	12.35
418.568	12.64
418.774	12.57
418.979	12.54
419.185	12.1
419.391	12.02
419.596	11.73
419.802	12.11
420.008	12.12
420.213	7.5
420.419	7.57
420.624	8.39
420.83	8.11
421.035	7.9
421.241	8.69
421.446	8.49
421.652	8.56
421.857	8.23
422.063	8.36
422.268	8.29
422.474	12.59
422.679	12.94
422.885	12.85
423.09	12.92
423.295	13.33
423.501	12.46
423.706	12.65
423.911	12.69
424.117	12.79
424.322	12.71
424.527	12.75
424.733	13
424.938	12.67
425.143	12.97
425.349	12.57
425.554	12.14
425.759	12.78
425.964	12.62
426.169	12.63
426.375	12.62
426.58	12.37
426.785	11.93
426.99	12.41
427.195	12.33
427.4	11.26
427.605	11.29
427.811	11.63
428.016	10.99
428.221	11.06
428.426	10.95
428.631	10.8
428.836	10.57
429.041	11
429.246	10.11
429.451	10.08
429.656	9.84
429.861	10.06
430.066	9.43
430.271	9.7
430.476	10.22
430.681	10.5
430.886	11.25
431.09	11.73
431.295	11.54
431.5	12.3
431.705	12.13
431.91	13.4
432.115	13.3
432.32	13.72
432.524	13.82
432.729	13.62
432.934	13.23
433.139	12.83
433.343	12.51
433.548	12.84
433.753	12.38
433.958	13.08
434.162	12.79
434.367	13.36
434.572	13.61
434.776	13.78
434.981	14.11
435.186	14.53
435.39	14.52
435.595	14.5
435.799	13.6
436.004	13.19
436.209	12.28
436.413	11.29
436.618	11.46
436.822	11.53
437.027	11.3
437.231	11.57
437.436	11.74
437.64	11.8
437.845	11.98
438.049	12.42
438.253	12.92
438.458	13.32
438.662	14.06
438.867	13.46
439.071	13.41
439.275	13.69
439.48	13.5
439.684	13.26
439.888	13.5
440.093	13.47
440.297	13.43
440.501	13.04
440.706	12.83
440.91	12.7
441.114	12.71
441.318	12.08
441.523	12.21
441.727	11.65
441.931	11.46
442.135	11.36
442.339	10.69
442.543	10.73
442.748	10.74
442.952	10.35
443.156	10.26
443.36	10.96
443.564	11.62
443.768	11.37
443.972	11.33
444.176	11.29
444.38	10.89
444.584	11.53
444.788	11.96
444.992	12.4
445.196	13.24
445.4	13.16
445.604	12.87
445.808	12.55
446.012	12.58
446.216	12.65
446.42	12.75
446.624	13.11
446.828	13.31
447.032	13.09
447.235	12.96
447.439	12.55
447.643	12.73
447.847	13.2
448.051	13.26
448.254	13.27
448.458	13.22
448.662	13.25
448.866	13.14
449.069	12.38
449.273	12.12
449.477	12.58
449.681	12.53
449.884	12.68
450.088	11.55
450.292	11.84
450.495	11.66
450.699	11.59
450.902	11.76
451.106	12.07
451.31	13.02
451.513	13.14
451.717	13.04
451.92	13.1
452.124	12.72
452.327	12.96
452.531	13.05
452.734	12.93
452.938	12.88
453.141	12.36
453.345	12.54
453.548	12.52
453.752	12.61
453.955	12.01
454.158	12.46
454.362	12.64
454.565	12.83
454.769	12.71
454.972	12.48
455.175	12.83
455.379	12.54
455.582	12.29
455.785	12.36
455.988	12.57
456.192	12.89
456.395	12.53
456.598	12.3
456.801	11.94
457.005	12.11
457.208	12.37
457.411	12.39
457.614	12.94
457.817	12.81
458.021	12.4
458.224	12.23
458.427	12.03
458.63	12.15
458.833	12.22
459.036	12.78
459.239	12.77
459.442	12.72
459.645	12.71
459.848	12.55
460.051	12.65
460.254	12.91
460.457	13.05
460.66	13.25
460.863	12.72
461.066	12.65
461.269	12.3
461.472	11.7
461.675	11.62
461.878	11.49
462.081	11.46
462.284	11
462.486	10.48
462.689	10.23
462.892	9.98
463.095	10.67
463.298	11.22
463.5	10.93
463.703	11.42
463.906	11.51
464.109	11.67
464.311	11.54
464.514	11.53
464.717	11.28
464.92	11.13
465.122	11.52
465.325	11.21
465.528	10.83
465.73	10.81
465.933	10.9
466.135	11.27
466.338	11.16
466.541	11.36
466.743	12.06
466.946	12.24
467.148	12.65
467.351	12.62
467.553	12.43
467.756	12.28
467.958	12.66
468.161	12.63
468.363	12.02
468.566	12.08
468.768	11.9
468.971	11.13
469.173	11.89
469.375	11.62
469.578	11.25
469.78	11.17
469.983	11.79
470.185	11.61
470.387	12.03
470.59	12.93
470.792	12.73
470.994	13.13
471.196	13.29
471.399	13.26
471.601	13.5
471.803	14.09
472.005	14.5
472.208	14.09
472.41	14.11
472.612	14.13
472.814	13.45
473.016	13.91
473.218	13.6
473.421	13.8
473.623	13.82
473.825	12.98
474.027	12.77
474.229	12.73
474.431	12.78
474.633	12.67
474.835	12.13
475.037	12.4
475.239	12.26
475.441	12.2
475.643	11.56
475.845	11.44
476.047	12.39
476.249	12.57
476.451	12.76
476.653	13.06
476.855	13.28
477.057	13.3
477.258	13.2
477.46	13.32
477.662	13.53
477.864	13.93
478.066	13.79
478.268	13.56
478.469	13.03
478.671	13.08
478.873	13.01
479.075	12.79
479.276	13.07
479.478	13.01
479.68	12.74
479.882	12.37
480.083	12.35
480.285	11.99
480.487	12.09
480.688	12.42
480.89	12.32
481.091	12.02
481.293	12.07
481.495	11.82
481.696	11.88
481.898	12.03
482.099	12.3
482.301	12.39
482.502	12.55
482.704	12.45
482.905	12.29
483.107	12.27
483.308	12.52
483.51	12.59
483.711	12.67
483.913	12.73
484.114	12.72
484.315	12.77
484.517	12.75
484.718	12.8
484.92	12.89
485.121	13.35
485.322	13.43
485.524	13.43
485.725	13.54
485.926	13.47
486.127	13.46
486.329	13.4
486.53	13.37
486.731	13.33
486.932	13.23
487.134	13.24
487.335	13.03
487.536	12.81
487.737	12.65
487.938	12.62
488.139	12.71
488.341	12.77
488.542	12.99
488.743	12.87
488.944	12.97
489.145	13.18
489.346	13.22
489.547	13.15
489.748	13.41
489.949	13.55
490.15	13.62
490.351	13.81
490.552	13.63
490.753	13.33
490.954	13.49
491.155	13.61
491.356	13.61
491.557	13.62
491.758	13.82
491.959	13.72
492.159	13.53
492.36	13.55
492.561	13.5
492.762	13.62
492.963	13.89
493.164	13.71
493.364	13.75
493.565	13.43
493.766	13.34
493.967	12.95
494.167	13.14
494.368	13.1
494.569	13.31
494.769	12.92
494.97	12.88
495.171	12.84
495.371	13.24
495.572	12.53
495.773	12.76
495.973	12.94
496.174	13.18
496.375	13.31
496.575	13.5
496.776	13.2
496.976	13.09
497.177	13.1
497.377	13.1
497.578	12.71
497.778	13.44
497.979	13.73
498.179	13.77
498.38	13.65
498.58	13.36
498.78	13.36
498.981	13.45
499.181	14.01
499.382	14.04
499.582	14
499.782	14.27
499.983	14.12
500.183	14.14
500.383	14
500.584	13.85
500.784	14.02
500.984	14.09
501.184	13.83
501.385	13.6
501.585	13.91
501.785	14.47
501.985	14.17
502.185	14.36
502.386	14
502.586	14.22
502.786	14.32
502.986	14.32
503.186	14.24
503.386	14.34
503.586	14.95
503.786	14.85
503.987	14.19
504.187	14.36
504.387	14.25
504.587	14.2
504.787	14.08
504.987	13.72
505.187	14.11
505.387	14.06
505.587	14.02
505.786	13.48
505.986	13.42
506.186	13.74
506.386	14.13
506.586	13.88
506.786	14.09
506.986	13.64
507.186	14.24
507.386	13.85
507.585	13.93
507.785	13.85
507.985	14.26
508.185	14.05
508.384	14.18
508.584	13.93
508.784	14.06
508.984	14.16
509.183	14.63
509.383	14.41
509.583	14.7
509.782	14.94
509.982	15.03
510.182	14.82
510.381	15.38
510.581	15.51
510.781	15.58
510.98	15.49
511.18	15.7
511.379	15.59
511.579	15.33
511.778	15.61
511.978	15.36
512.177	15.7
512.377	15.25
512.576	14.75
512.776	14.73
512.975	14.54
513.175	14.68
513.374	14.17
513.573	14.55
513.773	15.42
513.972	15.15
514.172	15.7
514.371	15.43
514.57	16.11
514.77	16.46
514.969	16.04
515.168	16.15
515.367	16.28
515.567	16.74
515.766	16.3
515.965	15.79
516.164	16.17
516.364	15.89
516.563	15.78
516.762	15.45
516.961	15.49
517.16	15.91
517.359	16.25
517.559	16.25
517.758	15.88
517.957	16.08
518.156	16.19
518.355	16.14
518.554	16.21
518.753	16.65
518.952	16.65
519.151	17.08
519.35	16.77
519.549	16.69
519.748	16.79
519.947	16.8
520.146	16.57
520.345	16.66
520.544	16.67
520.743	16.7
520.942	16.29
521.141	16.82
521.339	16.52
521.538	17.01
521.737	17.61
521.936	17.29
522.135	17.65
522.333	17.67
522.532	17.85
522.731	17.75
522.93	17.6
523.129	18.3
523.327	18.39
523.526	18.59
523.725	18.44
523.923	18.04
524.122	18.29
524.321	18.52
524.519	18.95
524.718	18.8
524.917	18.77
525.115	19.18
525.314	19.11
525.512	19.04
525.711	18.82
525.909	19
526.108	19.29
526.306	19.48
526.505	19.63
526.703	19.46
526.902	19.74
527.1	19.87
527.299	19.74
527.497	19.65
527.696	19.61
527.894	19.65
528.092	19.54
528.291	19.54
528.489	19.62
528.688	19.58
528.886	19.63
529.084	19.59
529.283	19.65
529.481	19.79
529.679	20.09
529.877	20.21
530.076	20.36
530.274	20.74
530.472	20.93
530.67	21.24
530.869	21.1
531.067	21.36
531.265	21.45
531.463	21.4
531.661	21.51
531.859	21.77
532.057	21.97
532.255	21.98
532.454	22.01
532.652	21.73
532.85	21.47
533.048	21.84
533.246	21.79
533.444	21.98
533.642	22.13
533.84	22.35
534.038	22.06
534.236	22.06
534.434	22.38
534.632	22.39
534.83	22.67
535.027	23.07
535.225	23.04
535.423	23.14
535.621	22.93
535.819	23.19
536.017	22.93
536.215	22.78
536.412	22.99
536.61	22.83
536.808	22.61
537.006	22.81
537.203	22.74
537.401	22.93
537.599	23.29
537.797	23.87
537.994	23.69
538.192	23.86
538.39	24.16
538.587	23.96
538.785	24.25
538.983	24.86
539.18	25.12
539.378	25.12
539.575	24.93
539.773	24.91
539.97	24.73
540.168	24.98
540.366	25.31
540.563	25.36
540.761	25.38
540.958	25.33
541.155	25.33
541.353	25.22
541.55	25.27
541.748	25.44
541.945	25.69
542.143	25.79
542.34	25.99
542.537	26.25
542.735	26.36
542.932	26.69
543.129	27.12
543.327	27.08
543.524	27.22
543.721	27.61
543.919	27.66
544.116	27.44
544.313	27.48
544.51	27.4
544.708	27.31
544.905	27.28
545.102	27.58
545.299	27.33
545.496	27.49
545.693	27.74
545.891	27.37
546.088	27.48
546.285	27.35
546.482	27.67
546.679	27.7
546.876	27.6
547.073	27.96
547.27	28.02
547.467	27.97
547.664	28.11
547.861	28.05
548.058	28.41
548.255	28.95
548.452	29.81
548.649	30.15
548.846	30.06
549.043	30.32
549.24	30.15
549.437	30.1
549.633	30.73
549.83	30.74
550.027	30.62
550.224	30.48
550.421	30.26
550.618	30.03
550.814	29.97
551.011	30.32
551.208	30.16
551.405	30.49
551.601	30.43
551.798	30.52
551.995	30.65
552.191	30.65
552.388	30.8
552.585	30.86
552.781	31.21
552.978	31
553.175	30.77
553.371	30.87
553.568	30.87
553.764	30.63
553.961	30.6
554.157	30.56
554.354	30.77
554.55	31.1
554.747	31.18
554.943	30.78
555.14	31.04
555.336	31.86
555.533	31.51
555.729	31.26
555.926	31.5
556.122	31.26
556.318	31.13
556.515	30.64
556.711	30.42
556.907	30.17
557.104	30.42
557.3	30.47
557.496	30.29
557.693	30.45
557.889	30.82
558.085	31.05
558.281	31.17
558.478	31.67
558.674	32.61
558.87	32.68
559.066	33.34
559.262	33.84
559.459	34.14
559.655	34.63
559.851	35.32
560.047	35.17
560.243	35.23
560.439	35.64
560.635	35.58
560.831	35.25
561.027	35.41
561.223	35.33
561.419	34.87
561.615	34.51
561.811	33.64
562.007	33.36
562.203	33.32
562.399	33.73
562.595	33.78
562.791	34.38
562.987	34.74
563.183	35.42
563.379	35.34
563.575	35.47
563.771	35.12
563.966	35.41
564.162	35.38
564.358	35.77
564.554	35.64
564.75	35.3
564.945	34.93
565.141	34.95
565.337	34.21
565.533	34.08
565.728	33.39
565.924	34.1
566.12	34.62
566.315	35.07
566.511	34.95
566.707	35.22
566.902	35.44
567.098	35.44
567.293	35.63
567.489	35.97
567.684	36.39
567.88	37.03
568.076	37.14
568.271	37.26
568.467	36.92
568.662	37.1
568.858	36.96
569.053	37.15
569.248	37.32
569.444	37.37
569.639	37.47
569.835	37.95
570.03	38.4
570.225	38
570.421	36.98
570.616	37.55
570.812	37.65
571.007	38.1
571.202	37.9
571.397	37.94
571.593	38.38
571.788	38.61
571.983	38.4
572.178	38.36
572.374	38.75
572.569	39.58
572.764	38.93
572.959	39
573.154	38.58
573.35	38.84
573.545	38.71
573.74	38.25
573.935	38.03
574.13	38
574.325	38.19
574.52	37.58
574.715	37.37
574.91	38
575.105	38.26
575.3	38.24
575.495	38.47
575.69	38.52
575.885	38.44
576.08	38.56
576.275	38.05
576.47	37.71
576.665	38.8
576.86	38.83
577.055	39.16
577.25	39.52
577.444	39.66
577.639	39.75
577.834	40.27
578.029	40.51
578.224	40.51
578.418	41.48
578.613	42.03
578.808	41.83
579.003	42.44
579.197	42.22
579.392	42.07
579.587	42.08
579.781	41.8
579.976	41.6
580.171	41.62
580.365	41.62
580.56	41.46
580.755	41.25
580.949	40.69
581.144	40.75
581.338	40.58
581.533	40.57
581.727	40.53
581.922	40.43
582.116	40.51
582.311	40.01
582.505	40.59
582.7	40.41
582.894	40.51
583.089	40.76
583.283	40.58
583.478	40.05
583.672	39.84
583.866	39.63
584.061	40.02
584.255	40.88
584.449	41.3
584.644	41.08
584.838	41.38
585.032	41.47
585.226	42.11
585.421	42.27
585.615	42.79
585.809	43.32
586.003	43.44
586.198	44.25
586.392	43.4
586.586	44.1
586.78	44.3
586.974	44
587.168	43.86
587.363	43.77
587.557	43.73
587.751	43.77
587.945	43.61
588.139	44.04
588.333	42.5
588.527	42.31
588.721	41.66
588.915	41.07
589.109	41.69
589.303	42.34
589.497	41.8
589.691	41.63
589.885	41.46
590.079	41.09
590.273	41.11
590.466	42.15
590.66	42.29
590.854	42.78
591.048	43.63
591.242	42.72
591.436	41.72
591.629	41.94
591.823	42.21
592.017	42.35
592.211	42.24
592.404	42.14
592.598	41.76
592.792	42.56
592.986	42.22
593.179	42.12
593.373	42.76
593.567	43.58
593.76	43.51
593.954	43.34
594.147	43.51
594.341	44.15
594.535	44.18
594.728	44.43
594.922	44.49
595.115	44.92
595.309	45.11
595.502	45.24
595.696	45.18
595.889	45.6
596.083	45.13
596.276	45.7
596.47	45.58
596.663	46.15
596.856	46.08
597.05	46.13
597.243	45.9
597.437	45.95
597.63	45.52
597.823	44.8
598.017	44.66
598.21	45.72
598.403	45.19
598.596	45.14
598.79	44.62
598.983	45.53
599.176	45
599.369	45.9
599.563	45.46
599.756	45.99
599.949	46.84
600.142	47.34
600.335	46.74
600.528	46.48
600.722	45.75
600.915	45.89
601.108	44.97
601.301	45.38
601.494	44.47
601.687	44.43
601.88	44.13
602.073	43.63
602.266	43.17
602.459	43.27
602.652	43.6
602.845	44.29
603.038	44.34
603.231	44.37
603.424	44.38
603.617	44.38
603.809	44.36
604.002	44.68
604.195	45.19
604.388	45.32
604.581	45.35
604.774	45.19
604.966	45.59
605.159	45.78
605.352	46.07
605.545	45.76
605.737	45.56
605.93	45.55
606.123	45.14
606.316	45.35
606.508	45.7
606.701	45.68
606.894	46.02
607.086	45.35
607.279	44.54
607.471	44.32
607.664	44.08
607.857	44.58
608.049	44.71
608.242	44.35
608.434	43.71
608.627	43.85
608.819	43.81
609.012	43.87
609.204	44.14
609.397	44.61
609.589	44.63
609.782	44.56
609.974	44.74
610.166	43.88
610.359	44.41
610.551	44.68
610.743	44.25
610.936	44.38
611.128	44.27
611.32	44.47
611.513	44.39
611.705	44.65
611.897	45.47
612.09	45.54
612.282	47.51
612.474	48.01
612.666	48.31
612.858	48.91
613.051	48.83
613.243	48.48
613.435	48.25
613.627	48.69
613.819	49.18
614.011	49
614.203	48.09
614.395	46.87
614.588	47.3
614.78	47.61
614.972	47.42
615.164	48.63
615.356	49.32
615.548	49
615.74	49.13
615.932	48.88
616.124	48.41
616.315	49.03
616.507	50.05
616.699	49.1
616.891	48.13
617.083	47.48
617.275	46.69
617.467	46.21
617.659	46.1
617.85	45.61
618.042	45.99
618.234	46.12
618.426	46.28
618.618	46.5
618.809	47.07
619.001	48.21
619.193	48.52
619.384	48.04
619.576	47.77
619.768	48.28
619.959	47.7
620.151	47.3
620.343	48.23
620.534	49.38
620.726	49.6
620.917	49.71
621.109	49.17
621.301	49.57
621.492	50.37
621.684	50.95
621.875	50.74
622.067	51.69
622.258	51.39
622.45	50.97
622.641	50.12
622.832	49.39
623.024	48.97
623.215	48.51
623.407	49.03
623.598	48.61
623.789	47.8
623.981	47.57
624.172	47.72
624.363	48.1
624.555	47.65
624.746	47.52
624.937	47.75
625.129	48.12
625.32	49.31
625.511	48.87
625.702	49.45
625.893	49.93
626.085	50.41
626.276	50.16
626.467	50.14
626.658	50.08
626.849	50.71
627.04	49.77
627.231	49.25
627.422	48.44
627.614	48.17
627.805	47.34
627.996	47.32
628.187	47.04
628.378	47.27
628.569	47.52
628.76	47.99
628.951	46.76
629.142	47.96
629.332	48.61
629.523	48.4
629.714	48.22
629.905	48.52
630.096	49.03
630.287	48.49
630.478	48.13
630.669	47.82
630.859	47.91
631.05	48.43
631.241	48.48
631.432	48.32
631.623	48.15
631.813	48.44
632.004	48.73
632.195	47.85
632.385	48.06
632.576	47.44
632.767	47.87
632.957	47.17
633.148	48.05
633.339	47.2
633.529	46.58
633.72	46.51
633.91	46.72
634.101	46.87
634.292	48.23
634.482	49
634.673	49.45
634.863	48.84
635.054	49.39
635.244	47.54
635.435	48.46
635.625	49.47
635.815	49.73
636.006	49.09
636.196	49.3
636.387	48.93
636.577	48.75
636.767	49.59
636.958	49.75
637.148	48.88
637.338	49.32
637.529	48.88
637.719	48.87
637.909	49.18
638.099	49.6
638.29	49.23
638.48	48.51
638.67	48.88
638.86	48.12
639.05	48.23
639.241	50.03
639.431	50.98
639.621	49.94
639.811	49.31
640.001	49.47
640.191	49.7
640.381	49.73
640.571	50.21
640.761	50.21
640.951	50.14
641.141	50.24
641.331	49.05
641.521	48.49
641.711	49.43
641.901	49.44
642.091	50.05
642.281	49.5
642.471	49.66
642.661	50.19
642.851	49.87
643.041	50.67
643.231	50.54
643.42	52.08
643.61	52.91
643.8	52.25
643.99	53.3
644.18	52.6
644.369	52.69
644.559	52.07
644.749	51.11
644.939	51.31
645.128	51.07
645.318	51.46
645.508	51.24
645.697	52.03
645.887	52.28
646.076	51.87
646.266	52.27
646.456	53.71
646.645	53.9
646.835	55.16
647.024	54.81
647.214	54.57
647.403	54.33
647.593	54.4
647.782	53.23
647.972	53.95
648.161	53.97
648.351	52.96
648.54	52.63
648.73	52.54
648.919	51.25
649.108	51.2
649.298	51.42
649.487	51
649.677	50.52
649.866	50.56
650.055	50.27
650.244	49.72
650.434	51.05
650.623	50.43
650.812	51
651.002	51.23
651.191	51.18
651.38	51.22
651.569	51.93
651.758	51.55
651.947	51.71
652.137	51.21
652.326	51.87
652.515	51.21
652.704	49.95
652.893	49.17
653.082	49.06
653.271	49.58
653.46	49.55
653.649	49.39
653.838	49.74
654.027	48.81
654.216	50.21
654.405	49.99
654.594	50.29
654.783	51.44
654.972	51.88
655.161	52.89
655.35	52.71
655.539	52.94
655.728	53.51
655.916	52.9
656.105	53.41
656.294	53.11
656.483	52.61
656.672	53.24
656.86	53.16
657.049	53.09
657.238	52.41
657.427	51.96
657.615	51.91
657.804	50.86
657.993	50.75
658.181	50.66
658.37	50.33
658.559	50.36
658.747	50.21
658.936	49.1
659.125	48.79
659.313	48.86
659.502	48.64
659.69	48.75
659.879	49.83
660.067	50.21
660.256	51.09
660.444	51.54
660.633	51.95
660.821	51.65
661.01	53.45
661.198	53.75
661.387	53.53
661.575	54.38
661.763	54.85
661.952	54.22
662.14	54.57
662.328	53.57
662.517	53.96
662.705	53.59
662.893	53.51
663.082	53.68
663.27	54.18
663.458	53.89
663.646	53.65
663.834	53.23
664.023	53.26
664.211	54.02
664.399	54.21
664.587	54.14
664.775	56.35
664.963	55.73
665.152	54.45
665.34	54.91
665.528	55.41
665.716	56.04
665.904	56.3
666.092	56.02
666.28	54.53
666.468	54.2
666.656	53.55
666.844	51.83
667.032	53.55
667.22	53.41
667.408	52.53
667.596	52.65
667.784	52.09
667.971	52.2
668.159	51.22
668.347	51.9
668.535	51.23
668.723	50.52
668.911	50.91
669.098	50.13
669.286	51.54
669.474	52.02
669.662	51.72
669.849	51.48
670.037	50.89
670.225	52.67
670.413	53.02
670.6	54.42
670.788	55.05
670.976	54.44
671.163	55.74
671.351	55.51
671.538	56.03
671.726	56.71
671.913	57.08
672.101	56.2
672.289	56.12
672.476	54.96
672.664	54.66
672.851	54.46
673.039	54.51
673.226	53.48
673.413	53.68
673.601	53.07
673.788	54.13
673.976	53.43
674.163	54.27
674.35	54.06
674.538	53.88
674.725	54.78
674.912	55.88
675.1	56.68
675.287	56.84
675.474	56.8
675.662	55.66
675.849	54.49
676.036	54.84
676.223	55.42
676.411	55.37
676.598	55.24
676.785	55.19
676.972	53.55
677.159	53.74
677.346	53.3
677.533	52.82
677.721	54.73
677.908	55.38
678.095	55.24
678.282	54.26
678.469	53.16
678.656	53.36
678.843	52.69
679.03	54.06
679.217	53.44
679.404	53.86
679.591	54.26
679.778	53.1
679.964	53.1
680.151	53.74
680.338	54.02
680.525	55.46
680.712	56.13
680.899	56.23
681.086	55.62
681.272	56.14
681.459	55.3
681.646	55.62
681.833	55.8
682.02	54.61
682.206	54.48
682.393	55.65
682.58	55.4
682.766	54.95
682.953	55.55
683.14	55.64
683.326	56.08
683.513	55.43
683.7	54.72
683.886	55.55
684.073	55.15
684.259	55.34
684.446	54.21
684.632	53.21
684.819	54.37
685.005	54.25
685.192	54.12
685.378	51.97
685.565	53.16
685.751	53.15
685.938	53.09
686.124	53.63
686.31	52.98
686.497	54.83
686.683	55.13
686.87	54.68
687.056	54.27
687.242	54.94
687.429	55.86
687.615	56.23
687.801	56.42
687.987	55.54
688.174	55.08
688.36	56.04
688.546	53.85
688.732	53.14
688.918	53.15
689.105	52.58
689.291	52.1
689.477	52.7
689.663	51
689.849	51.84
690.035	53.24
690.221	53.87
690.407	53.58
690.593	55.07
690.779	55.51
690.965	55.93
691.151	54.65
691.337	54.81
691.523	55.65
691.709	58.17
691.895	56.48
692.081	54.77
692.267	55.16
692.453	55.13
692.639	54.59
692.825	54.57
693.011	55.04
693.196	57.42
693.382	56.64
693.568	55.62
693.754	55.85
693.94	56.37
694.125	55.78
694.311	55.63
694.497	56.06
694.682	55.72
694.868	57.16
695.054	56.54
695.239	55.52
695.425	56.1
695.611	57.01
695.796	55.89
695.982	55
696.168	56.06
696.353	55.83
696.539	55.63
696.724	55.16
696.91	54.66
697.095	54.12
697.281	54.93
697.466	55.06
697.652	53.29
697.837	51.99
698.023	51.72
698.208	51.44
698.393	49.74
698.579	49.42
698.764	49.1
698.949	48.67
699.135	49.62
699.32	49.94
699.505	50.75
699.691	51.45
699.876	52.07
700.061	54.17
700.246	54.21
700.432	56.57
700.617	57.08
700.802	57
700.987	58.05
701.172	56.29
701.358	56.03
701.543	55.84
701.728	55.77
701.913	57.82
702.098	58.46
702.283	57.97
702.468	58.52
702.653	58.01
702.838	58.74
703.023	56.94
703.208	58.68
703.393	59.75
703.578	57.85
703.763	60.44
703.948	60.18
704.133	59.71
704.318	61.64
704.503	61.17
704.688	63.26
704.873	63.4
705.057	64.2
705.242	62.53
705.427	61.29
705.612	62.36
705.797	60.53
705.981	57.98
706.166	55.7
706.351	56.29
706.536	55.91
706.72	53.78
706.905	53.72
707.09	52.67
707.274	54.55
707.459	53.04
707.644	53.22
707.828	53.14
708.013	54.03
708.197	55.77
708.382	56.07
708.567	56.02
708.751	56.53
708.936	57.59
709.12	59.42
709.305	57.97
709.489	58.58
709.673	58.02
709.858	58.3
710.042	57.17
710.227	56.67
710.411	53.27
710.596	55.81
710.78	55.07
710.964	52.71
711.149	50.98
711.333	51.28
711.517	52.33
711.702	51.58
711.886	51.47
712.07	53.1
712.254	53.64
712.438	57.04
712.623	54.22
712.807	54.68
712.991	57.71
713.175	58
713.359	57.34
713.544	56.83
713.728	57.79
713.912	56.03
714.096	55.91
714.28	54.85
714.464	51.92
714.648	52.35
714.832	52.83
715.016	52.54
715.2	55.08
715.384	55.52
715.568	54.91
715.752	55.23
715.936	57.79
716.12	57.51
716.304	58.04
716.488	60.94
716.671	60.61
716.855	59.78
717.039	58.55
717.223	57.77
717.407	58.32
717.59	60.5
717.774	58.8
717.958	58.85
718.142	58.98
718.325	59.95
718.509	58.38
718.693	60.1
718.877	58.3
719.06	58.42
719.244	58.23
719.428	57.26
719.611	54.75
719.795	57.18
719.978	56.32
720.162	57.23
720.345	56.49
720.529	56.72
720.713	55.63
720.896	58.94
721.08	60.96
721.263	60.7
721.446	61.72
721.63	63.44
721.813	63.16
721.997	61.5
722.18	60.71
722.364	62.97
722.547	61.46
722.73	61.88
722.914	63.06
723.097	61.18
723.28	60.5
723.464	59.67
723.647	57.99
723.83	58.58
724.013	57.17
724.197	57.22
724.38	55.49
724.563	58.52
724.746	56.85
724.929	54.46
725.112	53.35
725.296	53.89
725.479	56.12
725.662	58
725.845	54.41
726.028	57.14
726.211	58.52
726.394	57.3
726.577	56.24
726.76	58.36
726.943	58.99
727.126	61.49
727.309	61.7
727.492	60.4
727.675	58.45
727.858	59.8
728.041	58.05
728.224	58.78
728.407	58.64
728.589	60.66
728.772	57.08
728.955	56.96
729.138	55.41
729.321	55.12
729.503	53.57
729.686	54.35
729.869	53.76
730.052	55.04
730.234	50.95
730.417	52.17
730.6	49.1
730.782	51.49
730.965	50.8
731.148	50.42
731.33	51.31
731.513	53
731.695	53.4
731.878	53.17
732.061	52.14
732.243	53.71
732.426	53.44
732.608	53.79
732.791	54.47
732.973	54.71
733.156	56.75
733.338	56.23
733.52	55.62
733.703	55.53
733.885	58.81
734.068	60.35
734.25	60.45
734.432	61.58
734.615	60.8
734.797	61.73
734.979	63.59
735.162	63.6
735.344	61.85
735.526	60.53
735.708	61.43
735.891	61.75
736.073	61.66
736.255	62.97
736.437	62.33
736.619	61.42
736.802	61.18
736.984	60.74
737.166	60.37
737.348	60.79
737.53	61.65
737.712	60.07
737.894	56.9
738.076	56.08
738.258	54.37
738.44	53.56
738.622	53.92
738.804	53.34
738.986	51.46
739.168	52.52
739.35	52.26
739.532	54.17
739.714	57.52
739.896	59.94
740.078	63.94
740.259	67.58
740.441	65.58
740.623	65.81
740.805	62.9
740.987	63.84
741.168	62.43
741.35	66.28
741.532	65.72
741.714	62.73
741.895	61.79
742.077	57.71
742.259	55.83
742.44	58.98
742.622	60.88
742.804	64.08
742.985	62.5
743.167	64.47
743.348	62.62
743.53	62
743.711	63.53
743.893	64.49
744.075	62.53
744.256	60.75
744.438	61.6
744.619	59.12
744.8	58.51
744.982	62.21
745.163	60.07
745.345	57.85
745.526	61.46
745.707	58.12
745.889	53.57
746.07	55.93
746.252	53.06
746.433	50.4
746.614	53.73
746.795	55.71
746.977	55.26
747.158	55.42
747.339	55.59
747.52	50.93
747.702	54.49
747.883	57.33
748.064	54.9
748.245	58.47
748.426	59.06
748.607	57.85
748.788	56.75
748.97	54.26
749.151	58.36
749.332	56.35
749.513	56.84
749.694	55.46
749.875	48.58
750.056	48.93
750.237	50.1
750.418	50.33
750.599	50.92
750.78	50.27
750.96	51.56
751.141	47.49
751.322	52.03
751.503	51.29
751.684	51.81
751.865	56.07
752.046	57.72
752.226	57.35
752.407	58.84
752.588	57.97
752.769	58.97
752.949	58.27
753.13	56.74
753.311	57.71
753.492	61.68
753.672	64.08
753.853	65.51
754.034	65.33
754.214	63.94
754.395	62.47
754.575	65.24
754.756	64.8
754.937	65.72
755.117	67.71
755.298	65.5
755.478	61.28
755.659	59.21
755.839	57.61
756.02	57.07
756.2	58.5
756.381	57.89
756.561	53.97
756.741	51.71
756.922	53.06
757.102	51.65
757.283	50.68
757.463	52.42
757.643	50.16
757.823	50.83
758.004	55.11
758.184	55.72
758.364	54.91
758.545	56.98
758.725	58.39
758.905	58.27
759.085	56.36
759.265	57.99
759.446	57.78
759.626	57.1
759.806	59
759.986	55.57
760.166	53.36
760.346	52.32
760.526	53.85
760.706	52.6
760.886	54.8
761.066	58.31
761.246	57.89
761.426	57.24
761.606	60.31
761.786	58.83
761.966	59.91
762.146	59.97
762.326	61.9
762.506	61.52
762.686	61.59
762.866	59.84
763.046	58.2
763.225	57.47
763.405	57.36
763.585	54.89
763.765	54.54
763.945	54.9
764.124	54.96
764.304	55.02
764.484	55.08
764.664	57.01
764.843	57.08
765.023	60
765.203	60.16
765.382	58.42
765.562	62.51
765.741	65.84
765.921	64.82
766.101	66.49
766.28	67.42
766.46	66.8
766.639	64.63
766.819	64.49
766.998	61.37
767.178	61.83
767.357	65.35
767.537	64.59
767.716	59.1
767.896	60.66
768.075	59.8
768.254	58.11
768.434	56.84
768.613	54.95
768.792	55.45
768.972	53.28
769.151	49.23
769.33	47.78
769.51	44.73
769.689	44.97
769.868	40.95
770.047	42.82
770.226	44.42
770.406	44.9
770.585	53.88
770.764	56.25
770.943	62.39
771.122	64.96
771.301	63.82
771.48	67.17
771.66	68.05
771.839	72.4
772.018	67.75
772.197	64.65
772.376	67.21
772.555	65.09
772.734	66.28
772.913	69.22
773.092	74.62
773.271	80.8
773.449	80.23
773.628	75.63
773.807	74.52
773.986	78.33
774.165	78.62
774.344	75.74
774.523	77.29
774.701	76.13
774.88	71.79
775.059	65.34
775.238	63.24
775.417	62.05
775.595	64.97
775.774	66.9
775.953	62.37
776.131	60.23
776.31	56.96
776.489	55.91
776.667	54.15
776.846	52.89
777.025	58.12
777.203	57.89
777.382	58.78
777.56	64
777.739	64.14
777.917	69.13
778.096	74.14
778.274	76.1
778.453	71.95
778.631	71.42
778.81	70.39
778.988	70.66
779.166	66.74
779.345	66.21
779.523	62.4
779.702	62.31
779.88	62.34
780.058	62.85
780.237	63.89
780.415	67.6
780.593	63
780.771	63.58
780.95	62.74
781.128	65.95
781.306	59.44
781.484	63.69
781.662	59.32
781.841	55.24
782.019	54.44
782.197	53.38
782.375	51.89
782.553	58.79
782.731	56.82
782.909	62.85
783.087	61.36
783.265	72.66
783.443	71.86
783.621	78.45
783.799	74.32
783.977	73.47
784.155	75.68
784.333	78.88
784.511	77.6
784.689	80.24
784.867	72.45
785.045	74.71
785.223	69.44
785.4	67.32
785.578	61.11
785.756	71.35
785.934	67.78
786.112	70.05
786.289	68.22
786.467	66.72
786.645	66.8
786.823	70.2
787	67.44
787.178	69.55
787.356	67.6
787.533	71.87
787.711	65.06
787.889	69.23
788.066	66.8
788.244	66.65
788.421	64.64
788.599	65.7
788.776	62.36
788.954	66.53
789.131	69.26
789.309	72.17
789.486	61.66
789.664	61.22
789.841	57.79
790.019	55.37
790.196	54.35
790.373	54.14
790.551	52.26
790.728	52.13
790.906	44.18
791.083	34.69
791.26	31.46
791.437	41.53
791.615	45.76
791.792	44.4
791.969	47.11
792.146	46.27
792.324	50.47
792.501	49.6
792.678	55.22
792.855	58.43
793.032	63.31
793.209	60.77
793.387	56.13
793.564	56
793.741	62.67
793.918	60.05
794.095	59.71
794.272	66.15
794.449	69.73
794.626	58.13
794.803	60.71
794.98	61.6
795.157	66.57
795.334	68.59
795.511	68.47
795.688	68.56
795.864	66.89
796.041	67.3
796.218	65.84
796.395	67.98
796.572	72.46
796.749	71.3
796.925	65.75
797.102	67.2
797.279	69.42
797.456	67.76
797.632	67.15
797.809	65.79
797.986	62.47
798.162	62.03
798.339	61
798.516	59.92
798.692	62.31
798.869	64.19
799.046	64.85
799.222	64.46
799.399	65.43
799.575	58.26
799.752	63.59
799.928	66.38
800.105	60.26
800.281	63.02
800.458	70.34
800.634	66.53
800.811	62.87
800.987	61.86
801.163	61.67
801.34	62.78
801.516	69.16
801.692	65.77
801.869	63.39
802.045	68.38
802.221	64.75
802.398	60.18
802.574	64.47
802.75	69.5
802.926	69.58
803.103	68.4
803.279	66.86
803.455	62.03
803.631	68.01
803.807	69.72
803.983	68.6
804.16	64.61
804.336	64.33
804.512	60.06
804.688	60.05
804.864	55.37
805.04	52.14
805.216	49.81
805.392	50.86
805.568	45.93
805.744	46.74
805.92	47.69
806.096	46.05
806.272	52.67
806.448	53.03
806.623	55.37
806.799	60.72
806.975	72.58
807.151	70.31
807.327	86.33
807.503	81.17
807.678	86.65
807.854	89.46
808.03	89.28
808.206	79.58
808.381	75.5
808.557	68.06
808.733	65.43
808.908	62.93
809.084	62.18
809.26	61
809.435	60.25
809.611	52.73
809.787	48.2
809.962	52.83
810.138	49.62
810.313	48.83
810.489	55.6
810.664	55.68
810.84	55.83
811.015	56.53
811.191	54.1
811.366	54.12
811.542	54.45
811.717	52.84
811.892	49.35
812.068	49.04
812.243	52.93
812.419	51.7
812.594	50.93
812.769	49.77
812.944	49.4
813.12	51.28
813.295	52.62
813.47	64.51
813.645	69.3
813.821	70.52
813.996	69.59
814.171	67.3
814.346	62.82
814.521	63.67
814.697	63.2
814.872	71.03
815.047	64.17
815.222	61.82
815.397	49.4
815.572	43.14
815.747	45.69
815.922	51.15
816.097	48.63
816.272	47.77
816.447	47.43
816.622	43
816.797	36.68
816.972	39.02
817.147	33.06
817.322	34.1
817.496	40.61
817.671	31.8
817.846	23.79
818.021	26.63
818.196	28.51
818.371	27.9
818.545	23.46
818.72	25.9
818.895	21.46
819.069	29.09
819.244	36.83
819.419	38.43
819.594	41.33
819.768	46.18
819.943	43.25
820.117	42.7
820.292	41.48
820.467	42.72
820.641	41.67
820.816	43.5
820.99	41.31
821.165	41.74
821.339	40.89
821.514	41.18
821.688	41.36
821.863	39.91
822.037	40.82
822.212	41.44
822.386	42.94
822.56	43.21
822.735	42.54
822.909	42.84
823.084	41.46
823.258	41.73
823.432	42.53
823.606	42.9
823.781	45.74
823.955	44.31
824.129	42.33
824.303	40.45
824.478	39.9
824.652	40.74
824.826	40.63
825	41.96
825.174	41.83
825.348	40.84
825.523	38.94
825.697	36.77
825.871	38.24
826.045	41.16
826.219	43.04
826.393	43.75
826.567	41.75
826.741	42.14
826.915	40.88
827.089	40.15
827.263	39.93
827.437	39.03
827.611	38.58
827.784	38.73
827.958	38.76
828.132	38.6
828.306	37.14
828.48	39.56
828.654	41.51
828.827	45.18
829.001	44.54
829.175	44.99
829.349	49.77
829.522	46.52
829.696	44.67
829.87	43.82
830.044	40.45
830.217	43.45
830.391	44.75
830.565	39.92
830.738	36.06
830.912	38.28
831.085	41.39
831.259	42.29
831.432	52.4
831.606	56.55
831.779	55.97
831.953	56.47
832.126	55.63
832.3	59.68
832.473	59.35
832.647	57.43
832.82	59.1
832.994	55.56
833.167	55.54
833.34	52.73
833.514	49.49
833.687	50.24
833.86	52.3
834.034	51.3
834.207	48.78
834.38	47.97
834.553	49.4
834.727	50.17
834.9	51.42
835.073	50.35
835.246	52.04
835.419	51.34
835.593	50.36
835.766	47.86
835.939	49.52
836.112	48.87
836.285	48.19
836.458	48.96
836.631	47.38
836.804	42.19
836.977	39.28
837.15	44.43
837.323	52.51
837.496	52.91
837.669	47.4
837.842	47.83
838.015	49.22
838.188	58.03
838.361	53.18
838.533	51.46
838.706	63.62
838.879	66.7
839.052	57.94
839.225	52.37
839.398	53.14
839.57	54.4
839.743	51.08
839.916	54.7
840.088	52.59
840.261	58.4
840.434	62.68
840.607	64
840.779	61.6
840.952	64.14
841.124	68.81
841.297	72.92
841.47	73.04
841.642	77.55
841.815	78.44
841.987	79.4
842.16	67.43
842.332	53.99
842.505	55.53
842.677	56.06
842.85	60.53
843.022	56.14
843.194	43.73
843.367	46.38
843.539	52.59
843.712	52.21
843.884	47.14
844.056	50.26
844.229	57.4
844.401	46.66
844.573	46.44
844.745	46.58
844.918	37.66
845.09	39.25
845.262	49.08
845.434	45.19
845.606	50.84
845.779	63.81
845.951	80.04
846.123	73.81
846.295	92.57
846.467	82.95
846.639	82.03
846.811	95.61
846.983	128.51
847.155	216.35
847.327	119.81
847.499	135.94
847.671	112.65
847.843	66.17
848.015	77.33
848.187	54.96
848.359	67.71
848.531	73.84
848.703	83.15
848.875	56.23
849.047	49.17
849.218	53.82
849.39	56.67
849.562	47.26
849.734	50.76
849.905	81.48
850.077	71.85
850.249	80.5
850.421	94.52
850.592	84.66
850.764	101.06
850.936	99.52
851.107	93.68
851.279	104.39
851.451	85.31
851.622	59.91
851.794	46.24
851.965	48.82
852.137	45.91
852.308	33.87
852.48	37.49
852.651	30.8
852.823	14.94
852.994	11.46
853.166	0.67
853.337	12.61
853.509	13.83
853.68	-9.39
853.851	-23.51
854.023	-27.38
854.194	-46.63
854.365	-48.81
854.537	-73.65
854.708	-20.13
854.879	-3.41
855.05	0.24
855.222	-39.22
855.393	-14.78
855.564	5.55
855.735	-13.69
855.906	-10.22
856.078	-10.25
856.249	14.32
856.42	32.69
856.591	20.02
856.762	32.67
856.933	35.87
857.104	55.77
857.275	66.54
857.446	73.86
857.617	88.35
857.788	96.37
857.959	101.08
858.13	84.87
858.301	80.84
858.472	96.58
858.643	96.17
858.814	84.44
858.985	81.35
859.155	69.68
859.326	65.43
859.497	54.05
859.668	46.54
859.839	54.64
860.009	51.01
860.18	41.43
860.351	30.99
860.522	52.88
860.692	50.75
860.863	62.24
861.034	68.4
861.204	48.19
861.375	52.02
861.546	46.05
861.716	34.4
861.887	38.95
862.057	36.17
862.228	38.53
862.398	30.62
862.569	-16.67
862.739	-49.17
862.91	-59.79
863.08	-4.7
863.251	-3.06
863.421	13.4
863.592	28.09
863.762	71.58
863.932	68.38
864.103	68.79
864.273	61.63
864.443	60.61
864.614	52.24
864.784	75.08
864.954	99.26
865.125	101.52
865.295	82.97
865.465	87.52
865.635	79.8
865.805	69.56
865.976	68.68
866.146	55.64
866.316	142.59
866.486	1514.14
866.656	-224.01
866.826	-0.93
866.996	44.13
867.166	14.85
867.336	11.76
867.506	-113.18
867.676	394.78
867.846	100.98
868.016	52.26
868.186	34.24
868.356	18.51
868.526	23.78
868.696	13.5
868.866	20.62
869.036	0.06
869.206	-7.6
869.376	-19.8
869.545	5.13
869.715	-1.38
869.885	19.97
870.055	28.25
870.224	29.58
870.394	40.44
870.564	82.91
870.734	108.64
870.903	133.27
871.073	140.54
871.243	115.58
871.412	141.42
871.582	130
871.751	133.48
871.921	116.35
872.091	117.59
872.26	137.01
872.43	104.43
872.599	93.07
872.769	52.68
872.938	63.62
873.108	101.41
873.277	99.48
873.446	75.65
873.616	58.64
873.785	21.46
873.955	26.03
874.124	28.2
874.293	50.22
874.463	33.93
874.632	67.12
874.801	50.41
874.971	26.21
875.14	3.43
875.309	29.89
875.478	66.14
875.647	52.24
875.817	77.46
875.986	54.07
876.155	62.21
876.324	83.83
876.493	74.76
876.662	76.77
876.831	93.39
877	102.49
877.17	186.72
877.339	18.21
877.508	260.39
877.677	-653.28
877.846	99.41
878.015	38.65
878.184	39.62
878.352	53.95
878.521	34.27
878.69	25.36
878.859	41.84
879.028	41.45
879.197	44.53
879.366	23.81
879.534	34.56
879.703	32.48
879.872	35.3
880.041	36.13
880.21	33.79
880.378	35.42
880.547	35.02
880.716	31.36
880.884	35.94
881.053	36.61
881.222	39.83
881.39	36.84
881.559	36.66
881.727	38.5
881.896	38.05
882.065	39.89
882.233	42.34
882.402	44.76
882.57	43.45
882.739	46.17
882.907	44.24
883.076	43.97
883.244	43.84
883.412	43.36
883.581	40.85
883.749	41.86
883.918	39.73
884.086	35.1
884.254	30.96
884.423	37.04
884.591	29.63
884.759	33.75
884.927	37.85
885.096	42.75
885.264	40.78
885.432	42.97
885.6	53.41
885.769	45.34
885.937	49.76
886.105	45.7
886.273	34.25
886.441	41.32
886.609	34.48
886.777	27.22
886.945	4.42
887.113	19.92
887.281	16.73
887.449	-18.75
887.617	-18.01
887.785	-5.33
887.953	7.87
888.121	-7.44
888.289	-17.46
888.457	-32.8
888.625	-31.47
888.793	-18.03
888.961	-14.18
889.129	-2.06
889.296	-4.97
889.464	5.3
889.632	-3.65
889.8	-38.21
889.967	-12.04
890.135	-3.49
