Data from JASIL_3019_Reflection_01.txt Node
Date: Mon Nov 09 10:43:07 EST 2015
User: Geneva
Spectrometer: USB4E03002
Autoset integration time: false
Trigger mode: 4
Integration Time (sec): 1.000000E-1
Scans to average: 10
Electric dark correction enabled: false
Nonlinearity correction enabled: false
Boxcar width: 5
Stray light correction enabled: false
XAxis mode: Wavelengths
Stop averaging: false
Number of Pixels in Spectrum: 3648
>>>>>Begin Spectral Data<<<<<
177.575	72.3
177.794	36.81
178.014	25.95
178.233	26.62
178.452	-27.05
178.672	-261.4
178.891	-730.43
179.11	639.02
179.33	2890.91
179.549	184.62
179.768	181.12
179.987	501.39
180.207	-360
180.426	-165.67
180.645	-18.34
180.864	35.01
181.084	61.24
181.303	72.22
181.522	57.18
181.741	66.67
181.96	14.89
182.179	109.25
182.398	100.93
182.618	100
182.837	112.14
183.056	91.58
183.275	20
183.494	-78.89
183.713	-462.5
183.932	-85.11
184.151	-424.24
184.37	-25.13
184.589	-1955.56
184.808	205.56
185.027	137.27
185.246	164.31
185.465	91.42
185.684	142.2
185.903	42.75
186.122	43.97
186.341	32.76
186.56	46.19
186.779	28.57
186.998	38.46
187.216	62.4
187.435	54.17
187.654	24.57
187.873	20.57
188.092	34.64
188.311	-12.03
188.53	-14.36
188.748	-53.26
188.967	-208.84
189.186	401.08
189.405	183.15
189.623	333.64
189.842	555.56
190.061	-2480
190.28	-117.02
190.498	-123.81
190.717	-51.43
190.936	-96.55
191.154	-34.18
191.373	41.71
191.592	-6.99
191.81	-56.77
192.029	-87.3
192.248	-147.62
192.466	-66.81
192.685	-44.33
192.904	-917.39
193.122	202.9
193.341	-2200
193.559	1100
193.778	153.41
193.996	80.36
194.215	-34.04
194.433	-124.77
194.652	-175.32
194.87	34.58
195.089	62.39
195.307	133.33
195.526	153.09
195.744	117.07
195.963	151.47
196.181	-423.4
196.399	-119.28
196.618	-39.42
196.836	-45.66
197.055	-68.22
197.273	-27.18
197.491	9.5
197.71	18.87
197.928	-1.52
198.146	-13.47
198.365	-106.1
198.583	-2611.11
198.801	142.92
199.019	120.85
199.238	89.55
199.456	110.2
199.674	98.28
199.892	147.22
200.111	91
200.329	-348.21
200.547	2241.67
200.765	-449.35
200.983	196.69
201.202	251.19
201.42	151.34
201.638	98.07
201.856	175.56
202.074	69.7
202.292	233.33
202.51	112.5
202.728	-1050
202.946	135.61
203.165	-842.11
203.383	238.46
203.601	1150
203.819	-239.53
204.037	-93.75
204.255	-16
204.473	48.87
204.691	-124.51
204.909	876.19
205.127	-772.73
205.345	-680.39
205.562	288.89
205.78	40
205.998	298.55
206.216	237.74
206.434	77.53
206.652	785.71
206.87	177.97
207.088	104.24
207.306	40.76
207.523	30.3
207.741	-157.14
207.959	14.86
208.177	99.34
208.395	144.59
208.612	178.62
208.83	163.91
209.048	182.89
209.266	279.41
209.483	378.69
209.701	-1279.31
209.919	8700
210.136	558.18
210.354	3441.67
210.572	-670.21
210.79	-1425
211.007	316.06
211.225	210.53
211.442	357.89
211.66	-42.62
211.878	72.37
212.095	303.77
212.313	766.67
212.53	156.56
212.748	185.31
212.966	790.24
213.183	12450
213.401	158.85
213.618	134.3
213.836	150.6
214.053	200.94
214.271	114.77
214.488	69.29
214.705	-0
214.923	-55.38
215.14	-241.73
215.358	-106.15
215.575	32.62
215.793	-30.3
216.01	-333.33
216.227	-405.56
216.445	220.85
216.662	414.29
216.879	156.98
217.097	84.98
217.314	79.84
217.531	-84.48
217.749	75.81
217.966	78.46
218.183	58.35
218.4	73.33
218.618	113.26
218.835	96.42
219.052	109.21
219.269	116.45
219.487	108.6
219.704	134.53
219.921	158.28
220.138	193.21
220.355	160.91
220.572	4600
220.79	-60.19
221.007	16.18
221.224	137.5
221.441	191.95
221.658	-36.49
221.875	-18.66
222.092	-0.49
222.309	26.5
222.526	15.56
222.743	10.92
222.96	6.99
223.177	22.34
223.394	27.83
223.611	43.12
223.828	54.01
224.045	64.98
224.262	62.36
224.479	59.53
224.696	37.5
224.913	39.1
225.13	50.09
225.347	52.57
225.564	53.55
225.781	54.71
225.997	61.74
226.214	50.93
226.431	39.58
226.648	32.91
226.865	30.03
227.082	29.12
227.298	30.41
227.515	21.44
227.732	24.81
227.949	19.69
228.165	21.55
228.382	14.11
228.599	14.78
228.816	17.59
229.032	13.26
229.249	6.7
229.466	14.93
229.682	7.48
229.899	17.17
230.116	14.89
230.332	21.18
230.549	8.27
230.765	10.85
230.982	21.55
231.199	20.16
231.415	18.75
231.632	30.33
231.848	19.56
232.065	25.37
232.281	13.54
232.498	10.9
232.714	9.87
232.931	12.54
233.147	8.06
233.364	0.18
233.58	-11.74
233.797	-11.36
234.013	-14.96
234.23	-15.35
234.446	-19.48
234.662	-11.65
234.879	-10.74
235.095	-2.17
235.312	-1.09
235.528	-7.12
235.744	-10.78
235.961	-10.78
236.177	-3.86
236.393	2.68
236.61	-1.58
236.826	-7.33
237.042	4.73
237.258	8.35
237.475	7.05
237.691	12.64
237.907	19.62
238.123	31.62
238.339	35.59
238.556	36.67
238.772	36.23
238.988	32.72
239.204	36.35
239.42	31.35
239.636	27.71
239.853	26.67
240.069	21.18
240.285	15.54
240.501	13.71
240.717	13.76
240.933	12.61
241.149	13.61
241.365	12.89
241.581	14.46
241.797	16.28
242.013	16.41
242.229	13.12
242.445	13.9
242.661	18.18
242.877	18.1
243.093	13.8
243.309	11.28
243.525	7.51
243.741	16.16
243.957	13.97
244.173	12.65
244.388	15.39
244.604	17.75
244.82	16.8
245.036	18.09
245.252	17.67
245.468	17.37
245.683	15.39
245.899	14.49
246.115	12.77
246.331	13.52
246.547	13.28
246.762	11.22
246.978	9.02
247.194	9.79
247.409	7.08
247.625	3.75
247.841	4.11
248.057	6.58
248.272	6.79
248.488	6.77
248.703	9.32
248.919	4.49
249.135	6.85
249.35	9.62
249.566	10.45
249.782	10.16
249.997	13.1
250.213	11.94
250.428	15.23
250.644	16.44
250.859	10.78
251.075	8.08
251.29	10.93
251.506	10.95
251.721	11.36
251.937	10.2
252.152	13.06
252.368	12.3
252.583	13.07
252.798	15.2
253.014	13.38
253.229	19.63
253.445	10.11
253.66	10.2
253.875	5.44
254.091	2.68
254.306	3.78
254.521	4.53
254.737	-0.04
254.952	4.55
255.167	-2.73
255.383	-3.49
255.598	-2.09
255.813	3.3
256.028	-1.39
256.244	4.48
256.459	2.07
256.674	1.83
256.889	-0.54
257.104	4.18
257.32	1.59
257.535	-1.2
257.75	2.11
257.965	2.67
258.18	4.12
258.395	6.05
258.61	4.27
258.826	6.82
259.041	5.96
259.256	5.73
259.471	4.99
259.686	6.78
259.901	8.97
260.116	7.5
260.331	8
260.546	8.08
260.761	7.98
260.976	9.42
261.191	7.25
261.406	6.64
261.621	10.9
261.836	13.43
262.05	10.15
262.265	6.16
262.48	6.78
262.695	5.47
262.91	6.7
263.125	4.92
263.34	4.25
263.555	3.52
263.769	6.98
263.984	9.16
264.199	9.48
264.414	8.82
264.629	11.89
264.843	11.94
265.058	10.65
265.273	8.77
265.488	8.8
265.702	8.3
265.917	8.45
266.132	8.97
266.346	6.65
266.561	6.23
266.776	6.88
266.99	5.49
267.205	6.48
267.42	4.83
267.634	4.54
267.849	4.99
268.063	4.09
268.278	3.27
268.492	3.27
268.707	2.02
268.922	1.89
269.136	4.38
269.351	6.78
269.565	5.13
269.78	6.76
269.994	6.72
270.209	5.55
270.423	8.07
270.637	10.42
270.852	12.82
271.066	13.38
271.281	12.66
271.495	13.25
271.709	11.47
271.924	11.01
272.138	9.36
272.353	7.39
272.567	7.13
272.781	3.66
272.996	0.62
273.21	-2.66
273.424	-3.26
273.638	-2.59
273.853	-4.78
274.067	-1.62
274.281	-1.76
274.495	1.63
274.71	0.35
274.924	0.57
275.138	4.84
275.352	6.55
275.566	6.67
275.781	6.44
275.995	4.72
276.209	3.14
276.423	0.23
276.637	0.42
276.851	-1.78
277.065	2.56
277.279	1.28
277.493	2.65
277.707	-0.02
277.921	0.77
278.135	1.5
278.349	1.54
278.563	-1.02
278.777	-0.02
278.991	-0.87
279.205	1.65
279.419	-0.71
279.633	2.62
279.847	1.92
280.061	1.7
280.275	-1.87
280.489	-2.05
280.703	-4.5
280.917	-1.62
281.131	-2.55
281.344	-2.67
281.558	-5.7
281.772	-4.09
281.986	-4.27
282.2	-7.57
282.414	-3.5
282.627	-2.24
282.841	-5.11
283.055	-0.9
283.269	-0.27
283.482	0.68
283.696	1.82
283.91	3.18
284.123	3.35
284.337	3.55
284.551	3.98
284.764	3.2
284.978	4.74
285.192	7.25
285.405	6.34
285.619	6.37
285.833	4.25
286.046	4.24
286.26	4.36
286.473	4.89
286.687	3.33
286.9	4.77
287.114	1.5
287.327	0.66
287.541	-0.32
287.754	-0.17
287.968	-0.62
288.181	0.97
288.395	0.28
288.608	1.07
288.822	0.23
289.035	0.95
289.248	0.75
289.462	3.36
289.675	1.47
289.889	0.93
290.102	0.75
290.315	1.53
290.529	1.7
290.742	4.34
290.955	3.34
291.169	4.34
291.382	6.53
291.595	6.65
291.808	5.82
292.022	6.02
292.235	6.23
292.448	6.31
292.661	6.15
292.875	5.09
293.088	2.87
293.301	2.97
293.514	2.44
293.727	2.15
293.94	0.73
294.153	1.43
294.367	2.98
294.58	1.4
294.793	3.65
295.006	4.18
295.219	5.16
295.432	6.26
295.645	5.54
295.858	6.27
296.071	4.95
296.284	4.97
296.497	6.07
296.71	4.47
296.923	7.22
297.136	4.06
297.349	3.15
297.562	2.18
297.775	0.99
297.988	1.84
298.201	0.58
298.414	1.42
298.626	1.71
298.839	-0.74
299.052	3.28
299.265	1.22
299.478	3.43
299.691	4.66
299.903	4.49
300.116	3.87
300.329	4.53
300.542	7.11
300.755	6.83
300.967	7.83
301.18	5.89
301.393	4.35
301.605	4.92
301.818	4.26
302.031	3.72
302.243	4.16
302.456	5.85
302.669	4.1
302.881	1.47
303.094	0.11
303.307	0.87
303.519	1.46
303.732	-1
303.944	-2.91
304.157	-2.76
304.37	-2.88
304.582	-1.74
304.795	-2.31
305.007	-2.52
305.22	-2.34
305.432	-1.08
305.645	-2.59
305.857	-3.32
306.069	-2.02
306.282	-1.29
306.494	-0.49
306.707	-0.05
306.919	-0.83
307.132	-1.68
307.344	-0.53
307.556	2.12
307.769	2.4
307.981	2.01
308.193	3.07
308.406	3.84
308.618	4.26
308.83	2.57
309.043	2.46
309.255	4
309.467	3.15
309.679	3.46
309.892	2.06
310.104	1.61
310.316	3.78
310.528	4.86
310.74	5.3
310.953	6.66
311.165	5.77
311.377	7.15
311.589	5.03
311.801	8.15
312.013	8.8
312.225	8.84
312.437	9.55
312.649	6.41
312.862	7.69
313.074	4.93
313.286	3.51
313.498	7.55
313.71	5.7
313.922	7.85
314.134	3.5
314.346	1.21
314.558	2.67
314.77	1.33
314.982	3.51
315.193	4.02
315.405	5.47
315.617	4.12
315.829	7.12
316.041	7.72
316.253	7.61
316.465	9.39
316.677	9.83
316.888	6.21
317.1	7.86
317.312	7.06
317.524	5.86
317.736	6.03
317.947	9.78
318.159	7.17
318.371	8.02
318.583	10.71
318.794	12.94
319.006	13.27
319.218	15.17
319.43	14.78
319.641	15.75
319.853	13.76
320.064	13.3
320.276	10.32
320.488	10.29
320.699	10.92
320.911	7.97
321.123	9.27
321.334	7.38
321.546	7.34
321.757	8.89
321.969	9.16
322.18	12.25
322.392	16.46
322.603	15.59
322.815	13.07
323.026	10.07
323.238	11.66
323.449	8.03
323.661	10.95
323.872	9.14
324.083	6.95
324.295	6.87
324.506	4.52
324.718	2.29
324.929	2.95
325.14	2.1
325.352	2.63
325.563	0.14
325.774	0.65
325.986	0.55
326.197	3.03
326.408	2.55
326.62	1.65
326.831	1.8
327.042	3.8
327.253	6.67
327.464	8.49
327.676	10.61
327.887	10.42
328.098	10.3
328.309	11.14
328.52	12.04
328.732	13.83
328.943	14.34
329.154	15.97
329.365	13.01
329.576	11.66
329.787	11.68
329.998	10.96
330.209	11.36
330.42	13.92
330.631	15.24
330.842	14.46
331.053	15.94
331.264	16.69
331.475	14.04
331.686	14.65
331.897	14.65
332.108	10.91
332.319	11.48
332.53	11.94
332.741	11.03
332.952	7.88
333.163	5.9
333.374	4.11
333.585	5.26
333.795	9.15
334.006	9.47
334.217	9.2
334.428	13.78
334.639	12.01
334.849	11.57
335.06	11.55
335.271	14.46
335.482	17.33
335.692	18.22
335.903	16.89
336.114	14.93
336.325	14.88
336.535	17
336.746	16.81
336.957	16.63
337.167	17.99
337.378	17
337.589	13.8
337.799	12.43
338.01	13.32
338.22	15.23
338.431	14.68
338.642	14.2
338.852	12.03
339.063	11.33
339.273	11.57
339.484	8.8
339.694	9.13
339.905	10.13
340.115	8.82
340.326	8.39
340.536	6.09
340.746	5
340.957	6.03
341.167	5.9
341.378	6.53
341.588	6.17
341.799	6.46
342.009	6.39
342.219	6.92
342.43	8.99
342.64	8.9
342.85	8.84
343.061	10
343.271	9.45
343.481	8.32
343.691	5.54
343.902	5.52
344.112	7.95
344.322	8.14
344.532	6.28
344.743	6.79
344.953	5.7
345.163	7.47
345.373	10.36
345.583	10.79
345.793	11.89
346.004	14.65
346.214	16.07
346.424	14.18
346.634	14.39
346.844	17.33
347.054	14.92
347.264	14.01
347.474	12.56
347.684	9.11
347.894	7.93
348.104	9.18
348.314	8.8
348.524	7.05
348.734	9.61
348.944	7.29
349.154	7.58
349.364	10.45
349.574	10.66
349.784	9.98
349.994	9.8
350.204	10.98
350.413	9.5
350.623	9.08
350.833	9.6
351.043	8.52
351.253	10.68
351.463	9.02
351.672	5.98
351.882	8.26
352.092	8.88
352.302	10.67
352.511	11.22
352.721	10.23
352.931	10.87
353.141	10.54
353.35	9.97
353.56	11.12
353.77	13.11
353.979	14.53
354.189	13.5
354.399	13.99
354.608	15.32
354.818	12.8
355.027	14.04
355.237	13.64
355.447	14.49
355.656	13.77
355.866	12.85
356.075	10.04
356.285	9.71
356.494	11.1
356.704	11.86
356.913	8.68
357.123	10.34
357.332	9.81
357.542	9.48
357.751	8.67
357.96	8.21
358.17	8.59
358.379	8.96
358.589	10.03
358.798	8.44
359.007	8.2
359.217	10.31
359.426	11.19
359.635	10.77
359.845	10.5
360.054	11.16
360.263	11.79
360.472	12.38
360.682	13.43
360.891	12.92
361.1	13.65
361.309	12.91
361.519	11.05
361.728	10.77
361.937	11.48
362.146	12.28
362.355	12.29
362.564	13.66
362.774	13.26
362.983	11.83
363.192	12.44
363.401	11.06
363.61	12.21
363.819	13.6
364.028	12.76
364.237	12.46
364.446	11.03
364.655	10.37
364.864	10.98
365.073	10.56
365.282	10.88
365.491	10.84
365.7	14.05
365.909	12.88
366.118	13.73
366.327	13.83
366.536	15.69
366.745	17.47
366.954	18.03
367.162	16.41
367.371	16.83
367.58	15.43
367.789	13.8
367.998	10.38
368.207	11.28
368.415	11.02
368.624	11.38
368.833	8.68
369.042	7.3
369.25	6.87
369.459	6.54
369.668	6.3
369.877	8.19
370.085	8.87
370.294	9.99
370.503	9.32
370.711	7.95
370.92	7.02
371.129	7.33
371.337	7.19
371.546	6.75
371.754	6.45
371.963	6.75
372.171	8.17
372.38	8.22
372.589	7.38
372.797	6.72
373.006	6.97
373.214	7.26
373.423	8.78
373.631	10.66
373.84	10.56
374.048	12.05
374.256	12.08
374.465	12.02
374.673	11.05
374.882	11.64
375.09	13.05
375.298	13.26
375.507	14.81
375.715	13.77
375.923	12.4
376.132	13.62
376.34	12.74
376.548	12.98
376.757	12.39
376.965	14.12
377.173	13.38
377.381	14.11
377.59	14.95
377.798	13.11
378.006	12.58
378.214	12.03
378.423	11.27
378.631	12.38
378.839	11.54
379.047	10.74
379.255	9.9
379.463	9.61
379.671	8.65
379.879	8.78
380.088	9.77
380.296	10.77
380.504	11.88
380.712	12
380.92	10.37
381.128	9.99
381.336	9.44
381.544	9.61
381.752	9.85
381.96	9.15
382.168	8.81
382.376	10.36
382.584	8.59
382.791	9.06
382.999	9.2
383.207	10.45
383.415	10.48
383.623	10.64
383.831	9.71
384.039	11.03
384.247	11.85
384.454	10.16
384.662	8.31
384.87	10.4
385.078	9.57
385.285	10.41
385.493	10.13
385.701	10.8
385.909	11.31
386.116	11.81
386.324	11.29
386.532	11.44
386.739	13.06
386.947	13.55
387.155	13.25
387.362	12.47
387.57	11.64
387.778	11.11
387.985	9.41
388.193	8.74
388.4	9.71
388.608	9.29
388.816	8.35
389.023	8.46
389.231	8.71
389.438	7.74
389.646	7.92
389.853	7.09
390.061	6.89
390.268	9.4
390.475	10.04
390.683	8.84
390.89	8.19
391.098	8.31
391.305	7.99
391.512	7.4
391.72	7.57
391.927	8.05
392.135	8.38
392.342	8.8
392.549	7.13
392.756	6.69
392.964	7.91
393.171	9.04
393.378	9.76
393.586	9.32
393.793	10.03
394	11.03
394.207	11.45
394.414	11.75
394.622	11.72
394.829	12.36
395.036	13.95
395.243	14.08
395.45	13.91
395.657	13.22
395.864	13.66
396.072	12.71
396.279	12.01
396.486	11.69
396.693	11.95
396.9	11.85
397.107	11.74
397.314	9.1
397.521	7.61
397.728	7.84
397.935	7.36
398.142	7.36
398.349	6.89
398.556	5.87
398.763	4.52
398.97	3.83
399.177	3.02
399.383	2.92
399.59	4.4
399.797	4.85
400.004	4.36
400.211	5.47
400.418	4.98
400.625	6.07
400.831	6.56
401.038	7.82
401.245	8.79
401.452	9.94
401.658	9.36
401.865	9.02
402.072	9.84
402.279	10.05
402.485	9.04
402.692	9.66
402.899	8.94
403.105	9.84
403.312	9.28
403.519	9.76
403.725	9.66
403.932	10.46
404.138	11.31
404.345	10.56
404.552	10.53
404.758	11.26
404.965	10.1
405.171	10.41
405.378	9.98
405.584	10.33
405.791	9.19
405.997	9.38
406.204	9.71
406.41	9.32
406.617	9.13
406.823	9.14
407.029	9.16
407.236	10.4
407.442	10.18
407.649	9.64
407.855	9.97
408.061	10.3
408.268	9.45
408.474	8.03
408.68	7.07
408.887	8.57
409.093	8.17
409.299	6.77
409.505	6.55
409.712	7.14
409.918	8.21
410.124	8.89
410.33	7.84
410.537	7.23
410.743	7.1
410.949	7.34
411.155	6.38
411.361	7.03
411.567	7.69
411.773	7.32
411.98	6.96
412.186	6.19
412.392	6.21
412.598	7.51
412.804	9.09
413.01	10.3
413.216	11.3
413.422	11.26
413.628	11.13
413.834	10.66
414.04	10.45
414.246	10.69
414.452	10.25
414.658	9.59
414.864	9.57
415.07	7.76
415.275	6.58
415.481	5.89
415.687	5.59
415.893	4.01
416.099	4.63
416.305	4.94
416.511	4.93
416.716	4.96
416.922	4.69
417.128	4.26
417.334	5.66
417.539	5.85
417.745	5.92
417.951	5.92
418.157	6.72
418.362	6.27
418.568	5.85
418.774	5.38
418.979	5.07
419.185	5.31
419.391	5.12
419.596	4.76
419.802	4.72
420.008	4.3
420.213	4.39
420.419	4.11
420.624	4.12
420.83	4.51
421.035	4.38
421.241	4.98
421.446	5.04
421.652	5.58
421.857	5.52
422.063	5.91
422.268	6.51
422.474	6.26
422.679	6.23
422.885	6.49
423.09	6.34
423.295	6.49
423.501	6.37
423.706	6.36
423.911	6.73
424.117	6.63
424.322	6.28
424.527	6.43
424.733	7.04
424.938	7.57
425.143	7.5
425.349	7.37
425.554	7.45
425.759	7.44
425.964	7.16
426.169	6.45
426.375	6.73
426.58	7.21
426.785	6.56
426.99	5.95
427.195	5.85
427.4	6.1
427.605	6.79
427.811	7.37
428.016	7.24
428.221	7.57
428.426	7.09
428.631	7.07
428.836	6.6
429.041	6.59
429.246	6.57
429.451	6.75
429.656	6.65
429.861	6.15
430.066	6.57
430.271	6.78
430.476	7.01
430.681	8.05
430.886	7.87
431.09	8.01
431.295	8.15
431.5	8.38
431.705	8.37
431.91	8.47
432.115	8.86
432.32	7.87
432.524	8.46
432.729	7.99
432.934	7.31
433.139	7.48
433.343	7.07
433.548	6.87
433.753	6.26
433.958	6.16
434.162	5.73
434.367	5.87
434.572	5.98
434.776	5.7
434.981	5.91
435.186	5.89
435.39	5.98
435.595	7.05
435.799	6.53
436.004	7.01
436.209	7.35
436.413	7.43
436.618	6.89
436.822	7.45
437.027	6.83
437.231	6.92
437.436	6.97
437.64	6.73
437.845	6.08
438.049	6.5
438.253	6.44
438.458	6.28
438.662	6.24
438.867	6.11
439.071	6.01
439.275	6.22
439.48	5.65
439.684	5.26
439.888	5.32
440.093	5.05
440.297	5.01
440.501	4.93
440.706	4.47
440.91	4.57
441.114	4.8
441.318	4.71
441.523	4.73
441.727	5.13
441.931	5.95
442.135	5.78
442.339	6.37
442.543	6.73
442.748	6.79
442.952	6.9
443.156	6.82
443.36	6.52
443.564	6.44
443.768	6.36
443.972	6.65
444.176	5.95
444.38	6.71
444.584	7.21
444.788	7.27
444.992	7.52
445.196	7.24
445.4	6.9
445.604	6.74
445.808	6.46
446.012	6.24
446.216	5.47
446.42	5.21
446.624	4.77
446.828	4.2
447.032	4.12
447.235	3.27
447.439	3.57
447.643	4.38
447.847	4.35
448.051	4.9
448.254	4.33
448.458	4.45
448.662	5.72
448.866	5.71
449.069	5.78
449.273	5.33
449.477	6.03
449.681	6.27
449.884	5.68
450.088	5.9
450.292	6.41
450.495	7.62
450.699	7.87
450.902	7.74
451.106	7.59
451.31	7.5
451.513	7.25
451.717	7.47
451.92	7.04
452.124	6.94
452.327	7.22
452.531	6
452.734	6.02
452.938	6.06
453.141	5.31
453.345	5.72
453.548	5.8
453.752	6
453.955	6.2
454.158	6.28
454.362	6.67
454.565	6.7
454.769	6.93
454.972	7.22
455.175	6.94
455.379	7.75
455.582	7.29
455.785	7.39
455.988	7.47
456.192	7.56
456.395	8.26
456.598	7.95
456.801	6.98
457.005	7.56
457.208	6.78
457.411	7.01
457.614	6.78
457.817	6.92
458.021	6.52
458.224	6.43
458.427	6.52
458.63	6.07
458.833	6
459.036	6.68
459.239	6.33
459.442	6.25
459.645	6.37
459.848	6.21
460.051	5.86
460.254	5.9
460.457	5.41
460.66	4.7
460.863	4.72
461.066	4.47
461.269	4.27
461.472	3.86
461.675	4.19
461.878	3.68
462.081	3.66
462.284	3.43
462.486	3.37
462.689	3.69
462.892	3.78
463.095	4.07
463.298	4.81
463.5	4.49
463.703	4.26
463.906	4.39
464.109	4.48
464.311	4.06
464.514	4.46
464.717	4.7
464.92	5.22
465.122	4.81
465.325	5
465.528	5.07
465.73	5.1
465.933	6.25
466.135	6.29
466.338	6.14
466.541	6.14
466.743	5.47
466.946	5.61
467.148	5.53
467.351	6.49
467.553	6.44
467.756	6.03
467.958	6.45
468.161	5.82
468.363	6.01
468.566	6.72
468.768	7.34
468.971	7.91
469.173	7.93
469.375	8.25
469.578	7.52
469.78	6.7
469.983	6.81
470.185	7.32
470.387	7.17
470.59	6.89
470.792	7.21
470.994	7.28
471.196	7.92
471.399	8.44
471.601	8.54
471.803	8.94
472.005	9.17
472.208	9.15
472.41	8.49
472.612	8.36
472.814	8.47
473.016	8.47
473.218	8.21
473.421	7.13
473.623	6.62
473.825	6.57
474.027	6.47
474.229	6.96
474.431	6.95
474.633	7.37
474.835	7.69
475.037	7.49
475.239	6.97
475.441	6.23
475.643	6.16
475.845	6.28
476.047	6.45
476.249	6.62
476.451	6.4
476.653	6.63
476.855	6.04
477.057	6.25
477.258	5.93
477.46	6.3
477.662	6.89
477.864	7.47
478.066	7.15
478.268	6.57
478.469	6.52
478.671	6.64
478.873	6.8
479.075	7.07
479.276	7.44
479.478	7.46
479.68	7.57
479.882	7.53
480.083	6.78
480.285	7.14
480.487	7.05
480.688	6.98
480.89	6.8
481.091	6.41
481.293	6.32
481.495	6.01
481.696	6.1
481.898	5.75
482.099	5.67
482.301	5.93
482.502	5.65
482.704	5.69
482.905	5.56
483.107	5.47
483.308	5.48
483.51	5.5
483.711	5.51
483.913	5.42
484.114	5.38
484.315	5.31
484.517	5.28
484.718	5.41
484.92	5.56
485.121	5.62
485.322	5.71
485.524	5.69
485.725	5.67
485.926	5.53
486.127	5.62
486.329	5.62
486.53	5.78
486.731	6.1
486.932	6.22
487.134	5.87
487.335	5.76
487.536	5.89
487.737	5.96
487.938	6.03
488.139	6.22
488.341	6.04
488.542	6.19
488.743	6.22
488.944	6.01
489.145	5.75
489.346	6.24
489.547	6.43
489.748	6.26
489.949	6.17
490.15	6.04
490.351	6.23
490.552	6.37
490.753	6.1
490.954	6.19
491.155	6.05
491.356	5.98
491.557	5.89
491.758	5.92
491.959	5.93
492.159	5.61
492.36	5.77
492.561	5.21
492.762	4.86
492.963	5.5
493.164	5.42
493.364	5.33
493.565	5.46
493.766	5.37
493.967	5.26
494.167	5.2
494.368	5.41
494.569	4.79
494.769	4.96
494.97	4.86
495.171	4.94
495.371	5.04
495.572	4.87
495.773	5.15
495.973	5.38
496.174	5.43
496.375	5.51
496.575	5.57
496.776	6.19
496.976	6.01
497.177	6.41
497.377	6.16
497.578	5.38
497.778	5.83
497.979	5.56
498.179	5.07
498.38	4.95
498.58	4.61
498.78	5.3
498.981	5.06
499.181	4.88
499.382	5.16
499.582	4.69
499.782	5.48
499.983	5.36
500.183	5.33
500.383	5.7
500.584	6.32
500.784	6.99
500.984	6.17
501.184	5.93
501.385	6.89
501.585	6.76
501.785	6.98
501.985	6.68
502.185	6.75
502.386	7.53
502.586	7.67
502.786	7.11
502.986	6.93
503.186	7.03
503.386	7.25
503.586	6.9
503.786	6.77
503.987	6.48
504.187	6.46
504.387	6.45
504.587	6.35
504.787	6.51
504.987	6.83
505.187	7.28
505.387	7.32
505.587	7.24
505.786	6.91
505.986	6.95
506.186	7.65
506.386	7.73
506.586	7.29
506.786	7.17
506.986	6.7
507.186	6.68
507.386	6.2
507.585	6.83
507.785	7.16
507.985	7.15
508.185	7.21
508.384	6.95
508.584	7.17
508.784	7.83
508.984	7.68
509.183	7.83
509.383	7.98
509.583	8.1
509.782	7.68
509.982	7.76
510.182	7.98
510.381	8.15
510.581	8
510.781	7.97
510.98	7.98
511.18	8.32
511.379	8.21
511.579	8
511.778	8.12
511.978	8.42
512.177	8.3
512.377	8.1
512.576	8.36
512.776	8.51
512.975	8.7
513.175	8.24
513.374	7.69
513.573	8.35
513.773	7.99
513.972	8.18
514.172	8.11
514.371	8.24
514.57	8.39
514.77	8.24
514.969	8.52
515.168	8.19
515.367	8.76
515.567	8.9
515.766	8.71
515.965	9.49
516.164	9.63
516.364	9.84
516.563	9.95
516.762	10.07
516.961	9.96
517.16	9.92
517.359	9.96
517.559	9.66
517.758	9.91
517.957	9.63
518.156	9.44
518.355	9.42
518.554	9.26
518.753	9.05
518.952	8.54
519.151	8.7
519.35	9.13
519.549	9.48
519.748	9.71
519.947	9.72
520.146	10.06
520.345	10.43
520.544	10.25
520.743	10.47
520.942	10.67
521.141	11.58
521.339	11.79
521.538	11.57
521.737	11.98
521.936	12.45
522.135	12.62
522.333	12.42
522.532	12.02
522.731	11.92
522.93	11.76
523.129	11.74
523.327	11.5
523.526	11.29
523.725	11.17
523.923	10.85
524.122	10.76
524.321	10.8
524.519	11.09
524.718	11.16
524.917	11.21
525.115	11.6
525.314	11.46
525.512	11.85
525.711	11.92
525.909	11.66
526.108	11.65
526.306	11.53
526.505	11.49
526.703	11.28
526.902	11.29
527.1	11.38
527.299	11.18
527.497	11.34
527.696	11.29
527.894	11.44
528.092	11.6
528.291	11.54
528.489	11.66
528.688	11.66
528.886	11.97
529.084	11.97
529.283	11.97
529.481	12.1
529.679	12.16
529.877	12.17
530.076	12.11
530.274	12.53
530.472	12.66
530.67	12.66
530.869	12.78
531.067	12.92
531.265	13.37
531.463	13.61
531.661	13.81
531.859	13.68
532.057	13.9
532.255	13.83
532.454	13.66
532.652	13.81
532.85	13.86
533.048	13.84
533.246	13.59
533.444	13.38
533.642	13.55
533.84	13.57
534.038	13.61
534.236	13.3
534.434	13.43
534.632	13.43
534.83	13.77
535.027	13.74
535.225	13.87
535.423	14.17
535.621	14.37
535.819	14.53
536.017	14.43
536.215	14.65
536.412	15.28
536.61	15.27
536.808	15.62
537.006	15.11
537.203	15.08
537.401	15.01
537.599	15.06
537.797	14.98
537.994	14.48
538.192	14.65
538.39	15.13
538.587	14.8
538.785	14.83
538.983	14.5
539.18	14.64
539.378	14.69
539.575	14.96
539.773	14.64
539.97	14.6
540.168	14.76
540.366	14.53
540.563	14.21
540.761	14.38
540.958	14.33
541.155	14.63
541.353	14.97
541.55	15.05
541.748	14.83
541.945	15.27
542.143	15.57
542.34	15.8
542.537	15.99
542.735	16.16
542.932	16.01
543.129	16.15
543.327	16.11
543.524	15.94
543.721	15.99
543.919	16.52
544.116	16.3
544.313	16.13
544.51	15.79
544.708	16.22
544.905	16.08
545.102	15.85
545.299	15.93
545.496	15.67
545.693	15.74
545.891	15.62
546.088	14.96
546.285	15.01
546.482	15.28
546.679	15.37
546.876	15.73
547.073	16.24
547.27	16.64
547.467	16.24
547.664	16.49
547.861	15.87
548.058	16.36
548.255	16.98
548.452	17.01
548.649	17.12
548.846	17.92
549.043	16.7
549.24	16.6
549.437	16.63
549.633	16.6
549.83	16.59
550.027	17.43
550.224	17.54
550.421	18.13
550.618	18.32
550.814	18.32
551.011	17.79
551.208	18.04
551.405	17.77
551.601	17.53
551.798	18.41
551.995	18.38
552.191	18.36
552.388	18.4
552.585	17.55
552.781	17.77
552.978	17.31
553.175	17.58
553.371	17.6
553.568	17.98
553.764	17.71
553.961	17.97
554.157	17.96
554.354	18.2
554.55	18.13
554.747	18.7
554.943	18.07
555.14	18.8
555.336	18.82
555.533	18.78
555.729	18.92
555.926	19.31
556.122	19.42
556.318	20.06
556.515	20.13
556.711	20.85
556.907	21.13
557.104	21.51
557.3	21.22
557.496	21.23
557.693	21.93
557.889	22.05
558.085	22.51
558.281	21.68
558.478	21.64
558.674	22.08
558.87	21.64
559.066	21.54
559.262	21.52
559.459	21.47
559.655	21.17
559.851	20.81
560.047	20.79
560.243	20.6
560.439	21.1
560.635	20.69
560.831	20.93
561.027	20.47
561.223	20.41
561.419	20.54
561.615	20.81
561.811	20.13
562.007	19.93
562.203	19.63
562.399	19.65
562.595	19.85
562.791	20.14
562.987	19.34
563.183	19.67
563.379	19.69
563.575	19.85
563.771	19.76
563.966	19.89
564.162	20.04
564.358	20.04
564.554	20.13
564.75	20.12
564.945	19.92
565.141	19.93
565.337	20.22
565.533	20.26
565.728	19.96
565.924	19.67
566.12	19.87
566.315	19.69
566.511	19.7
566.707	19.74
566.902	19.77
567.098	20.17
567.293	20.49
567.489	20.32
567.684	20.66
567.88	20.81
568.076	20.91
568.271	21.37
568.467	21.58
568.662	21.79
568.858	21.7
569.053	21.8
569.248	21.68
569.444	21.5
569.639	21.19
569.835	20.53
570.03	20.6
570.225	20.33
570.421	20.1
570.616	19.88
570.812	19.36
571.007	19.53
571.202	19.5
571.397	19.51
571.593	19.69
571.788	20.65
571.983	20.69
572.178	21.28
572.374	21.95
572.569	22.31
572.764	22.99
572.959	23.35
573.154	23.17
573.35	22.56
573.545	22.61
573.74	22.25
573.935	21.3
574.13	21.6
574.325	21.22
574.52	21.32
574.715	20.96
574.91	20.89
575.105	21.34
575.3	21.18
575.495	22.06
575.69	22.03
575.885	22.24
576.08	22.75
576.275	22.54
576.47	22.2
576.665	21.82
576.86	22.18
577.055	22.11
577.25	21.14
577.444	21.66
577.639	21.66
577.834	21.71
578.029	21.13
578.224	20.14
578.418	20.04
578.613	19.91
578.808	19.88
579.003	20.23
579.197	19.93
579.392	20.73
579.587	20.46
579.781	20.22
579.976	20.01
580.171	20.49
580.365	20.48
580.56	20.81
580.755	22.01
580.949	22.38
581.144	21.44
581.338	21.19
581.533	21.54
581.727	22.24
581.922	22.09
582.116	22.28
582.311	22.6
582.505	23.8
582.7	24.64
582.894	24.54
583.089	24.3
583.283	24.5
583.478	24.97
583.672	24.99
583.866	24.45
584.061	24.77
584.255	24.31
584.449	24.07
584.644	23.89
584.838	23.08
585.032	22.65
585.226	23.24
585.421	22.72
585.615	23.21
585.809	23.79
586.003	24.39
586.198	24.85
586.392	25.47
586.586	25.25
586.78	25.12
586.974	25.17
587.168	25.44
587.363	24.43
587.557	25.24
587.751	24.26
587.945	22.91
588.139	22.66
588.333	21.96
588.527	22.08
588.721	22.15
588.915	21.44
589.109	21.21
589.303	20.7
589.497	20.69
589.691	20.93
589.885	21.07
590.079	22.19
590.273	21.96
590.466	22.21
590.66	22.06
590.854	22.34
591.048	22.8
591.242	23.49
591.436	23.5
591.629	23.99
591.823	23.54
592.017	23.96
592.211	23.91
592.404	23.82
592.598	23.75
592.792	23.8
592.986	23.06
593.179	23.26
593.373	23.02
593.567	23.61
593.76	23.47
593.954	23.67
594.147	23.7
594.341	23.3
594.535	24.01
594.728	23.66
594.922	24.09
595.115	25.03
595.309	24.98
595.502	24.76
595.696	24.23
595.889	24.58
596.083	24.82
596.276	24.19
596.47	24
596.663	23.45
596.856	23.88
597.05	23.66
597.243	23.21
597.437	23.99
597.63	24.56
597.823	24.78
598.017	24.97
598.21	25.75
598.403	26.78
598.596	27.48
598.79	28.04
598.983	28.04
599.176	27.48
599.369	27.92
599.563	26.96
599.756	26.4
599.949	25.4
600.142	25.35
600.335	24.19
600.528	23.95
600.722	23.32
600.915	22.06
601.108	21.36
601.301	21.74
601.494	22.07
601.687	22.3
601.88	21.9
602.073	22.5
602.266	22.48
602.459	21.77
602.652	21.93
602.845	21.73
603.038	22.84
603.231	23.64
603.424	23.21
603.617	22.53
603.809	22.4
604.002	22.5
604.195	22.79
604.388	22.64
604.581	23.34
604.774	23.83
604.966	24.31
605.159	23.96
605.352	23.52
605.545	24.14
605.737	24.51
605.93	24.45
606.123	25.31
606.316	25.6
606.508	25.55
606.701	25.53
606.894	25.8
607.086	25.73
607.279	25.35
607.471	25.58
607.664	24.83
607.857	24.97
608.049	25.58
608.242	24.87
608.434	24.29
608.627	23.91
608.819	24.45
609.012	24.19
609.204	23.37
609.397	23.65
609.589	23.27
609.782	23.51
609.974	23.26
610.166	22.74
610.359	23.27
610.551	23.42
610.743	23.86
610.936	23.83
611.128	23.1
611.32	24.74
611.513	25.02
611.705	25.01
611.897	24.61
612.09	24.7
612.282	24.93
612.474	24.86
612.666	25.43
612.858	26.03
613.051	25.56
613.243	25.51
613.435	24.44
613.627	23.61
613.819	24.59
614.011	25.51
614.203	26.16
614.395	26.13
614.588	26.45
614.78	26.85
614.972	25.6
615.164	25.66
615.356	25.98
615.548	26.44
615.74	26.53
615.932	25.79
616.124	26.4
616.315	25.44
616.507	26.17
616.699	25.37
616.891	25.51
617.083	26.46
617.275	26.72
617.467	26.55
617.659	26.57
617.85	27.28
618.042	27.39
618.234	26.6
618.426	27.03
618.618	26.85
618.809	26.86
619.001	26.19
619.193	26.21
619.384	26.03
619.576	25.62
619.768	25.08
619.959	25.22
620.151	25.41
620.343	25.14
620.534	24.5
620.726	24.75
620.917	24.85
621.109	25.27
621.301	25.18
621.492	25.87
621.684	26.92
621.875	27.51
622.067	26.98
622.258	26.18
622.45	27.73
622.641	28.27
622.832	27.63
623.024	28.25
623.215	27.33
623.407	26.62
623.598	25.39
623.789	25.48
623.981	25.29
624.172	24.5
624.363	25.2
624.555	24.49
624.746	24.96
624.937	24.82
625.129	24.24
625.32	24.72
625.511	25.07
625.702	25.82
625.893	25.54
626.085	25.76
626.276	25.93
626.467	26.49
626.658	26.12
626.849	25.08
627.04	25.58
627.231	25.84
627.422	26.1
627.614	25.47
627.805	24.72
627.996	24.99
628.187	24.4
628.378	25.34
628.569	25.14
628.76	25.64
628.951	26.21
629.142	25.71
629.332	25.68
629.523	25.38
629.714	26.46
629.905	26.71
630.096	26.75
630.287	27.44
630.478	28.63
630.669	28.41
630.859	28.68
631.05	28.64
631.241	28.87
631.432	29.33
631.623	29.92
631.813	29.81
632.004	30.07
632.195	29.06
632.385	28.4
632.576	26.86
632.767	26.47
632.957	25.35
633.148	25.56
633.339	25.79
633.529	25.83
633.72	25.38
633.91	25.33
634.101	24.82
634.292	25.6
634.482	26.41
634.673	26.45
634.863	27.51
635.054	28.59
635.244	28.66
635.435	28.85
635.625	27.39
635.815	26.96
636.006	26.73
636.196	27.47
636.387	27.78
636.577	27.24
636.767	27.83
636.958	27.06
637.148	26.58
637.338	25.61
637.529	25.18
637.719	27.25
637.909	28.69
638.099	29.21
638.29	28.33
638.48	27.49
638.67	27.98
638.86	28.11
639.05	27.58
639.241	27.98
639.431	29.21
639.621	29.78
639.811	28.63
640.001	27.71
640.191	28.94
640.381	31.44
640.571	31.78
640.761	31.16
640.951	31.45
641.141	32.77
641.331	32.35
641.521	32.85
641.711	32.12
641.901	32.24
642.091	32.2
642.281	31.06
642.471	29.25
642.661	28.43
642.851	29.58
643.041	29.75
643.231	30.07
643.42	30.06
643.61	29.67
643.8	29.68
643.99	29.2
644.18	29.24
644.369	29.48
644.559	29.34
644.749	29.34
644.939	29.43
645.128	28.02
645.318	27.85
645.508	27.45
645.697	26.26
645.887	26.04
646.076	27.54
646.266	27.34
646.456	27.21
646.645	27.98
646.835	29.29
647.024	28.53
647.214	28.73
647.403	28.15
647.593	29.47
647.782	30.03
647.972	30.12
648.161	28.82
648.351	29.1
648.54	29.15
648.73	28.81
648.919	29.05
649.108	29.33
649.298	28.98
649.487	28.78
649.677	28.09
649.866	28.44
650.055	29.06
650.244	29.79
650.434	29.29
650.623	29.46
650.812	29.77
651.002	29.09
651.191	28.28
651.38	28.88
651.569	28.65
651.758	30.23
651.947	30.45
652.137	29.91
652.326	29.98
652.515	30.7
652.704	30.5
652.893	30.18
653.082	29.5
653.271	30.73
653.46	31.28
653.649	31.68
653.838	30.86
654.027	29.91
654.216	29.33
654.405	28.95
654.594	29.02
654.783	29.68
654.972	28.86
655.161	30.77
655.35	30.97
655.539	29.6
655.728	29.73
655.916	28.22
656.105	28.39
656.294	28.57
656.483	28.48
656.672	28.14
656.86	27.64
657.049	29.38
657.238	27.8
657.427	27.11
657.615	27.58
657.804	27.06
657.993	28.15
658.181	28.38
658.37	28.43
658.559	29.01
658.747	29.66
658.936	29.35
659.125	26.6
659.313	26.89
659.502	26.62
659.69	26.89
659.879	26.46
660.067	25.23
660.256	25.85
660.444	25.93
660.633	25.33
660.821	24.43
661.01	24.83
661.198	26.86
661.387	27.88
661.575	28.2
661.763	28.09
661.952	28.82
662.14	30.81
662.328	31.33
662.517	33.16
662.705	33.3
662.893	33.86
663.082	33.55
663.27	33.51
663.458	33.37
663.646	33.63
663.834	34.45
664.023	34.5
664.211	32.9
664.399	32.29
664.587	31.7
664.775	31.72
664.963	30.82
665.152	29.97
665.34	30.34
665.528	28.47
665.716	27.42
665.904	28.29
666.092	28.7
666.28	28.96
666.468	28.57
666.656	26.29
666.844	25.72
667.032	25.69
667.22	26.49
667.408	26.8
667.596	28.05
667.784	28.48
667.971	27.5
668.159	27.19
668.347	27.26
668.535	27.07
668.723	29.18
668.911	29.28
669.098	28.71
669.286	27.85
669.474	28.85
669.662	28.8
669.849	27.52
670.037	26.02
670.225	25.7
670.413	26.26
670.6	27.44
670.788	25.89
670.976	25.73
671.163	27.1
671.351	27.18
671.538	26.57
671.726	26.78
671.913	26.29
672.101	28.21
672.289	27.7
672.476	26.89
672.664	24.89
672.851	26.58
673.039	26.79
673.226	26.79
673.413	26.98
673.601	28.07
673.788	28.24
673.976	29.54
674.163	29.01
674.35	30.45
674.538	31.02
674.725	30.78
674.912	30.38
675.1	31.07
675.287	31.18
675.474	31.02
675.662	28.41
675.849	27.75
676.036	27.83
676.223	28.06
676.411	28.25
676.598	28.29
676.785	29.11
676.972	27.63
677.159	26.61
677.346	26.34
677.533	27.55
677.721	28
677.908	29.49
678.095	30.37
678.282	29.74
678.469	29.1
678.656	29
678.843	28.34
679.03	28.39
679.217	28.88
679.404	28.64
679.591	28.28
679.778	28.54
679.964	27.62
680.151	28.1
680.338	28.56
680.525	27.94
680.712	28.88
680.899	29.51
681.086	31.48
681.272	31.59
681.459	30.52
681.646	31.01
681.833	30.69
682.02	29.51
682.206	30.57
682.393	29.28
682.58	30.39
682.766	29.7
682.953	30.69
683.14	30.1
683.326	30.48
683.513	32.33
683.7	32.26
683.886	32.78
684.073	31.97
684.259	29.62
684.446	30.88
684.632	31.82
684.819	31.56
685.005	31.27
685.192	30.07
685.378	29.59
685.565	28.81
685.751	28.16
685.938	28.31
686.124	28.56
686.31	28.59
686.497	29.36
686.683	27.82
686.87	26.37
687.056	26.56
687.242	26.56
687.429	25.72
687.615	25.88
687.801	26.65
687.987	25.72
688.174	27.08
688.36	28.76
688.546	28.26
688.732	29.57
688.918	29.98
689.105	29.94
689.291	31.25
689.477	32.32
689.663	33.67
689.849	32.4
690.035	32.13
690.221	31.27
690.407	30.25
690.593	31.81
690.779	30.69
690.965	32.38
691.151	31.88
691.337	31.43
691.523	28.99
691.709	27.04
691.895	28.52
692.081	29.34
692.267	29.93
692.453	29.61
692.639	29.02
692.825	28.7
693.011	27.43
693.196	28.66
693.382	27.74
693.568	30.1
693.754	31.21
693.94	31.35
694.125	31.37
694.311	31.04
694.497	30.67
694.682	29.83
694.868	28.71
695.054	29.27
695.239	26.74
695.425	28
695.611	27.68
695.796	26.17
695.982	25.88
696.168	25.91
696.353	25.42
696.539	27.25
696.724	25.96
696.91	28.23
697.095	27.2
697.281	27.51
697.466	26.35
697.652	27.46
697.837	28.75
698.023	28.27
698.208	29.26
698.393	30.38
698.579	29.37
698.764	31.05
698.949	29.81
699.135	30.77
699.32	31.86
699.505	31.86
699.691	29.82
699.876	29.58
700.061	29.34
700.246	29.25
700.432	31.16
700.617	30.48
700.802	29.73
700.987	28.69
701.172	29.84
701.358	27.95
701.543	29.56
701.728	30.92
701.913	30.88
702.098	32.71
702.283	31.42
702.468	26.91
702.653	29.86
702.838	29.7
703.023	32.69
703.208	31.3
703.393	32.92
703.578	34.13
703.763	32.99
703.948	30.54
704.133	31.09
704.318	32.4
704.503	33.8
704.688	32.51
704.873	32.42
705.057	30.1
705.242	30.97
705.427	30.99
705.612	28.83
705.797	31.13
705.981	31.39
706.166	32.54
706.351	32.9
706.536	34.32
706.72	33.69
706.905	33
707.09	34.64
707.274	33.26
707.459	34.92
707.644	34.92
707.828	36.07
708.013	39.68
708.197	38.77
708.382	38.61
708.567	37.78
708.751	37.48
708.936	39.06
709.12	38.19
709.305	38.74
709.489	37.38
709.673	39.81
709.858	38.88
710.042	37.99
710.227	36.14
710.411	35.25
710.596	35.45
710.78	34.88
710.964	33.65
711.149	34.7
711.333	32.65
711.517	33.75
711.702	32.62
711.886	31.49
712.07	32.15
712.254	32.87
712.438	34.62
712.623	34.73
712.807	34.93
712.991	36.13
713.175	36.05
713.359	38.17
713.544	36.64
713.728	36.79
713.912	37.31
714.096	36.3
714.28	37.5
714.464	36.86
714.648	35.98
714.832	38.41
715.016	36.72
715.2	37.02
715.384	35.56
715.568	36.11
715.752	36.52
715.936	35.55
716.12	34.71
716.304	32.92
716.488	32.39
716.671	32.54
716.855	30.28
717.039	31.64
717.223	30.71
717.407	33.23
717.59	33.69
717.774	31.42
717.958	32.19
718.142	31.51
718.325	30.3
718.509	28.02
718.693	29.71
718.877	30.27
719.06	30.51
719.244	30.97
719.428	28.06
719.611	27.92
719.795	30.4
719.978	29.29
720.162	29.15
720.345	30
720.529	27.96
720.713	26.53
720.896	26.89
721.08	27
721.263	21.92
721.446	21.08
721.63	18.39
721.813	17.33
721.997	14.72
722.18	15.17
722.364	17.28
722.547	19.58
722.73	19.55
722.914	18.95
723.097	18.18
723.28	21.07
723.464	24.04
723.647	26.1
723.83	23.14
724.013	29.58
724.197	30.07
724.38	28.63
724.563	29.74
724.746	29.12
724.929	28.23
725.112	30.31
725.296	32.93
725.479	31.64
725.662	31.23
725.845	34.04
726.028	29.38
726.211	28.65
726.394	30.55
726.577	31.6
726.76	31.44
726.943	31.43
727.126	28.5
727.309	29.42
727.492	29.61
727.675	30.97
727.858	32.68
728.041	35.76
728.224	36.75
728.407	36.27
728.589	37.35
728.772	39.66
728.955	38.34
729.138	38.68
729.321	36.52
729.503	37.34
729.686	37.65
729.869	34.29
730.052	35.19
730.234	35.97
730.417	35.73
730.6	34.05
730.782	31.23
730.965	33.99
731.148	35.25
731.33	34.79
731.513	34.85
731.695	32.48
731.878	34.33
732.061	33.1
732.243	34.06
732.426	34.21
732.608	34.33
732.791	35.23
732.973	34.69
733.156	34.25
733.338	36.33
733.52	38.08
733.703	39.68
733.885	39.49
734.068	39.09
734.25	39.28
734.432	38.9
734.615	37.07
734.797	38.99
734.979	39.44
735.162	41.38
735.344	39.82
735.526	40.16
735.708	42.01
735.891	42.3
736.073	42.04
736.255	39.28
736.437	39.39
736.619	40.52
736.802	39.85
736.984	38.22
737.166	35.9
737.348	37.01
737.53	33.31
737.712	32.78
737.894	34.15
738.076	36.26
738.258	37.4
738.44	38.06
738.622	38.16
738.804	34.94
738.986	34.63
739.168	35.12
739.35	36.96
739.532	38.2
739.714	36.18
739.896	34.38
740.078	32.95
740.259	31.2
740.441	27.62
740.623	29.04
740.805	30.49
740.987	32.6
741.168	31.03
741.35	32.66
741.532	34.82
741.714	35.21
741.895	35.53
742.077	35.14
742.259	38.79
742.44	42.89
742.622	43.1
742.804	46.38
742.985	45.85
743.167	45.63
743.348	38.63
743.53	39.13
743.711	40.96
743.893	43.17
744.075	42.99
744.256	41.4
744.438	40.74
744.619	42.17
744.8	40.31
744.982	42.55
745.163	47.47
745.345	47.28
745.526	46.58
745.707	49.99
745.889	48.81
746.07	46.3
746.252	47.52
746.433	47.46
746.614	43.3
746.795	43
746.977	42.38
747.158	39.64
747.339	41.76
747.52	41.86
747.702	38.88
747.883	40.26
748.064	43.59
748.245	44.45
748.426	44.98
748.607	47.06
748.788	53.46
748.97	53.06
749.151	52.43
749.332	54.84
749.513	54.23
749.694	55.23
749.875	52.08
750.056	49.23
750.237	44.18
750.418	45.19
750.599	43.01
750.78	39.34
750.96	41.91
751.141	39.78
751.322	40.55
751.503	44.39
751.684	42.52
751.865	40.36
752.046	42.22
752.226	42.65
752.407	41.9
752.588	41.89
752.769	39.59
752.949	34.82
753.13	36.43
753.311	35.41
753.492	31.76
753.672	34.46
753.853	36.02
754.034	36.83
754.214	34.84
754.395	38.02
754.575	40.47
754.756	41.9
754.937	44.75
755.117	44.09
755.298	43.99
755.478	48.52
755.659	47.54
755.839	46.98
756.02	47.55
756.2	51.98
756.381	46.86
756.561	47.58
756.741	44.96
756.922	42.38
757.102	43.47
757.283	41.49
757.463	39.16
757.643	34.58
757.823	35.34
758.004	34.86
758.184	38.64
758.364	41.13
758.545	39.16
758.725	38.45
758.905	36.51
759.085	37.58
759.265	39.69
759.446	33.85
759.626	34.84
759.806	32.63
759.986	31.86
760.166	21.85
760.346	23.91
760.526	22.67
760.706	25.83
760.886	30.07
761.066	27.79
761.246	27.16
761.426	29.13
761.606	29.97
761.786	31.05
761.966	27.9
762.146	29.62
762.326	28.36
762.506	29.16
762.686	30.41
762.866	29.08
763.046	29.96
763.225	30.75
763.405	30.74
763.585	31.32
763.765	31.18
763.945	35.85
764.124	38.43
764.304	41.13
764.484	40.87
764.664	42.42
764.843	42.48
765.023	43.47
765.203	46.32
765.382	51.5
765.562	49.4
765.741	54.95
765.921	51.97
766.101	53.54
766.28	50.41
766.46	48.7
766.639	47.27
766.819	47.56
766.998	49
767.178	46.36
767.357	43.37
767.537	49.4
767.716	42.78
767.896	44.32
768.075	45.18
768.254	47.64
768.434	50.75
768.613	50.24
768.792	52.69
768.972	50.15
769.151	51.03
769.33	53.69
769.51	51.57
769.689	56.83
769.868	55.01
770.047	51.43
770.226	51.73
770.406	53.14
770.585	51.83
770.764	52.69
770.943	53.67
771.122	57.23
771.301	60.72
771.48	63.21
771.66	52.96
771.839	58.98
772.018	56.58
772.197	55.56
772.376	56.25
772.555	51.11
772.734	47.41
772.913	45.81
773.092	32.13
773.271	29.61
773.449	24.62
773.628	33.65
773.807	27.52
773.986	31.58
774.165	32.25
774.344	30.71
774.523	38.65
774.701	40
774.88	42.7
775.059	53.69
775.238	49.4
775.417	48.9
775.595	50.33
775.774	54.16
775.953	52.34
776.131	54.16
776.31	50.15
776.489	51.86
776.667	57.26
776.846	54.73
777.025	57.41
777.203	59.35
777.382	61.35
777.56	62.82
777.739	63.24
777.917	63.56
778.096	61.03
778.274	66.07
778.453	60.42
778.631	56.44
778.81	65.83
778.988	58.48
779.166	59.93
779.345	56.67
779.523	53.52
779.702	53.15
779.88	58.1
780.058	59.15
780.237	58.54
780.415	58.49
780.593	53.62
780.771	47.63
780.95	47.63
781.128	48.04
781.306	53.2
781.484	60.05
781.662	59.78
781.841	59.56
782.019	53.52
782.197	51.27
782.375	56.16
782.553	51.69
782.731	54.13
782.909	54.9
783.087	47.95
783.265	41.66
783.443	42.19
783.621	36.74
783.799	24.73
783.977	27.49
784.155	29.18
784.333	26.34
784.511	30.55
784.689	29.97
784.867	37.37
785.045	38.51
785.223	39.11
785.4	23.21
785.578	28.47
785.756	39.61
785.934	46.61
786.112	46.53
786.289	48.14
786.467	48.03
786.645	48.52
786.823	44.99
787	47.32
787.178	45.52
787.356	54.26
787.533	53.29
787.711	50.93
787.889	46.22
788.066	52.21
788.244	49.8
788.421	53.62
788.599	50.14
788.776	47.4
788.954	52.54
789.131	49.26
789.309	53.67
789.486	52.22
789.664	51.14
789.841	55.19
790.019	51.09
790.196	51.89
790.373	57.89
790.551	69.17
790.728	66.23
790.906	50.72
791.083	67.36
791.26	56.07
791.437	59.07
791.615	47.65
791.792	43.56
791.969	42.89
792.146	42.61
792.324	40.69
792.501	39.71
792.678	42.71
792.855	51.2
793.032	51.89
793.209	54.37
793.387	51.51
793.564	57.21
793.741	63.36
793.918	69.79
794.095	74.46
794.272	64.22
794.449	60.69
794.626	64.15
794.803	59.81
794.98	56.92
795.157	58.5
795.334	60.75
795.511	56.56
795.688	57.71
795.864	55.06
796.041	48.24
796.218	57.3
796.395	59.17
796.572	62.28
796.749	62.81
796.925	62.19
797.102	59.6
797.279	57.27
797.456	54.68
797.632	47.99
797.809	47.52
797.986	48.19
798.162	47.47
798.339	42.97
798.516	38.3
798.692	43.29
798.869	40.67
799.046	41.82
799.222	43.53
799.399	47.06
799.575	51.12
799.752	50.16
799.928	53.09
800.105	54.67
800.281	68.33
800.458	79.07
800.634	76.56
800.811	80
800.987	75.73
801.163	84.45
801.34	93.96
801.516	87.39
801.692	78.82
801.869	73.91
802.045	76.74
802.221	72.79
802.398	65.89
802.574	61.96
802.75	59.51
802.926	61.36
803.103	48.12
803.279	51.1
803.455	49.1
803.631	50.2
803.807	58.08
803.983	56.9
804.16	52.25
804.336	48.36
804.512	60.4
804.688	68.49
804.864	67.09
805.04	69.91
805.216	68.6
805.392	71.51
805.568	80.12
805.744	67.19
805.92	60.12
806.096	63.9
806.272	68.41
806.448	52.45
806.623	46.81
806.799	50.68
806.975	53.2
807.151	50.85
807.327	41.71
807.503	29.02
807.678	38.23
807.854	26.19
808.03	20.14
808.206	20.41
808.381	36.05
808.557	34.45
808.733	27.18
808.908	34.06
809.084	25.73
809.26	41.71
809.435	51.99
809.611	51.61
809.787	68.36
809.962	58.69
810.138	48.45
810.313	28.35
810.489	33.4
810.664	29.66
810.84	26.42
811.015	44.69
811.191	35.34
811.366	31.77
811.542	39.89
811.717	38.33
811.892	52.96
812.068	74.18
812.243	93.77
812.419	120.98
812.594	125.56
812.769	146.43
812.944	129.74
813.12	114.96
813.295	105.4
813.47	98.93
813.645	113.34
813.821	93.72
813.996	98.32
814.171	99
814.346	94.5
814.521	96.12
814.697	78.81
814.872	71.6
815.047	76.14
815.222	55.53
815.397	53.33
815.572	58.3
815.747	67.97
815.922	61.71
816.097	56.52
816.272	44.56
816.447	28.78
816.622	33.03
816.797	30.92
816.972	25.87
817.147	33.78
817.322	40.48
817.496	38.29
817.671	33.94
817.846	33.04
818.021	36.7
818.196	34.32
818.371	47.28
818.545	45.73
818.72	48.27
818.895	46.6
819.069	44.54
819.244	35.86
819.419	34.1
819.594	31.35
819.768	31.02
819.943	26.38
820.117	27.2
820.292	22.7
820.467	22.2
820.641	20.99
820.816	23.13
820.99	20.9
821.165	21.56
821.339	20.99
821.514	21.99
821.688	20.82
821.863	21.91
822.037	20.95
822.212	21.63
822.386	22.14
822.56	23.25
822.735	21.5
822.909	24.18
823.084	26.88
823.258	28.52
823.432	27.73
823.606	30.04
823.781	31.09
823.955	37.43
824.129	35.58
824.303	36.57
824.478	38.08
824.652	40.37
824.826	37.73
825	33.78
825.174	29.24
825.348	27.44
825.523	28.9
825.697	25.47
825.871	21.11
826.045	23.12
826.219	21.02
826.393	20.7
826.567	17.03
826.741	21.87
826.915	20.94
827.089	28.78
827.263	31.23
827.437	27.04
827.611	29.12
827.784	31.71
827.958	28.77
828.132	32.85
828.306	29.8
828.48	40.69
828.654	43.53
828.827	53.92
829.001	56.59
829.175	64.74
829.349	63.7
829.522	78.52
829.696	80.94
829.87	93.69
830.044	108.34
830.217	105.47
830.391	109.82
830.565	83.61
830.738	78.29
830.912	68.58
831.085	66.44
831.259	74.85
831.432	53.75
831.606	45.43
831.779	38.06
831.953	38.37
832.126	37.75
832.3	35.1
832.473	38.96
832.647	36.88
832.82	34.48
832.994	34.4
833.167	34.4
833.34	37
833.514	34.68
833.687	37.76
833.86	37.37
834.034	38.74
834.207	39.12
834.38	38.84
834.553	43.27
834.727	49.38
834.9	58.58
835.073	63.75
835.246	59.28
835.419	67.23
835.593	64.6
835.766	75.3
835.939	72.2
836.112	67.2
836.285	78.21
836.458	62.5
836.631	28.44
836.804	24.28
836.977	13.76
837.15	25.14
837.323	17.81
837.496	42.75
837.669	48.58
837.842	58.11
838.015	50.28
838.188	54.19
838.361	51.46
838.533	52.49
838.706	44.98
838.879	50.1
839.052	56.51
839.225	63.88
839.398	59.55
839.57	49.11
839.743	54.14
839.916	61.08
840.088	50.74
840.261	46.43
840.434	46.48
840.607	42.23
840.779	22.93
840.952	29.4
841.124	28.75
841.297	37.12
841.47	44.94
841.642	35.45
841.815	44.37
841.987	64.55
842.16	111.66
842.332	108.02
842.505	73.8
842.677	73.01
842.85	51.95
843.022	59.96
843.194	13.18
843.367	20.76
843.539	40.96
843.712	43.01
843.884	48.34
844.056	38.2
844.229	5.25
844.401	29.17
844.573	80
844.745	78.44
844.918	44.86
845.09	129.55
845.262	70.25
845.434	52.77
845.606	42.86
845.779	-4.55
845.951	2900
846.123	-891.18
846.295	1053.06
846.467	-905.26
846.639	-1565.22
846.811	493.18
846.983	242.05
847.155	591.25
847.327	426.42
847.499	196.58
847.671	172.84
847.843	232.27
848.015	205.31
848.187	152.65
848.359	133.56
848.531	166.44
848.703	211
848.875	181.53
849.047	645
849.218	1968.75
849.39	-318.52
849.562	8860
849.734	-1335.71
849.905	8514.29
850.077	-605.41
850.249	-231.43
850.421	873.02
850.592	453.66
850.764	255.42
850.936	214.83
851.107	283.55
851.279	229.04
851.451	192.1
851.622	287.15
851.794	218.95
851.965	324.54
852.137	374.53
852.308	5411.11
852.48	-343.52
852.651	-251.31
852.823	-443.65
852.994	-1892.59
853.166	4787.5
853.337	-755.56
853.509	140.7
853.68	-200
853.851	-5.56
854.023	53.15
854.194	80.51
854.365	65.09
854.537	36.45
854.708	-23.37
854.879	-54.64
855.05	-48.55
855.222	-24.74
855.393	-8.33
855.564	30.82
855.735	61.56
855.906	17.97
856.078	-32.46
856.249	-3.94
856.42	-48.72
856.591	-31.95
856.762	473.68
856.933	226.92
857.104	68
857.275	-500
857.446	90.77
857.617	633.33
857.788	-1300
857.959	53.71
858.13	248.98
858.301	67.44
858.472	42.22
858.643	82.25
858.814	72.31
858.985	71.48
859.155	35.42
859.326	-180.2
859.497	-48.93
859.668	-48.68
859.839	-149.11
860.009	-63.1
860.18	-4.04
860.351	30.54
860.522	30.72
860.692	33
860.863	52.45
861.034	75.15
861.204	86.68
861.375	172.87
861.546	126.5
861.716	147.28
861.887	149.07
862.057	466.18
862.228	690.48
862.398	-67.49
862.569	-705.88
862.739	-840.91
862.91	639.13
863.08	6757.14
863.251	-3300
863.421	-726.67
863.592	-5312.5
863.762	-432.47
863.932	865.85
864.103	-513.33
864.273	434.74
864.443	371.43
864.614	191.38
864.784	165.05
864.954	150.42
865.125	55.53
865.295	80.46
865.465	145.75
865.635	128.86
865.805	136.97
865.976	134.69
866.146	99.65
866.316	82.39
866.486	65.77
866.656	44.02
866.826	42.48
866.996	60.29
867.166	81.33
867.336	53.22
867.506	40.37
867.676	43.37
867.846	19.45
868.016	51.54
868.186	88.33
868.356	448.19
868.526	428.28
868.696	-2252.94
868.866	-362.69
869.036	-774.07
869.206	535.14
869.376	-748.15
869.545	700
869.715	1276.19
869.885	-358.82
870.055	-102.56
870.224	27.16
870.394	51.49
870.564	95.35
870.734	225.89
870.903	92.13
871.073	160.56
871.243	194.62
871.412	167.89
871.582	113.04
871.751	186.36
871.921	30.38
872.091	21.11
872.26	8.19
872.43	13.58
872.599	2.55
872.769	-3.7
872.938	-42.92
873.108	-50
873.277	-190.32
873.446	3307.69
873.616	-306.45
873.785	207
873.955	168.91
874.124	168.18
874.293	244.33
874.463	783.78
874.632	-223.19
874.801	-110
874.971	64.09
875.14	62.53
875.309	73.74
875.478	181.32
875.647	132.67
875.817	190.23
875.986	183.33
876.155	-55300
876.324	-244.7
876.493	-141.98
876.662	-225.85
876.831	-9.16
877	-6.92
877.17	51.34
877.339	182.5
877.508	231.35
877.677	0
877.846	-1025
878.015	-626.67
878.184	-166.95
878.352	-4966.67
878.521	567.65
878.69	219.25
878.859	211.61
879.028	193.96
879.197	158.95
879.366	104.07
879.534	82.47
879.703	91.94
879.872	75.72
880.041	67.62
880.21	63.61
880.378	58.3
880.547	45.24
880.716	37.74
880.884	19.72
881.053	13.09
881.222	18.58
881.39	19.49
881.559	18.79
881.727	22.85
881.896	21.31
882.065	17.11
882.233	13.02
882.402	12.76
882.57	10.51
882.739	16.64
882.907	20.76
883.076	6.82
883.244	3.41
883.412	-12.91
883.581	-11.01
883.749	-11.47
883.918	-5.45
884.086	17.94
884.254	17.57
884.423	24.23
884.591	33.33
884.759	61.5
884.927	71.1
885.096	78.13
885.264	108.57
885.432	124.71
885.6	165.41
885.769	135.03
885.937	111.79
886.105	95.61
886.273	97.4
886.441	108.54
886.609	85.16
886.777	104.18
886.945	109.63
887.113	93.13
887.281	110.64
887.449	84
887.617	68.56
887.785	92.73
887.953	113.54
888.121	219.05
888.289	402.5
888.457	865.38
888.625	395.24
888.793	-776.32
888.961	1453.13
889.129	3000
889.296	625
889.464	925
889.632	736.92
889.8	483.33
889.967	209.91
890.135	158.47
