Data from JASIL_3079_Reflection_01.txt Node
Date: Mon Nov 09 11:52:06 EST 2015
User: Geneva
Spectrometer: USB4E03002
Autoset integration time: false
Trigger mode: 4
Integration Time (sec): 1.000000E-1
Scans to average: 10
Electric dark correction enabled: false
Nonlinearity correction enabled: false
Boxcar width: 5
Stray light correction enabled: false
XAxis mode: Wavelengths
Stop averaging: false
Number of Pixels in Spectrum: 3648
>>>>>Begin Spectral Data<<<<<
177.575	-206.3
177.794	1752.63
178.014	-830.61
178.233	-252.6
178.452	-283.33
178.672	-170.59
178.891	-46.33
179.11	-98.96
179.33	52.51
179.549	-33.13
179.768	-138.54
179.987	16.78
180.207	35.23
180.426	27.98
180.645	52.45
180.864	64.02
181.084	63.32
181.303	-10.43
181.522	-13.18
181.741	-3000
181.96	186.18
182.179	410.77
182.398	142.79
182.618	75.34
182.837	87.82
183.056	106.35
183.275	663.89
183.494	-192.03
183.713	-7400
183.932	-3163.64
184.151	-161.44
184.37	-37.79
184.589	-1.88
184.808	-16.67
185.027	-5.36
185.246	15.57
185.465	13.61
185.684	6.22
185.903	-203.19
186.122	-339.62
186.341	-160.47
186.56	-210.53
186.779	2.82
186.998	13.48
187.216	540
187.435	207.25
187.654	-4571.43
187.873	-462.75
188.092	-134
188.311	45.87
188.53	57.25
188.748	100.28
188.967	104.9
189.186	94.23
189.405	91.87
189.623	131.4
189.842	132.63
190.061	211.28
190.28	194.01
190.498	310.61
190.717	175.94
190.936	105.42
191.154	53.15
191.373	-180
191.592	-120.98
191.81	-142.53
192.029	-14.44
192.248	32.88
192.466	36.86
192.685	33.8
192.904	29.07
193.122	24.7
193.341	45.02
193.559	54.57
193.778	89.94
193.996	112.69
194.215	153.18
194.433	212.71
194.652	138.38
194.87	189.17
195.089	289.24
195.307	816.49
195.526	1514.81
195.744	1822.86
195.963	506.99
196.181	658.06
196.399	233.33
196.618	170.66
196.836	144.62
197.055	134.46
197.273	125.17
197.491	98.25
197.71	71.23
197.928	69.53
198.146	93.18
198.365	100
198.583	108.7
198.801	78.96
199.019	102
199.238	192.59
199.456	340.37
199.674	816.67
199.892	-3081.82
200.111	-449.35
200.329	15000
200.547	338.07
200.765	200.88
200.983	177.62
201.202	253.43
201.42	198.64
201.638	147.74
201.856	129.1
202.074	94.78
202.292	102.75
202.51	106.51
202.728	84.57
202.946	86.26
203.165	69.61
203.383	93.25
203.601	69.26
203.819	51.94
204.037	52.89
204.255	61.76
204.473	88.36
204.691	84.72
204.909	70.77
205.127	74.71
205.345	39.39
205.562	54.61
205.78	39.64
205.998	36.88
206.216	58.72
206.434	57.43
206.652	55.43
206.87	60.35
207.088	52.02
207.306	43.24
207.523	56.73
207.741	91.21
207.959	130.3
208.177	-40.63
208.395	218.75
208.612	277.78
208.83	196.34
209.048	184.47
209.266	3666.67
209.483	-60.23
209.701	-31.1
209.919	-11.85
210.136	2.29
210.354	380.65
210.572	558.82
210.79	-116.52
211.007	-3.12
211.225	157.21
211.442	98.85
211.66	182.17
211.878	188.19
212.095	2220.97
212.313	-1638.46
212.53	-3712.12
212.748	1425.56
212.966	3717.14
213.183	-9550
213.401	739.86
213.618	490.5
213.836	1029.91
214.053	738.35
214.271	1715.38
214.488	64.95
214.705	104.82
214.923	138.75
215.14	134.78
215.358	142.47
215.575	182.3
215.793	200.41
216.01	269.47
216.227	180.49
216.445	177.87
216.662	203.86
216.879	175
217.097	200
217.314	143.75
217.531	-59.09
217.749	0
217.966	-320
218.183	-5800
218.4	44.44
218.618	187.25
218.835	-570.59
219.052	-83.25
219.269	-66.83
219.487	-199.43
219.704	-1812
219.921	-545.45
220.138	328.95
220.355	753.23
220.572	349.3
220.79	212.03
221.007	223.8
221.224	213.28
221.441	158.56
221.658	130.62
221.875	101.97
222.092	88.49
222.309	102.22
222.526	103.18
222.743	72.68
222.96	42.91
223.177	27.82
223.394	14.8
223.611	25.5
223.828	45.22
224.045	36.51
224.262	17.64
224.479	32.8
224.696	11.76
224.913	-2.39
225.13	5.68
225.347	2.92
225.564	-4.16
225.781	-5.18
225.997	-18.98
226.214	-17.5
226.431	-8.96
226.648	-2.21
226.865	-8.76
227.082	1.28
227.298	1.87
227.515	0.66
227.732	-6
227.949	-0.75
228.165	2.69
228.382	4
228.599	9.13
228.816	15.9
229.032	13.88
229.249	16.28
229.466	13.73
229.682	19.62
229.899	14.68
230.116	23.98
230.332	15.27
230.549	14.52
230.765	20.04
230.982	20.86
231.199	13.44
231.415	21.84
231.632	20.07
231.848	19.11
232.065	21.44
232.281	20.95
232.498	27.47
232.714	44.33
232.931	28.67
233.147	15.56
233.364	11.55
233.58	11.11
233.797	4.99
234.013	3.17
234.23	-0.54
234.446	-1.01
234.662	10.48
234.879	-4
235.095	-13.12
235.312	7.21
235.528	15.53
235.744	3
235.961	0.34
236.177	15.05
236.393	16.73
236.61	27.62
236.826	15.53
237.042	10
237.258	15.99
237.475	23.88
237.691	25.28
237.907	19.77
238.123	28.88
238.339	25.76
238.556	15.19
238.772	9.27
238.988	5.98
239.204	6.01
239.42	12.08
239.636	12.43
239.853	11.84
240.069	2.42
240.285	6.58
240.501	3.51
240.717	4.05
240.933	4.98
241.149	7.48
241.365	7.75
241.581	9.51
241.797	9.94
242.013	7.14
242.229	6.61
242.445	6.69
242.661	3.54
242.877	5.7
243.093	7.9
243.309	8.71
243.525	8.59
243.741	5.79
243.957	2.3
244.173	-1.91
244.388	5.55
244.604	8.17
244.82	11.32
245.036	13.56
245.252	13.35
245.468	11.18
245.683	10.03
245.899	13.62
246.115	14.28
246.331	14.55
246.547	12.51
246.762	10.46
246.978	10.32
247.194	9.34
247.409	7.45
247.625	7.92
247.841	8.11
248.057	10.22
248.272	4.62
248.488	-2.45
248.703	-5.69
248.919	4.88
249.135	8.59
249.35	3.22
249.566	7.81
249.782	7
249.997	3.24
250.213	4.44
250.428	-0
250.644	-0.76
250.859	5.59
251.075	5.74
251.29	1.65
251.506	0.31
251.721	3.45
251.937	4.3
252.152	5.32
252.368	5.89
252.583	11.82
252.798	13.68
253.014	17.74
253.229	14.32
253.445	15
253.66	7.64
253.875	9.02
254.091	8.83
254.306	8.27
254.521	8.75
254.737	1.07
254.952	-6.89
255.167	-6.27
255.383	-6.55
255.598	1.01
255.813	8.71
256.028	13.55
256.244	11.97
256.459	9.63
256.674	6.59
256.889	5.47
257.104	11.29
257.32	15.39
257.535	13.74
257.75	10.53
257.965	5.41
258.18	3.32
258.395	3.21
258.61	5.1
258.826	6.47
259.041	6.69
259.256	5.66
259.471	4.71
259.686	2.14
259.901	2.82
260.116	3.29
260.331	6.88
260.546	6.45
260.761	7.37
260.976	5.46
261.191	1.99
261.406	4
261.621	10.89
261.836	12.77
262.05	10.97
262.265	11.94
262.48	15.27
262.695	16.78
262.91	13.97
263.125	17.04
263.34	18.56
263.555	18.04
263.769	14.27
263.984	12.48
264.199	10.97
264.414	11.99
264.629	8.83
264.843	10.72
265.058	5.37
265.273	7.08
265.488	3.48
265.702	0.35
265.917	1.64
266.132	3.98
266.346	1.04
266.561	3.38
266.776	6.51
266.99	6.14
267.205	0.28
267.42	0.94
267.634	0.44
267.849	3.13
268.063	2.87
268.278	3.07
268.492	-0.08
268.707	0.3
268.922	-0.52
269.136	-3.78
269.351	-0.39
269.565	5.55
269.78	6.29
269.994	6.57
270.209	4.64
270.423	6.85
270.637	5.95
270.852	7.23
271.066	6.14
271.281	5.1
271.495	3.95
271.709	-0.21
271.924	-4.04
272.138	-4.61
272.353	-3.84
272.567	-2.21
272.781	-2.58
272.996	-1.93
273.21	-0.69
273.424	-1.78
273.638	-1.36
273.853	-0.38
274.067	1.2
274.281	0.23
274.495	-0.88
274.71	1.64
274.924	-0.71
275.138	-4.4
275.352	-10.65
275.566	-14.37
275.781	-12.23
275.995	-12.96
276.209	-9.27
276.423	-3.38
276.637	-0.24
276.851	2.66
277.065	1.16
277.279	-1.1
277.493	1.85
277.707	6.44
277.921	6.25
278.135	9.74
278.349	8.86
278.563	2.39
278.777	-0.07
278.991	-3.69
279.205	-5.41
279.419	-9.07
279.633	-7.87
279.847	-7.39
280.061	-4.62
280.275	-1.22
280.489	-3.43
280.703	-4.45
280.917	-0.6
281.131	-0.1
281.344	2.76
281.558	-0.37
281.772	1.51
281.986	2.38
282.2	0.81
282.414	-1.95
282.627	-4.32
282.841	-3.53
283.055	-1.19
283.269	-2.48
283.482	-2.43
283.696	-1.18
283.91	3.72
284.123	3.24
284.337	2.95
284.551	1.7
284.764	2.47
284.978	3.17
285.192	1.92
285.405	3.05
285.619	2.31
285.833	1.72
286.046	1.45
286.26	-0.62
286.473	-1.54
286.687	0.44
286.9	4.46
287.114	4
287.327	1.38
287.541	1.28
287.754	-0.29
287.968	1.71
288.181	1.49
288.395	1.61
288.608	0.99
288.822	1.11
289.035	-1.59
289.248	-4.21
289.462	-4.13
289.675	-3.55
289.889	-3.42
290.102	-3.92
290.315	-3.57
290.529	-5.03
290.742	-4.52
290.955	-4.29
291.169	-4.22
291.382	-2.81
291.595	-2.64
291.808	-1.13
292.022	0.64
292.235	2.07
292.448	1.4
292.661	-0.09
292.875	-0.81
293.088	-2.49
293.301	-2.05
293.514	-0.78
293.727	1.38
293.94	2.64
294.153	2.24
294.367	2.95
294.58	1.35
294.793	2.3
295.006	2.21
295.219	4.39
295.432	3.76
295.645	5.37
295.858	5.01
296.071	4.18
296.284	2.91
296.497	1.76
296.71	2.13
296.923	2.47
297.136	1.83
297.349	1.47
297.562	0.14
297.775	0.9
297.988	1.26
298.201	0.21
298.414	0.51
298.626	1.79
298.839	3.94
299.052	2.4
299.265	3.14
299.478	5.34
299.691	7.11
299.903	7.47
300.116	8.07
300.329	5.9
300.542	6.32
300.755	5.24
300.967	4.31
301.18	4.38
301.393	3.24
301.605	4.13
301.818	2.79
302.031	0.42
302.243	1.45
302.456	-0.45
302.669	1.41
302.881	2.58
303.094	2.03
303.307	5.92
303.519	4.71
303.732	3.92
303.944	5.19
304.157	4.85
304.37	5.45
304.582	4.56
304.795	5.2
305.007	3.3
305.22	5.63
305.432	6.33
305.645	3.78
305.857	4.46
306.069	6.09
306.282	5.45
306.494	6.01
306.707	5.68
306.919	4.5
307.132	6.28
307.344	6.38
307.556	4.19
307.769	1.69
307.981	0.51
308.193	1.53
308.406	4.25
308.618	1.92
308.83	2.34
309.043	3.68
309.255	5.05
309.467	2.91
309.679	2.7
309.892	2.81
310.104	5.96
310.316	5.74
310.528	4.82
310.74	1.75
310.953	2.12
311.165	2.19
311.377	1.87
311.589	1.1
311.801	1.97
312.013	0.9
312.225	-0.98
312.437	-5.71
312.649	-5.75
312.862	-5.45
313.074	-7.87
313.286	-6.9
313.498	-6.04
313.71	-4.83
313.922	-1.81
314.134	-0.69
314.346	1.69
314.558	5.59
314.77	9.86
314.982	12.15
315.193	11.86
315.405	13.69
315.617	14.6
315.829	11.9
316.041	10.65
316.253	8.01
316.465	8.72
316.677	8.35
316.888	6.07
317.1	5
317.312	3.2
317.524	3.66
317.736	4.86
317.947	3.76
318.159	5.67
318.371	5.13
318.583	7.21
318.794	6.81
319.006	6.13
319.218	7.02
319.43	6.26
319.641	4.48
319.853	5.25
320.064	5.56
320.276	4.74
320.488	-0.02
320.699	1.55
320.911	1.08
321.123	4.15
321.334	5.69
321.546	8.47
321.757	7.97
321.969	9.35
322.18	9.55
322.392	11.61
322.603	10.24
322.815	10.85
323.026	10.45
323.238	9.07
323.449	6.15
323.661	4.05
323.872	0.74
324.083	1.03
324.295	-1.79
324.506	-1.65
324.718	-3.77
324.929	-0.14
325.14	3.66
325.352	1.92
325.563	3.16
325.774	4.16
325.986	5
326.197	4.78
326.408	7.31
326.62	8.18
326.831	6.04
327.042	7.51
327.253	5.58
327.464	5.23
327.676	8.81
327.887	7.63
328.098	6.55
328.309	7.53
328.52	9.94
328.732	5.65
328.943	10.36
329.154	10.64
329.365	9.03
329.576	7.32
329.787	6.77
329.998	3.84
330.209	4.7
330.42	6.11
330.631	6.93
330.842	7.19
331.053	8.96
331.264	6.04
331.475	6.82
331.686	7.01
331.897	10.28
332.108	10.6
332.319	8.5
332.53	11.26
332.741	12.33
332.952	11.41
333.163	11.03
333.374	12.44
333.585	13.12
333.795	13.81
334.006	12.69
334.217	10.42
334.428	12.36
334.639	17.09
334.849	16.85
335.06	13.28
335.271	12.53
335.482	11.46
335.692	10.79
335.903	9.28
336.114	7.43
336.325	5.93
336.535	4.38
336.746	2.78
336.957	-1.42
337.167	-4.55
337.378	-1.7
337.589	-0.38
337.799	1.53
338.01	1.49
338.22	3.41
338.431	3.37
338.642	6.19
338.852	7.48
339.063	6.45
339.273	8.72
339.484	9.81
339.694	9.61
339.905	8.89
340.115	8.62
340.326	8.78
340.536	7.31
340.746	9.03
340.957	8.89
341.167	9.9
341.378	9.82
341.588	10.75
341.799	12.56
342.009	13.72
342.219	14.08
342.43	12.46
342.64	11.04
342.85	11.88
343.061	9.28
343.271	7.77
343.481	7.56
343.691	8.87
343.902	6.63
344.112	1.66
344.322	0.64
344.532	-1.28
344.743	-2.75
344.953	-1.96
345.163	-0.74
345.373	1.16
345.583	3.4
345.793	3.11
346.004	0.53
346.214	1.45
346.424	4.07
346.634	5.08
346.844	6.34
347.054	9.79
347.264	9.84
347.474	8.56
347.684	8.16
347.894	8.37
348.104	7.36
348.314	8.95
348.524	6.63
348.734	7.43
348.944	6.02
349.154	7.13
349.364	7.98
349.574	7.23
349.784	5.39
349.994	4.91
350.204	4.37
350.413	4.55
350.623	4.83
350.833	6.84
351.043	6.47
351.253	8.05
351.463	8.49
351.672	6.98
351.882	8.28
352.092	9.82
352.302	9.77
352.511	11.24
352.721	11.06
352.931	10.2
353.141	10.55
353.35	10.49
353.56	9.41
353.77	8.9
353.979	7.81
354.189	6.06
354.399	6.29
354.608	6.04
354.818	5.63
355.027	7.05
355.237	6.3
355.447	6.98
355.656	7.1
355.866	8.29
356.075	8.7
356.285	9.76
356.494	10.12
356.704	10.13
356.913	10.17
357.123	10.76
357.332	9.04
357.542	8.69
357.751	7.75
357.96	6.38
358.17	5.06
358.379	4.93
358.589	5.37
358.798	6.82
359.007	6.51
359.217	7.97
359.426	7.2
359.635	9.51
359.845	12.19
360.054	11.62
360.263	12.47
360.472	11.42
360.682	11.96
360.891	11.61
361.1	10.28
361.309	10.1
361.519	8.94
361.728	8.77
361.937	7.77
362.146	6.51
362.355	6.76
362.564	7.47
362.774	8.11
362.983	10.2
363.192	10.2
363.401	11.6
363.61	13.49
363.819	14.7
364.028	14.7
364.237	13.64
364.446	13.36
364.655	12.88
364.864	12.5
365.073	14.41
365.282	12.19
365.491	11.08
365.7	9.98
365.909	9.04
366.118	8.92
366.327	9.15
366.536	10.19
366.745	10.8
366.954	12.38
367.162	12
367.371	9.04
367.58	7.93
367.789	9.75
367.998	10.51
368.207	9.05
368.415	8.7
368.624	7.06
368.833	6.52
369.042	5.26
369.25	4.99
369.459	4.86
369.668	7.11
369.877	6.58
370.085	5.04
370.294	4.59
370.503	6.78
370.711	7.47
370.92	7.39
371.129	7.75
371.337	7.56
371.546	6.27
371.754	6.01
371.963	4.84
372.171	6.19
372.38	6.89
372.589	8.25
372.797	5.4
373.006	5.76
373.214	5.52
373.423	6.45
373.631	5.53
373.84	5.43
374.048	4.86
374.256	4.79
374.465	5.1
374.673	5.92
374.882	5.49
375.09	7.23
375.298	6.13
375.507	6.13
375.715	4.88
375.923	7.58
376.132	8.28
376.34	9.17
376.548	9.63
376.757	8.65
376.965	8.46
377.173	8.52
377.381	8.1
377.59	9.2
377.798	11.03
378.006	11.2
378.214	10.88
378.423	10.51
378.631	10.98
378.839	11.66
379.047	11.1
379.255	9.81
379.463	9.91
379.671	10.88
379.879	9.35
380.088	9.03
380.296	8.96
380.504	9.66
380.712	10.21
380.92	9.3
381.128	9.14
381.336	9.07
381.544	9.67
381.752	9.16
381.96	8.55
382.168	8.39
382.376	8.79
382.584	9.36
382.791	7.79
382.999	6.94
383.207	8.09
383.415	6.34
383.623	7.47
383.831	8.4
384.039	8.53
384.247	8.69
384.454	7.47
384.662	6.43
384.87	6.13
385.078	5.74
385.285	4.97
385.493	4.94
385.701	6.32
385.909	5.96
386.116	5.42
386.324	5.6
386.532	5.04
386.739	7
386.947	7.67
387.155	7.98
387.362	9.42
387.57	10.22
387.778	10.58
387.985	9.53
388.193	9.78
388.4	9.44
388.608	10.72
388.816	10.11
389.023	11.05
389.231	10.39
389.438	10.96
389.646	11.04
389.853	10.95
390.061	10.36
390.268	10.78
390.475	10.12
390.683	9.34
390.89	7.39
391.098	8.63
391.305	7.94
391.512	8.2
391.72	7.81
391.927	7.14
392.135	8.25
392.342	8.11
392.549	7.63
392.756	7.13
392.964	8.23
393.171	8.55
393.378	8.1
393.586	8.43
393.793	8.2
394	7.29
394.207	6.39
394.414	5.76
394.622	5.98
394.829	5.65
395.036	6.82
395.243	6.05
395.45	5.06
395.657	5.25
395.864	4.46
396.072	4.78
396.279	5.47
396.486	5.95
396.693	6.04
396.9	5.94
397.107	7.6
397.314	8.97
397.521	9.27
397.728	9.48
397.935	9.39
398.142	9.68
398.349	8.81
398.556	9.23
398.763	8.16
398.97	8.6
399.177	8.54
399.383	8.65
399.59	6.66
399.797	6.03
400.004	6.82
400.211	7.09
400.418	7.07
400.625	7.43
400.831	6.9
401.038	8.8
401.245	9.53
401.452	9.67
401.658	10.02
401.865	10.39
402.072	10.8
402.279	10.77
402.485	9.82
402.692	9.77
402.899	9.57
403.105	9.07
403.312	8.89
403.519	7.09
403.725	6.8
403.932	6.13
404.138	6.66
404.345	6.65
404.552	6.26
404.758	6.05
404.965	6.44
405.171	7.53
405.378	8.9
405.584	8.66
405.791	8.94
405.997	9.53
406.204	9.76
406.41	9.73
406.617	9.66
406.823	9.61
407.029	10.47
407.236	9.03
407.442	8.17
407.649	6.73
407.855	7.19
408.061	7.78
408.268	6.54
408.474	5.77
408.68	5.62
408.887	5.57
409.093	5.24
409.299	5.39
409.505	6.2
409.712	6.65
409.918	6.21
410.124	6.48
410.33	6.04
410.537	6.47
410.743	6.8
410.949	7.1
411.155	6.94
411.361	7.54
411.567	7.42
411.773	7.68
411.98	7.28
412.186	8.44
412.392	6.48
412.598	7.52
412.804	7.27
413.01	7.32
413.216	6.29
413.422	6.6
413.628	7.63
413.834	7.32
414.04	7.04
414.246	7.11
414.452	7
414.658	7.88
414.864	6.92
415.07	7.66
415.275	8.44
415.481	9.1
415.687	9.49
415.893	8.88
416.099	8.65
416.305	8.5
416.511	8.55
416.716	8.63
416.922	8.57
417.128	9.23
417.334	9.28
417.539	9.06
417.745	8.77
417.951	8.08
418.157	8.05
418.362	8.36
418.568	8.19
418.774	7.76
418.979	7.74
419.185	7.62
419.391	7.1
419.596	7.02
419.802	6.74
420.008	7
420.213	6.77
420.419	7.07
420.624	6.66
420.83	6.84
421.035	6.88
421.241	6.65
421.446	6.76
421.652	7.21
421.857	7.05
422.063	6.95
422.268	6.9
422.474	7.47
422.679	7.47
422.885	7.42
423.09	7.46
423.295	7.97
423.501	8.1
423.706	8.38
423.911	7.93
424.117	8.2
424.322	7.87
424.527	7.88
424.733	8.03
424.938	7.31
425.143	7.67
425.349	8.21
425.554	7.83
425.759	8.23
425.964	7.76
426.169	8.52
426.375	7.69
426.58	7.82
426.785	7.94
426.99	7.58
427.195	8.1
427.4	7.97
427.605	7.38
427.811	8.16
428.016	7.51
428.221	8.09
428.426	7.29
428.631	8.08
428.836	8.7
429.041	8.12
429.246	8.73
429.451	8.72
429.656	9.08
429.861	10.08
430.066	9.95
430.271	9.44
430.476	9.41
430.681	9.36
430.886	8.79
431.09	8.36
431.295	8.51
431.5	8.58
431.705	8.54
431.91	8
432.115	7.24
432.32	6.77
432.524	7.06
432.729	7.22
432.934	7.86
433.139	7.85
433.343	8.02
433.548	7.57
433.753	7.57
433.958	7.98
434.162	8.25
434.367	8.15
434.572	8.05
434.776	8.16
434.981	7.72
435.186	7.4
435.39	7.75
435.595	8.48
435.799	9.4
436.004	8.73
436.209	7.76
436.413	8.3
436.618	8.27
436.822	7.56
437.027	8.05
437.231	8.07
437.436	8.09
437.64	8.06
437.845	7.58
438.049	7.17
438.253	7.54
438.458	7.49
438.662	7.51
438.867	7.07
439.071	7.72
439.275	7.4
439.48	7.27
439.684	7.11
439.888	6.75
440.093	6.87
440.297	7.09
440.501	7.09
440.706	7.48
440.91	7.06
441.114	7.49
441.318	7.9
441.523	8.24
441.727	8.14
441.931	8.23
442.135	8.71
442.339	8.85
442.543	8.64
442.748	8.22
442.952	8.28
443.156	8.23
443.36	8
443.564	7.38
443.768	7.19
443.972	7.12
444.176	7.15
444.38	7.18
444.584	6.68
444.788	6.66
444.992	7.21
445.196	7.19
445.4	7.42
445.604	7.31
445.808	7.5
446.012	7
446.216	7.35
446.42	7.33
446.624	7.09
446.828	7.69
447.032	7.51
447.235	7.55
447.439	7.42
447.643	7.23
447.847	7.67
448.051	7.43
448.254	8.05
448.458	7.89
448.662	7.79
448.866	8.33
449.069	7.39
449.273	7.97
449.477	7.59
449.681	8.13
449.884	8.28
450.088	8.18
450.292	8.75
450.495	8.93
450.699	9.11
450.902	8.62
451.106	7.79
451.31	8.33
451.513	8.42
451.717	8.46
451.92	7.36
452.124	7.06
452.327	6.87
452.531	6.82
452.734	6.43
452.938	6.25
453.141	6.56
453.345	7.3
453.548	7.31
453.752	7.15
453.955	6.64
454.158	7.36
454.362	7.55
454.565	7.95
454.769	7.49
454.972	7.15
455.175	6.54
455.379	6.55
455.582	6.25
455.785	5.98
455.988	5.11
456.192	5.34
456.395	5.24
456.598	5.46
456.801	4.93
457.005	5
457.208	5
457.411	6.31
457.614	6.2
457.817	5.81
458.021	5.56
458.224	6.21
458.427	6.12
458.63	6.45
458.833	6.35
459.036	6.71
459.239	6.96
459.442	7.33
459.645	6.75
459.848	6.72
460.051	7.06
460.254	7.62
460.457	7.07
460.66	7.06
460.863	6.97
461.066	6.64
461.269	6.81
461.472	6.72
461.675	6.84
461.878	7.38
462.081	8.35
462.284	8.14
462.486	8.05
462.689	8.16
462.892	8.7
463.095	8.81
463.298	9.18
463.5	8.9
463.703	8.64
463.906	8.65
464.109	8.4
464.311	7.42
464.514	7.47
464.717	7.77
464.92	8
465.122	7.8
465.325	7.57
465.528	7.97
465.73	7.31
465.933	7.2
466.135	7.23
466.338	7.36
466.541	7.95
466.743	8.21
466.946	7.16
467.148	7.45
467.351	7.42
467.553	7.24
467.756	6.44
467.958	7.25
468.161	7.1
468.363	7.47
468.566	6.61
468.768	6.82
468.971	6.84
469.173	7.55
469.375	7.53
469.578	7.67
469.78	7.93
469.983	8.61
470.185	8.75
470.387	9.25
470.59	8.67
470.792	8.2
470.994	7.93
471.196	7.66
471.399	7.69
471.601	7.36
471.803	7.5
472.005	7.16
472.208	7.23
472.41	6.2
472.612	6.01
472.814	6.32
473.016	7.15
473.218	7.1
473.421	7.58
473.623	7.8
473.825	7.55
474.027	6.95
474.229	6.97
474.431	6.4
474.633	6.87
474.835	6.97
475.037	6.27
475.239	5.94
475.441	5.98
475.643	5.88
475.845	5.96
476.047	6.23
476.249	6.25
476.451	6.41
476.653	6.24
476.855	6.46
477.057	6.89
477.258	7.54
477.46	8.07
477.662	7.8
477.864	8.03
478.066	7.88
478.268	8.27
478.469	9.13
478.671	8.99
478.873	9.09
479.075	8.81
479.276	8.7
479.478	8.52
479.68	8.52
479.882	8.36
480.083	7.88
480.285	7.81
480.487	7.52
480.688	7.06
480.89	7.06
481.091	7.25
481.293	7.36
481.495	7.3
481.696	7.26
481.898	7.02
482.099	7.01
482.301	7.04
482.502	6.98
482.704	6.98
482.905	6.93
483.107	6.97
483.308	6.94
483.51	6.97
483.711	6.8
483.913	6.68
484.114	6.83
484.315	6.85
484.517	6.83
484.718	6.78
484.92	6.72
485.121	6.62
485.322	6.68
485.524	6.52
485.725	6.45
485.926	6.58
486.127	6.76
486.329	6.64
486.53	6.7
486.731	6.77
486.932	7.12
487.134	7.24
487.335	7.27
487.536	7.3
487.737	7.46
487.938	7.31
488.139	7.46
488.341	7.56
488.542	7.97
488.743	7.99
488.944	8.07
489.145	7.68
489.346	7.82
489.547	7.78
489.748	7.47
489.949	7.58
490.15	7.67
490.351	7.46
490.552	7.27
490.753	7
490.954	6.76
491.155	6.58
491.356	6.7
491.557	6.36
491.758	6.54
491.959	6.76
492.159	6.58
492.36	6.5
492.561	6.56
492.762	6.37
492.963	6.11
493.164	6.42
493.364	6.65
493.565	6.5
493.766	6.72
493.967	6.65
494.167	6.88
494.368	6.96
494.569	6.87
494.769	7.2
494.97	7.36
495.171	7.8
495.371	8.2
495.572	8.15
495.773	8.13
495.973	8.15
496.174	8.07
496.375	7.91
496.575	8.06
496.776	8.68
496.976	8.13
497.177	8.28
497.377	8.04
497.578	7.79
497.778	7.87
497.979	7.84
498.179	7.88
498.38	7.83
498.58	7.8
498.78	7.73
498.981	7.58
499.181	7.75
499.382	8.23
499.582	8.24
499.782	8.1
499.983	7.69
500.183	7.85
500.383	7.5
500.584	8.03
500.784	7.71
500.984	7.65
501.184	7.39
501.385	7.49
501.585	6.86
501.785	7.03
501.985	7.3
502.185	7.63
502.386	7.91
502.586	8.29
502.786	7.99
502.986	8.22
503.186	8.1
503.386	8.01
503.586	8
503.786	7.65
503.987	7.05
504.187	7.24
504.387	7.42
504.587	6.55
504.787	6.39
504.987	6.59
505.187	6.78
505.387	7.17
505.587	6.88
505.786	6.98
505.986	7.56
506.186	7.93
506.386	7.84
506.586	7.87
506.786	8.28
506.986	8.18
507.186	8.21
507.386	8.41
507.585	8.65
507.785	9.05
507.985	9.43
508.185	9.32
508.384	9.63
508.584	9.46
508.784	9.07
508.984	9.27
509.183	9.33
509.383	8.96
509.583	8.44
509.782	8.32
509.982	9.14
510.182	8.51
510.381	7.92
510.581	7.77
510.781	7.69
510.98	8.22
511.18	8.04
511.379	7.83
511.579	7.61
511.778	8.32
511.978	8.04
512.177	7.39
512.377	7.78
512.576	8.66
512.776	8.84
512.975	8.95
513.175	8.93
513.374	9.21
513.573	9.61
513.773	10.44
513.972	9.8
514.172	9.82
514.371	10.21
514.57	10.51
514.77	10.38
514.969	10.21
515.168	10.08
515.367	10.43
515.567	10.53
515.766	10.67
515.965	10.6
516.164	11.18
516.364	10.96
516.563	10.7
516.762	10.44
516.961	10.32
517.16	10.43
517.359	10.47
517.559	9.59
517.758	9.47
517.957	9.17
518.156	8.81
518.355	8.85
518.554	9.08
518.753	8.73
518.952	8.44
519.151	8.46
519.35	8.55
519.549	8.56
519.748	9.18
519.947	8.97
520.146	9.67
520.345	9.99
520.544	9.97
520.743	10.22
520.942	10.83
521.141	10.98
521.339	11.29
521.538	11.57
521.737	11.79
521.936	11.5
522.135	11.79
522.333	11.22
522.532	11.49
522.731	11.52
522.93	11.44
523.129	11.43
523.327	11.37
523.526	11.45
523.725	11.49
523.923	11.91
524.122	12.24
524.321	12.53
524.519	12.67
524.718	12.75
524.917	12.35
525.115	12.27
525.314	12.18
525.512	12.44
525.711	12.79
525.909	12.68
526.108	12.43
526.306	12.16
526.505	11.75
526.703	11.98
526.902	12.07
527.1	12.28
527.299	12.41
527.497	12.6
527.696	12.54
527.894	12.41
528.092	12.36
528.291	12.44
528.489	12.63
528.688	12.83
528.886	13.08
529.084	13.01
529.283	12.97
529.481	12.83
529.679	12.69
529.877	12.93
530.076	12.95
530.274	13.06
530.472	13.18
530.67	13.63
530.869	13.62
531.067	13.38
531.265	13.43
531.463	13.79
531.661	14.21
531.859	14.43
532.057	14.65
532.255	14.54
532.454	14.51
532.652	14.37
532.85	13.86
533.048	14.1
533.246	14.42
533.444	14.37
533.642	14.35
533.84	13.96
534.038	13.89
534.236	13.65
534.434	14.03
534.632	14.21
534.83	14.4
535.027	14.85
535.225	14.86
535.423	14.68
535.621	14.9
535.819	14.74
536.017	14.75
536.215	14.8
536.412	14.88
536.61	15.03
536.808	15.23
537.006	15.41
537.203	15.54
537.401	15.76
537.599	15.74
537.797	15.86
537.994	16.11
538.192	16.83
538.39	16.99
538.587	17.2
538.785	17.18
538.983	16.87
539.18	16.9
539.378	16.88
539.575	17.16
539.773	17.05
539.97	17.24
540.168	17.27
540.366	16.99
540.563	16.8
540.761	16.78
540.958	16.85
541.155	17.31
541.353	17.35
541.55	17.41
541.748	17.16
541.945	17.56
542.143	17.61
542.34	17.91
542.537	18.35
542.735	18.8
542.932	19.19
543.129	19.19
543.327	19.24
543.524	19.69
543.721	19.93
543.919	20.15
544.116	19.98
544.313	19.72
544.51	19.5
544.708	19.5
544.905	19.66
545.102	19.97
545.299	20.33
545.496	20.47
545.693	20.27
545.891	20.23
546.088	20.41
546.285	20.95
546.482	21.74
546.679	21.94
546.876	22.19
547.073	22.05
547.27	21.64
547.467	21.63
547.664	21.51
547.861	21.65
548.058	21.77
548.255	22.18
548.452	22.02
548.649	21.67
548.846	21.89
549.043	21.81
549.24	21.7
549.437	21.81
549.633	21.8
549.83	22.06
550.027	22
550.224	22.69
550.421	22.88
550.618	22.46
550.814	22.4
551.011	22.82
551.208	23.13
551.405	23.25
551.601	23.93
551.798	24.08
551.995	24.26
552.191	24.85
552.388	24.76
552.585	24.65
552.781	25.21
552.978	25.16
553.175	25.38
553.371	25.37
553.568	25.96
553.764	25.74
553.961	25.93
554.157	25.6
554.354	25.64
554.55	25.21
554.747	24.83
554.943	25.03
555.14	26.18
555.336	25.68
555.533	26.27
555.729	26.52
555.926	25.87
556.122	25.78
556.318	25.97
556.515	25.49
556.711	26.27
556.907	26.29
557.104	26.16
557.3	25.24
557.496	26.15
557.693	25.9
557.889	25.7
558.085	26.25
558.281	26.49
558.478	26.91
558.674	27.63
558.87	27.65
559.066	28.61
559.262	29.05
559.459	29.62
559.655	29.2
559.851	29.14
560.047	29.2
560.243	29.27
560.439	29.62
560.635	29.68
560.831	29.48
561.027	29.42
561.223	29.17
561.419	29.28
561.615	28.84
561.811	28.94
562.007	29.51
562.203	29.83
562.399	29.89
562.595	29.35
562.791	28.75
562.987	29.16
563.183	28.93
563.379	28.83
563.575	28.76
563.771	29.2
563.966	29.05
564.162	29
564.358	28.65
564.554	29.11
564.75	29.56
564.945	30.57
565.141	30.22
565.337	30.69
565.533	30.71
565.728	30.64
565.924	30.51
566.12	31.06
566.315	31.31
566.511	32.64
566.707	32.64
566.902	32.58
567.098	31.95
567.293	32.36
567.489	31.84
567.684	32.37
567.88	32.41
568.076	31.91
568.271	31.61
568.467	31.2
568.662	29.97
568.858	29.85
569.053	29.39
569.248	29.47
569.444	29.27
569.639	29.67
569.835	29.4
570.03	28.9
570.225	29.73
570.421	30.14
570.616	29.95
570.812	30.4
571.007	30.69
571.202	31.41
571.397	31.69
571.593	31.84
571.788	32.07
571.983	31.8
572.178	32.55
572.374	32.34
572.569	31.53
572.764	31.7
572.959	31.38
573.154	31.75
573.35	31.77
573.545	31.6
573.74	31.52
573.935	31.35
574.13	32.39
574.325	32.02
574.52	32
574.715	32.42
574.91	33.26
575.105	33.82
575.3	32.77
575.495	32.41
575.69	33.17
575.885	33.07
576.08	33.55
576.275	33.56
576.47	34.07
576.665	34.3
576.86	34.64
577.055	34.32
577.25	34.2
577.444	35.23
577.639	35.62
577.834	35.46
578.029	35.93
578.224	36.73
578.418	36.77
578.613	36.99
578.808	37.36
579.003	37.09
579.197	36.68
579.392	36.24
579.587	36.2
579.781	36.59
579.976	36.77
580.171	37.13
580.365	35.79
580.56	35.52
580.755	34.97
580.949	35.22
581.144	35.8
581.338	36.09
581.533	37.28
581.727	37.62
581.922	37.17
582.116	37.47
582.311	37.31
582.505	37.88
582.7	38.04
582.894	39.27
583.089	38.95
583.283	39.8
583.478	40.53
583.672	40.29
583.866	39.88
584.061	40.75
584.255	40.64
584.449	40.68
584.644	41.26
584.838	41.29
585.032	41.38
585.226	41.59
585.421	41.54
585.615	41.01
585.809	40.98
586.003	40.94
586.198	40.64
586.392	39.89
586.586	39.78
586.78	39.89
586.974	40.05
587.168	39.09
587.363	39.79
587.557	39.39
587.751	39.43
587.945	39.22
588.139	39.26
588.333	38.76
588.527	38.69
588.721	38.97
588.915	38.71
589.109	38.14
589.303	38.84
589.497	38.57
589.691	38.21
589.885	38.32
590.079	38.03
590.273	37.42
590.466	37.01
590.66	37.44
590.854	37.68
591.048	37.68
591.242	38.12
591.436	37.98
591.629	37.76
591.823	38.17
592.017	37.4
592.211	37.97
592.404	39.01
592.598	39.81
592.792	39.61
592.986	39.52
593.179	39.55
593.373	38.69
593.567	38.2
593.76	38.15
593.954	37.51
594.147	37.6
594.341	37.28
594.535	37.26
594.728	37.19
594.922	37.32
595.115	36.9
595.309	37.12
595.502	37.69
595.696	37.58
595.889	37.5
596.083	37.62
596.276	38.33
596.47	38.35
596.663	38.27
596.856	38.66
597.05	38.91
597.243	38.86
597.437	38.39
597.63	38.17
597.823	38.73
598.017	39.63
598.21	40.02
598.403	39.61
598.596	40.05
598.79	39.76
598.983	39.66
599.176	39.85
599.369	40.71
599.563	40.78
599.756	41.61
599.949	41.74
600.142	40.98
600.335	40.66
600.528	41.66
600.722	41.74
600.915	42.6
601.108	42.62
601.301	42.55
601.494	41.92
601.687	42.67
601.88	42.61
602.073	42.37
602.266	42.63
602.459	42.7
602.652	41.74
602.845	41.56
603.038	40.81
603.231	40.29
603.424	40.29
603.617	40.64
603.809	40.18
604.002	39.98
604.195	40.45
604.388	39.91
604.581	39.31
604.774	39.82
604.966	39.64
605.159	40.28
605.352	41.17
605.545	42.1
605.737	42.04
605.93	42.39
606.123	42.49
606.316	41.89
606.508	42.47
606.701	42.93
606.894	42.29
607.086	42.78
607.279	42.69
607.471	42.1
607.664	41.67
607.857	41.65
608.049	41.98
608.242	41.56
608.434	42.6
608.627	42.18
608.819	42.87
609.012	43.4
609.204	43
609.397	43.38
609.589	43.64
609.782	43.6
609.974	43.98
610.166	43.81
610.359	43.92
610.551	43.76
610.743	44.9
610.936	45.34
611.128	46.41
611.32	47.1
611.513	47.21
611.705	47.6
611.897	47.38
612.09	47.44
612.282	46.91
612.474	47.39
612.666	47.85
612.858	47.91
613.051	47.64
613.243	47.38
613.435	47.19
613.627	47.27
613.819	47.84
614.011	47.65
614.203	48.57
614.395	48.48
614.588	49.3
614.78	49.16
614.972	49.42
615.164	49.77
615.356	49.12
615.548	49.97
615.74	49.32
615.932	49.58
616.124	49.39
616.315	49.25
616.507	50.03
616.699	48.94
616.891	49.25
617.083	49.55
617.275	50.42
617.467	51.12
617.659	51.31
617.85	51.59
618.042	50.34
618.234	51.1
618.426	51.44
618.618	51.69
618.809	52.76
619.001	51.79
619.193	51.8
619.384	49.95
619.576	49.24
619.768	48.76
619.959	48.79
620.151	49.62
620.343	49.46
620.534	48.55
620.726	48.33
620.917	48.14
621.109	49.17
621.301	48.88
621.492	50.85
621.684	51.9
621.875	51.62
622.067	52.58
622.258	52.39
622.45	52.75
622.641	51.77
622.832	51.9
623.024	51.57
623.215	50.66
623.407	50.4
623.598	49.77
623.789	49.15
623.981	49.09
624.172	48.83
624.363	48.21
624.555	48.23
624.746	49.14
624.937	48.23
625.129	48.09
625.32	48.57
625.511	48.9
625.702	48.14
625.893	48.08
626.085	48.14
626.276	47.81
626.467	48.08
626.658	47.8
626.849	47.39
627.04	48.02
627.231	48.41
627.422	48.31
627.614	47.94
627.805	48.18
627.996	47.67
628.187	47.95
628.378	48.07
628.569	49.17
628.76	49.26
628.951	50.01
629.142	51.01
629.332	51.08
629.523	50.93
629.714	50.44
629.905	50.99
630.096	51.78
630.287	51.73
630.478	51.38
630.669	49.94
630.859	49.52
631.05	49.64
631.241	48.8
631.432	49.52
631.623	49.23
631.813	50.36
632.004	49.98
632.195	49.45
632.385	49.75
632.576	49.86
632.767	50.4
632.957	51.33
633.148	51.66
633.339	52.05
633.529	51.68
633.72	51.4
633.91	50.26
634.101	49.84
634.292	50.6
634.482	50.72
634.673	50.94
634.863	50.83
635.054	50.6
635.244	50.74
635.435	50.31
635.625	51.28
635.815	53.02
636.006	54.26
636.196	55.01
636.387	55.18
636.577	55.68
636.767	55.5
636.958	56.54
637.148	56.47
637.338	55.92
637.529	56.41
637.719	56.5
637.909	56.76
638.099	56.54
638.29	56.99
638.48	57.53
638.67	56.88
638.86	58.5
639.05	58.78
639.241	59.07
639.431	58.49
639.621	58.03
639.811	57.24
640.001	56.84
640.191	55.97
640.381	56.7
640.571	57.44
640.761	57.41
640.951	56.74
641.141	56.27
641.331	56.44
641.521	56.99
641.711	58.52
641.901	59.21
642.091	58.59
642.281	60.52
642.471	60.39
642.661	59.44
642.851	59.87
643.041	60.17
643.231	60.22
643.42	60.26
643.61	60.48
643.8	59.04
643.99	59.05
644.18	58.64
644.369	57.22
644.559	56.75
644.749	56.36
644.939	56.86
645.128	56.09
645.318	55.84
645.508	55.67
645.697	56.03
645.887	56.49
646.076	55.2
646.266	55.5
646.456	55.61
646.645	54.78
646.835	55.43
647.024	54.5
647.214	54.71
647.403	55.29
647.593	54.39
647.782	54.08
647.972	53.25
648.161	54.11
648.351	53.81
648.54	54.76
648.73	55.3
648.919	54.88
649.108	55.35
649.298	55.68
649.487	54.56
649.677	55.03
649.866	55.53
650.055	56.32
650.244	56.49
650.434	57.58
650.623	56.86
650.812	57.15
651.002	56.75
651.191	57.07
651.38	57.46
651.569	57.63
651.758	58.22
651.947	58.98
652.137	58.92
652.326	57.87
652.515	57.86
652.704	57.69
652.893	56.63
653.082	56.8
653.271	57.22
653.46	56.29
653.649	57.35
653.838	57.56
654.027	57.58
654.216	57.34
654.405	57.99
654.594	57.7
654.783	57.83
654.972	58.75
655.161	58.28
655.35	57.01
655.539	57.82
655.728	56.51
655.916	56.19
656.105	54.79
656.294	55.57
656.483	55.62
656.672	54.45
656.86	54.44
657.049	53.69
657.238	53.71
657.427	54.08
657.615	53.17
657.804	52.63
657.993	52.73
658.181	52.39
658.37	52.34
658.559	52.38
658.747	53.45
658.936	53.43
659.125	53.74
659.313	54.76
659.502	55.57
659.69	56.64
659.879	58.77
660.067	58.7
660.256	59.76
660.444	59.68
660.633	59.85
660.821	60.53
661.01	62.09
661.198	62.97
661.387	62.26
661.575	62.03
661.763	62.08
661.952	61.88
662.14	63.11
662.328	63.1
662.517	63.91
662.705	64.92
662.893	64.17
663.082	63.09
663.27	62.86
663.458	63.17
663.646	62.97
663.834	62.85
664.023	61.93
664.211	61.21
664.399	61.88
664.587	60.53
664.775	58.73
664.963	59.65
665.152	60.19
665.34	60.1
665.528	60.96
665.716	61.99
665.904	62.07
666.092	61.66
666.28	63.47
666.468	63
666.656	64.48
666.844	66.38
667.032	65.31
667.22	64.94
667.408	65.96
667.596	65.15
667.784	65.22
667.971	65.75
668.159	65.93
668.347	63.94
668.535	64.03
668.723	62.4
668.911	62.61
669.098	62.6
669.286	62.31
669.474	62
669.662	63.88
669.849	64.76
670.037	63.59
670.225	64.27
670.413	65.1
670.6	63.56
670.788	63.66
670.976	62.24
671.163	63.26
671.351	64.2
671.538	62.94
671.726	61.38
671.913	61.36
672.101	61.96
672.289	61.48
672.476	61.18
672.664	63.74
672.851	65
673.039	66.55
673.226	67.12
673.413	65.96
673.601	68.39
673.788	68.72
673.976	66.7
674.163	66.47
674.35	66.29
674.538	65.9
674.725	65.69
674.912	65.76
675.1	64.79
675.287	63.75
675.474	65.03
675.662	64.02
675.849	63.74
676.036	64.32
676.223	64.87
676.411	66.26
676.598	66.95
676.785	66.26
676.972	65.69
677.159	65.06
677.346	66.13
677.533	65.16
677.721	65.04
677.908	64.01
678.095	63.66
678.282	62.35
678.469	61.19
678.656	62.42
678.843	62.89
679.03	62.79
679.217	63.19
679.404	62.1
679.591	61.69
679.778	61.2
679.964	61.88
680.151	61.95
680.338	63.07
680.525	64.33
680.712	62.85
680.899	62.71
681.086	62.59
681.272	62.87
681.459	62.96
681.646	63.94
681.833	63.99
682.02	63.01
682.206	62.85
682.393	61.49
682.58	61.44
682.766	61.48
682.953	61.68
683.14	62.68
683.326	62.17
683.513	62.28
683.7	62.94
683.886	64.12
684.073	65.37
684.259	64.62
684.446	65.53
684.632	65.42
684.819	65.75
685.005	63.8
685.192	62.79
685.378	63.35
685.565	62.58
685.751	61.19
685.938	59.89
686.124	60.19
686.31	60.35
686.497	61.12
686.683	61.25
686.87	62.1
687.056	63.98
687.242	63.92
687.429	64.39
687.615	66
687.801	65.8
687.987	65.97
688.174	64.75
688.36	65.54
688.546	65.66
688.732	63.37
688.918	62.56
689.105	61.82
689.291	61.42
689.477	59.73
689.663	57.36
689.849	57.21
690.035	56.82
690.221	57.8
690.407	59.63
690.593	59.06
690.779	60.89
690.965	60.62
691.151	61.57
691.337	63.38
691.523	62.43
691.709	65.24
691.895	66.94
692.081	68.72
692.267	67.86
692.453	65.71
692.639	65.42
692.825	64.33
693.011	65.49
693.196	64.08
693.382	64.39
693.568	65.63
693.754	65.03
693.94	64.4
694.125	65.01
694.311	65.81
694.497	66.7
694.682	66.97
694.868	68.43
695.054	66.1
695.239	69.28
695.425	68.15
695.611	68.49
695.796	68.32
695.982	66.1
696.168	64.09
696.353	63.15
696.539	61.38
696.724	61.23
696.91	57.98
697.095	57.94
697.281	55.07
697.466	54.41
697.652	54.78
697.837	53.55
698.023	55.23
698.208	54.58
698.393	55.55
698.579	56.51
698.764	56.79
698.949	57.78
699.135	58.41
699.32	58.92
699.505	59
699.691	59.59
699.876	61.44
700.061	60.03
700.246	61.54
700.432	61.06
700.617	61.23
700.802	60.83
700.987	64.06
701.172	67.3
701.358	68.3
701.543	69.56
701.728	69.5
701.913	67.72
702.098	68.41
702.283	68.05
702.468	70.66
702.653	70.31
702.838	73.22
703.023	73.28
703.208	69.46
703.393	70.66
703.578	71.37
703.763	70.61
703.948	71.42
704.133	72.38
704.318	74.48
704.503	73.21
704.688	74.92
704.873	73.84
705.057	74.96
705.242	76.28
705.427	75.87
705.612	76.68
705.797	78.11
705.981	79.79
706.166	80.81
706.351	80.89
706.536	79.86
706.72	77.31
706.905	75.33
707.09	75.48
707.274	73.85
707.459	73.25
707.644	71.22
707.828	69.45
708.013	69.21
708.197	69.19
708.382	66.9
708.567	68.59
708.751	72.09
708.936	73.63
709.12	74.11
709.305	76.75
709.489	78.37
709.673	78.99
709.858	79.16
710.042	78.28
710.227	77.99
710.411	79.33
710.596	78.05
710.78	77.79
710.964	78.28
711.149	75.84
711.333	74.01
711.517	74.6
711.702	76.44
711.886	76.37
712.07	77.13
712.254	76.63
712.438	77
712.623	76.59
712.807	74.56
712.991	74.24
713.175	73.16
713.359	74.03
713.544	72.09
713.728	70.26
713.912	69.4
714.096	70.25
714.28	69.76
714.464	68.22
714.648	68.31
714.832	67.66
715.016	65.81
715.2	66.08
715.384	65.45
715.568	64.4
715.752	66.06
715.936	66.26
716.12	63.29
716.304	62.58
716.488	63.49
716.671	62.83
716.855	62.25
717.039	62.32
717.223	61.95
717.407	61.36
717.59	60.79
717.774	56.32
717.958	57.17
718.142	58.79
718.325	60.32
718.509	58.82
718.693	59.92
718.877	62.01
719.06	65.17
719.244	68.99
719.428	70.15
719.611	74.32
719.795	76.93
719.978	76.75
720.162	76.56
720.345	78.97
720.529	81.86
720.713	78.91
720.896	79.44
721.08	80.34
721.263	77
721.446	78.2
721.63	73.79
721.813	73.01
721.997	72.51
722.18	72.94
722.364	71.11
722.547	69.7
722.73	69.73
722.914	65.82
723.097	61.23
723.28	62.43
723.464	56.04
723.647	58.39
723.83	61.43
724.013	61.99
724.197	61.43
724.38	59.55
724.563	59.23
724.746	62.08
724.929	64.46
725.112	65.73
725.296	64.17
725.479	67.22
725.662	63.85
725.845	62.08
726.028	61.37
726.211	61.89
726.394	61.13
726.577	59.39
726.76	58.75
726.943	57.89
727.126	57.89
727.309	59.28
727.492	60.44
727.675	61.08
727.858	61.81
728.041	63.71
728.224	62.51
728.407	65.47
728.589	69.98
728.772	68.37
728.955	69.27
729.138	69.55
729.321	71.07
729.503	71.69
729.686	73.97
729.869	73
730.052	72.88
730.234	74.55
730.417	75.08
730.6	73.42
730.782	73.89
730.965	74.62
731.148	75.41
731.33	73.85
731.513	75.93
731.695	75.62
731.878	75.57
732.061	73.81
732.243	74.65
732.426	73.08
732.608	73.55
732.791	77.06
732.973	76.41
733.156	74.76
733.338	76.66
733.52	72.82
733.703	75.68
733.885	77.9
734.068	81.42
734.25	79.77
734.432	83.17
734.615	83.67
734.797	81.55
734.979	85.46
735.162	85.84
735.344	85.63
735.526	87.5
735.708	85.81
735.891	86.36
736.073	84.49
736.255	87.67
736.437	86.64
736.619	87.34
736.802	87.14
736.984	84.49
737.166	85.07
737.348	85.11
737.53	86.09
737.712	86.96
737.894	84.71
738.076	87.44
738.258	88.09
738.44	89.58
738.622	92.68
738.804	95.85
738.986	100.49
739.168	101.26
739.35	99.36
739.532	98.37
739.714	101.39
739.896	102.6
740.078	100.81
740.259	99.69
740.441	96.49
740.623	95.77
740.805	94.69
740.987	92.05
741.168	92.31
741.35	96.95
741.532	97.04
741.714	95.61
741.895	100.16
742.077	100.58
742.259	99.36
742.44	103.79
742.622	100.58
742.804	100.7
742.985	103.88
743.167	108.52
743.348	106.22
743.53	110.02
743.711	107.77
743.893	103.35
744.075	104.41
744.256	104.51
744.438	107.08
744.619	107.88
744.8	110.25
744.982	110.12
745.163	109.53
745.345	109.98
745.526	109.04
745.707	112.62
745.889	117.43
746.07	117.75
746.252	119.23
746.433	113.57
746.614	114.16
746.795	112.02
746.977	112.04
747.158	109.7
747.339	105.07
747.52	107.64
747.702	104.44
747.883	101.52
748.064	100.19
748.245	101.57
748.426	100.4
748.607	99.19
748.788	103.11
748.97	107.65
749.151	108.15
749.332	108.15
749.513	111.34
749.694	112.64
749.875	111.97
750.056	113.23
750.237	117.84
750.418	119.92
750.599	120.06
750.78	115.95
750.96	109.4
751.141	115.02
751.322	122.21
751.503	117.65
751.684	119.69
751.865	122.67
752.046	122.8
752.226	117.18
752.407	120.57
752.588	114.75
752.769	108.34
752.949	108.9
753.13	108.38
753.311	108.91
753.492	109.38
753.672	104.98
753.853	104.84
754.034	103.51
754.214	103.95
754.395	104.01
754.575	108.23
754.756	114.1
754.937	113.37
755.117	111.18
755.298	110.39
755.478	106.06
755.659	111.57
755.839	108.86
756.02	114.15
756.2	114.05
756.381	108.37
756.561	107.64
756.741	105.84
756.922	97.69
757.102	90.52
757.283	91.69
757.463	91.3
757.643	84.45
757.823	78.46
758.004	72.14
758.184	70.79
758.364	69.59
758.545	68.01
758.725	66.22
758.905	68.9
759.085	71.91
759.265	66.17
759.446	65.5
759.626	68.49
759.806	75.38
759.986	75.61
760.166	73.01
760.346	67.58
760.526	68.98
760.706	68.26
760.886	67.71
761.066	63.9
761.246	62.95
761.426	63.75
761.606	62.2
761.786	58.63
761.966	57.42
762.146	56
762.326	57.82
762.506	55.85
762.686	55.07
762.866	55.38
763.046	59.11
763.225	60.36
763.405	62.94
763.585	64.09
763.765	67.47
763.945	69.96
764.124	72.05
764.304	73.72
764.484	82.79
764.664	86.03
764.843	91.86
765.023	93.96
765.203	96.56
765.382	98.45
765.562	98.81
765.741	102.55
765.921	106.4
766.101	112.94
766.28	115.3
766.46	111.66
766.639	111.25
766.819	110.93
766.998	111.43
767.178	111.73
767.357	106.08
767.537	108.83
767.716	106.69
767.896	106.97
768.075	106.41
768.254	108.01
768.434	110.14
768.613	112.39
768.792	111.94
768.972	115.69
769.151	114.56
769.33	121.81
769.51	129.05
769.689	131.98
769.868	133.08
770.047	131.89
770.226	130.84
770.406	129.91
770.585	133.29
770.764	130.38
770.943	134.31
771.122	137.79
771.301	131.12
771.48	124.86
771.66	124.44
771.839	129.66
772.018	129.1
772.197	133.05
772.376	137.62
772.555	134.24
772.734	141.54
772.913	135.9
773.092	141.11
773.271	145.19
773.449	161.29
773.628	153.48
773.807	155.31
773.986	168.52
774.165	167.42
774.344	162.22
774.523	166.58
774.701	157.35
774.88	152.39
775.059	150.82
775.238	149.96
775.417	137.93
775.595	139.97
775.774	128.3
775.953	120.36
776.131	120.62
776.31	117.14
776.489	117.47
776.667	119.33
776.846	119.91
777.025	113.01
777.203	116.48
777.382	119.68
777.56	121.46
777.739	127.58
777.917	127.89
778.096	126.47
778.274	132.25
778.453	130.44
778.631	147.22
778.81	148.57
778.988	149.08
779.166	141.69
779.345	142.27
779.523	143.42
779.702	143.21
779.88	148.1
780.058	153.76
780.237	152.12
780.415	151.88
780.593	133.37
780.771	137.54
780.95	139.35
781.128	137.37
781.306	132.71
781.484	129.56
781.662	133.02
781.841	132.59
782.019	135.75
782.197	145.47
782.375	151.83
782.553	158.46
782.731	160.81
782.909	171.29
783.087	178.24
783.265	211.26
783.443	213.45
783.621	202.53
783.799	200.88
783.977	196.26
784.155	178.75
784.333	181.78
784.511	183.12
784.689	172.81
784.867	162.95
785.045	172.22
785.223	144.55
785.4	139.84
785.578	139.7
785.756	135.29
785.934	121.39
786.112	119.26
786.289	114.14
786.467	107.04
786.645	109.49
786.823	112.34
787	109.56
787.178	115.45
787.356	114.31
787.533	110.99
787.711	109.01
787.889	119.24
788.066	124.98
788.244	118.77
788.421	122.28
788.599	114.62
788.776	108.25
788.954	105.95
789.131	102.64
789.309	102.32
789.486	95.6
789.664	103
789.841	99.38
790.019	103.73
790.196	101.33
790.373	105.16
790.551	110.43
790.728	112.32
790.906	116.15
791.083	111.69
791.26	111.45
791.437	123.37
791.615	111.93
791.792	120.11
791.969	110.82
792.146	113.32
792.324	106.33
792.501	104.78
792.678	107.52
792.855	98.96
793.032	106.08
793.209	109.01
793.387	106.11
793.564	109.25
793.741	108.01
793.918	104.31
794.095	105.37
794.272	108.68
794.449	106.27
794.626	101.03
794.803	100.74
794.98	100.67
795.157	98.08
795.334	98.62
795.511	99.5
795.688	99.88
795.864	95.74
796.041	92.81
796.218	93.31
796.395	94.26
796.572	96.69
796.749	105.08
796.925	103.88
797.102	111.19
797.279	119.75
797.456	114.38
797.632	112.89
797.809	136.12
797.986	141.28
798.162	142.34
798.339	139.5
798.516	130.81
798.692	122.82
798.869	120.17
799.046	115.25
799.222	114.07
799.399	116.07
799.575	113.84
799.752	99.66
799.928	102.88
800.105	99.55
800.281	102.59
800.458	113.1
800.634	114.91
800.811	109.39
800.987	112.48
801.163	104.66
801.34	109.92
801.516	104.33
801.692	106.36
801.869	111.38
802.045	110.33
802.221	108.26
802.398	106.35
802.574	107.89
802.75	113.69
802.926	117.78
803.103	120.53
803.279	117.36
803.455	127.43
803.631	125.07
803.807	109.26
803.983	115.15
804.16	118.36
804.336	115.16
804.512	109.48
804.688	108.2
804.864	106.17
805.04	111.27
805.216	100.87
805.392	97.9
805.568	100.05
805.744	107.38
805.92	98.04
806.096	101.1
806.272	112.91
806.448	127.32
806.623	130.69
806.799	134.34
806.975	124.55
807.151	150.94
807.327	154.84
807.503	165.91
807.678	173.03
807.854	212.62
808.03	179.28
808.206	142
808.381	112.84
808.557	117.77
808.733	110.95
808.908	117.47
809.084	116.31
809.26	126.92
809.435	118.89
809.611	109.09
809.787	98.82
809.962	112.32
810.138	132.29
810.313	147.42
810.489	133.04
810.664	121.16
810.84	124.15
811.015	104.31
811.191	96.9
811.366	97.63
811.542	105.49
811.717	98.17
811.892	89.01
812.068	81.54
812.243	77.88
812.419	79.42
812.594	79.49
812.769	82.12
812.944	85.98
813.12	102.16
813.295	99
813.47	77.33
813.645	98.82
813.821	105.54
813.996	98.79
814.171	90.47
814.346	87.17
814.521	86.34
814.697	77.43
814.872	80.28
815.047	72.54
815.222	71.02
815.397	77.03
815.572	75.8
815.747	67.74
815.922	68.58
816.097	76.62
816.272	73.21
816.447	78.05
816.622	79.99
816.797	82.88
816.972	77.97
817.147	75.43
817.322	70.55
817.496	71.33
817.671	67.27
817.846	60.98
818.021	59.46
818.196	65.17
818.371	58.6
818.545	51.17
818.72	45.66
818.895	42.96
819.069	47.9
819.244	51.22
819.419	43.39
819.594	48.35
819.768	50.89
819.943	46.33
820.117	39.89
820.292	39.53
820.467	40.74
820.641	41.55
820.816	41.29
820.99	40.41
821.165	39.11
821.339	41.58
821.514	40.98
821.688	40.34
821.863	42.21
822.037	44.61
822.212	44.25
822.386	44.35
822.56	43.11
822.735	44.59
822.909	46.6
823.084	49.11
823.258	48.56
823.432	50.39
823.606	52.25
823.781	50.78
823.955	52.5
824.129	56.22
824.303	56.52
824.478	57.18
824.652	52.87
824.826	52.19
825	54.01
825.174	48.51
825.348	50.44
825.523	47.9
825.697	49.18
825.871	48.57
826.045	48.99
826.219	47.59
826.393	51.72
826.567	51.56
826.741	50.87
826.915	49.7
827.089	54.5
827.263	54.42
827.437	57.19
827.611	58.03
827.784	55.24
827.958	61.02
828.132	63.56
828.306	66.32
828.48	72.3
828.654	79.53
828.827	79.94
829.001	76.68
829.175	76.06
829.349	72.06
829.522	74.75
829.696	78.44
829.87	79.21
830.044	94.67
830.217	85.96
830.391	88.51
830.565	89.21
830.738	101.48
830.912	97.72
831.085	84.5
831.259	85.7
831.432	83.27
831.606	83.39
831.779	72.71
831.953	64.97
832.126	63.6
832.3	63.47
832.473	64.68
832.647	62.13
832.82	62.84
832.994	63.9
833.167	65.13
833.34	69.39
833.514	68.28
833.687	71.99
833.86	71.54
834.034	79.58
834.207	81.71
834.38	78.78
834.553	78.76
834.727	77.47
834.9	81.06
835.073	85.09
835.246	84.43
835.419	86.16
835.593	97.62
835.766	98.94
835.939	84.29
836.112	91.16
836.285	101.28
836.458	103.45
836.631	119.16
836.804	107.1
836.977	103.51
837.15	126.91
837.323	108.89
837.496	91.8
837.669	114.24
837.842	128.46
838.015	119.79
838.188	117.9
838.361	115.24
838.533	109.94
838.706	111.39
838.879	125.3
839.052	107.28
839.225	117.35
839.398	128.05
839.57	120.26
839.743	122.71
839.916	120.19
840.088	128.4
840.261	135.9
840.434	145.09
840.607	164.84
840.779	156.65
840.952	158.78
841.124	150.05
841.297	142.5
841.47	161.92
841.642	163.69
841.815	162.74
841.987	152.42
842.16	137.61
842.332	135.51
842.505	136.66
842.677	127.71
842.85	121.42
843.022	129.1
843.194	121.07
843.367	122.39
843.539	118.27
843.712	115.42
843.884	109.7
844.056	139.93
844.229	159.31
844.401	147.18
844.573	172.07
844.745	186.63
844.918	206.88
845.09	267.76
845.262	231.78
845.434	237.07
845.606	221.65
845.779	292.79
845.951	198.65
846.123	169.48
846.295	174.96
846.467	170.96
846.639	162.6
846.811	162.41
846.983	139.22
847.155	156.49
847.327	170.09
847.499	216.79
847.671	206.27
847.843	529.58
848.015	1703.23
848.187	-1077.78
848.359	1463.16
848.531	-970.37
848.703	15900
848.875	-609.57
849.047	958.51
849.218	367.11
849.39	342.28
849.562	283.92
849.734	231.86
849.905	386.29
850.077	402.06
850.249	345.74
850.421	1164.71
850.592	412.5
850.764	505.67
850.936	1848
851.107	7166.67
851.279	351.97
851.451	149.84
851.622	175
851.794	147.72
851.965	122.59
852.137	115.4
852.308	101.62
852.48	129.41
852.651	103.96
852.823	120.35
852.994	137.8
853.166	147.87
853.337	175.58
853.509	151.82
853.68	140.42
853.851	144.31
854.023	166.53
854.194	195.41
854.365	194.36
854.537	163.43
854.708	153.64
854.879	217.06
855.05	204.88
855.222	209.03
855.393	335
855.564	256.57
855.735	278.87
855.906	404.7
856.078	294.62
856.249	260.99
856.42	207.65
856.591	189.95
856.762	137.54
856.933	146.34
857.104	155.49
857.275	135.33
857.446	152.9
857.617	145.27
857.788	82.13
857.959	67.18
858.13	113.8
858.301	141.57
858.472	133.83
858.643	126.32
858.814	145.1
858.985	158.18
859.155	177.46
859.326	193.53
859.497	497.48
859.668	172.2
859.839	222.81
860.009	260.74
860.18	338.98
860.351	309.79
860.522	387.66
860.692	404.09
860.863	315.79
861.034	234.09
861.204	207.81
861.375	145.55
861.546	219.54
861.716	265.47
861.887	220.49
862.057	232.49
862.228	211.32
862.398	226.48
862.569	218.62
862.739	177.9
862.91	151.66
863.08	222.62
863.251	366.92
863.421	346.09
863.592	264.34
863.762	330.23
863.932	510.99
864.103	-295.35
864.273	-1167.86
864.443	-220
864.614	-99.38
864.784	-82.82
864.954	-1490
865.125	6157.14
865.295	-613.43
865.465	-826.32
865.635	-7425
865.805	859.49
865.976	-11166.67
866.146	-1311.36
866.316	-2236
866.486	1102.38
866.656	-347.37
866.826	-163.5
866.996	-1101.92
867.166	496.5
867.336	748.05
867.506	712.86
867.676	203.95
867.846	188.21
868.016	197.66
868.186	210.79
868.356	206.46
868.526	154.61
868.696	164
868.866	178.14
869.036	428.57
869.206	180.55
869.376	185.76
869.545	2589.47
869.715	1250
869.885	238.65
870.055	125.1
870.224	101.16
870.394	304.76
870.564	-146.27
870.734	76
870.903	42.77
871.073	118.33
871.243	104.86
871.412	79.63
871.582	69.26
871.751	86.3
871.921	59.24
872.091	78.54
872.26	73.77
872.43	86.59
872.599	108.32
872.769	98.87
872.938	75.21
873.108	73.54
873.277	75.94
873.446	84.7
873.616	83.22
873.785	95.13
873.955	94.95
874.124	105.1
874.293	106.32
874.463	75.38
874.632	97.62
874.801	121.81
874.971	161.27
875.14	196.39
875.309	258.53
875.478	426.94
875.647	469.84
875.817	311.63
875.986	257.89
876.155	183.58
876.324	180.45
876.493	165.19
876.662	152.09
876.831	133.96
877	139.9
877.17	150.56
877.339	143.97
877.508	141.32
877.677	141.07
877.846	143.57
878.015	163.55
878.184	156.07
878.352	179.96
878.521	157.21
878.69	151.61
878.859	92.43
879.028	54.69
879.197	71.01
879.366	86.12
879.534	86.29
879.703	83.76
879.872	83.19
880.041	76.48
880.21	72.5
880.378	75.82
880.547	79
880.716	74.73
880.884	76.78
881.053	70.7
881.222	62.18
881.39	52.37
881.559	50.84
881.727	52.79
881.896	48.3
882.065	45.61
882.233	47.16
882.402	39.76
882.57	44.06
882.739	38.41
882.907	37.85
883.076	48.97
883.244	66.75
883.412	76.11
883.581	72.81
883.749	87.34
883.918	82.63
884.086	92.5
884.254	105.17
884.423	99.83
884.591	124.69
884.759	140.21
884.927	164.41
885.096	123.83
885.264	120.78
885.432	143.03
885.6	136.25
885.769	201.35
885.937	159.11
886.105	204.43
886.273	277.29
886.441	252.94
886.609	572.73
886.777	373.2
886.945	-359.09
887.113	-311.7
887.281	-32650
887.449	-440.12
887.617	0
887.785	-297.36
887.953	-258.08
888.121	-289.45
888.289	-212.93
888.457	-1021.92
888.625	-20700
888.793	2880
888.961	7737.5
889.129	1206.12
889.296	245.4
889.464	731.25
889.632	215.97
889.8	158.82
889.967	265.56
890.135	104.85
