Data from JASIL_3901_Reflection_2.txt Node
Date: Sat Nov 07 20:10:08 EST 2015
User: Geneva
Spectrometer: USB4E03002
Autoset integration time: false
Trigger mode: 4
Integration Time (sec): 1.000000E-1
Scans to average: 10
Electric dark correction enabled: true
Nonlinearity correction enabled: false
Boxcar width: 5
Stray light correction enabled: false
XAxis mode: Wavelengths
Stop averaging: false
Number of Pixels in Spectrum: 3648
>>>>>Begin Spectral Data<<<<<
177.575	75.97
177.794	53.97
178.014	2.32
178.233	-11.92
178.452	-54.98
178.672	-40.21
178.891	121.9
179.11	318.05
179.33	236.74
179.549	145.44
179.768	99.93
179.987	110.39
180.207	120.07
180.426	117.8
180.645	169.94
180.864	178.57
181.084	194.92
181.303	322.15
181.522	229.62
181.741	208.56
181.96	166.02
182.179	181.52
182.398	242.17
182.618	209.94
182.837	165.82
183.056	219.15
183.275	254.19
183.494	238.14
183.713	164.04
183.932	195.8
184.151	191.93
184.37	193.44
184.589	127.3
184.808	102.84
185.027	117.48
185.246	133.32
185.465	92.29
185.684	89.89
185.903	93.03
186.122	114.02
186.341	132.69
186.56	153.57
186.779	170.85
186.998	162.69
187.216	173.83
187.435	156.11
187.654	151.6
187.873	207.47
188.092	156.41
188.311	152.02
188.53	149.38
188.748	114.1
188.967	103.07
189.186	105.06
189.405	138.33
189.623	139.06
189.842	125.6
190.061	122.83
190.28	154.29
190.498	176.32
190.717	162.42
190.936	159.8
191.154	177.85
191.373	158.42
191.592	159.51
191.81	142.53
192.029	134.54
192.248	154.35
192.466	141.69
192.685	100.06
192.904	104.04
193.122	116.3
193.341	121.32
193.559	114.27
193.778	122.25
193.996	107.35
194.215	136.33
194.433	151.7
194.652	168.13
194.87	187.9
195.089	205.96
195.307	196.61
195.526	178.83
195.744	160.41
195.963	139.3
196.181	138.37
196.399	164.57
196.618	148.33
196.836	140.86
197.055	130.82
197.273	128.95
197.491	122.5
197.71	123.73
197.928	125.58
198.146	125.29
198.365	165.49
198.583	154.28
198.801	152.61
199.019	121.9
199.238	151.21
199.456	128.76
199.674	139.51
199.892	179.26
200.111	150.11
200.329	151.75
200.547	163.8
200.765	151.42
200.983	153.13
201.202	154.93
201.42	170.31
201.638	119.99
201.856	159.62
202.074	169.88
202.292	171.62
202.51	183.92
202.728	184.72
202.946	176.96
203.165	147.04
203.383	158.27
203.601	150.36
203.819	151.63
204.037	158.63
204.255	151
204.473	170.33
204.691	196.08
204.909	182.06
205.127	191.15
205.345	173.77
205.562	186.83
205.78	187
205.998	183.37
206.216	175.58
206.434	180.36
206.652	160.33
206.87	137.26
207.088	139.42
207.306	149.36
207.523	134.82
207.741	139.17
207.959	136.72
208.177	162.05
208.395	159.77
208.612	177.87
208.83	188.13
209.048	234
209.266	247.52
209.483	225.45
209.701	262.17
209.919	343.94
210.136	352.92
210.354	296.34
210.572	175.26
210.79	180.04
211.007	149.79
211.225	134.18
211.442	139.75
211.66	124.95
211.878	127.07
212.095	40.77
212.313	30.02
212.53	31.97
212.748	35.7
212.966	54.53
213.183	43.41
213.401	37.63
213.618	43.66
213.836	38.64
214.053	43.67
214.271	36.28
214.488	102.44
214.705	107.48
214.923	117.31
215.14	128.15
215.358	123.45
215.575	131.94
215.793	138.06
216.01	153.84
216.227	168.46
216.445	150.38
216.662	144.82
216.879	144.27
217.097	156.8
217.314	158.27
217.531	147.94
217.749	127.87
217.966	127.07
218.183	121.45
218.4	121.9
218.618	115.84
218.835	114.74
219.052	105.64
219.269	112.72
219.487	97.51
219.704	91.29
219.921	86.75
220.138	90.13
220.355	93.9
220.572	96.8
220.79	95.97
221.007	91.76
221.224	96.39
221.441	105.88
221.658	99.7
221.875	107.9
222.092	102.37
222.309	98.29
222.526	101.77
222.743	98.35
222.96	100.96
223.177	108.01
223.394	99.44
223.611	105.38
223.828	97.71
224.045	95.03
224.262	88.23
224.479	89.41
224.696	90.55
224.913	85.89
225.13	84.14
225.347	80.29
225.564	80.47
225.781	81.94
225.997	78.57
226.214	81.08
226.431	75.97
226.648	76.61
226.865	71.22
227.082	70.89
227.298	70.47
227.515	67.87
227.732	66.28
227.949	64.76
228.165	63.59
228.382	60.21
228.599	58.55
228.816	57.66
229.032	57.49
229.249	59.91
229.466	58.55
229.682	55.99
229.899	55.76
230.116	53.44
230.332	51.32
230.549	54.1
230.765	59.08
230.982	59.83
231.199	65.55
231.415	67.55
231.632	68.67
231.848	69.18
232.065	72.15
232.281	72.28
232.498	75.98
232.714	76.53
232.931	72.68
233.147	68.85
233.364	68.82
233.58	65.95
233.797	66.34
234.013	64.85
234.23	64.83
234.446	64.18
234.662	63.05
234.879	64.01
235.095	60.96
235.312	62.19
235.528	65.08
235.744	66.98
235.961	67.57
236.177	63.08
236.393	61.69
236.61	65.32
236.826	62.05
237.042	59.64
237.258	58.48
237.475	59.32
237.691	58.59
237.907	54.55
238.123	52.68
238.339	51.04
238.556	55.22
238.772	56.63
238.988	54.16
239.204	55.25
239.42	59.16
239.636	57.25
239.853	56.45
240.069	53.17
240.285	51.74
240.501	48.21
240.717	46.95
240.933	44.57
241.149	42.81
241.365	42.73
241.581	43.41
241.797	41.18
242.013	42.07
242.229	43.19
242.445	42.92
242.661	43.71
242.877	47.02
243.093	48.6
243.309	49.69
243.525	51.38
243.741	51.6
243.957	51.06
244.173	51.94
244.388	49.26
244.604	45.75
244.82	44.28
245.036	42.31
245.252	39.98
245.468	39.39
245.683	38.24
245.899	37
246.115	36.81
246.331	36.34
246.547	35.64
246.762	35.41
246.978	35.97
247.194	35.86
247.409	36.09
247.625	36.14
247.841	34.99
248.057	35.02
248.272	35.33
248.488	34.61
248.703	33.63
248.919	35.09
249.135	36.19
249.35	35.58
249.566	37.98
249.782	38.24
249.997	38.77
250.213	39.07
250.428	38.91
250.644	38.52
250.859	39.4
251.075	40.46
251.29	39.05
251.506	38.47
251.721	37.69
251.937	36.34
252.152	37.04
252.368	36.91
252.583	38
252.798	38.86
253.014	39.18
253.229	38.44
253.445	37.93
253.66	38.45
253.875	37.47
254.091	37.34
254.306	37.92
254.521	35.55
254.737	35.34
254.952	33.41
255.167	31.38
255.383	32.15
255.598	32.94
255.813	31.57
256.028	31.83
256.244	31
256.459	32.55
256.674	31.16
256.889	29.43
257.104	27.7
257.32	28.42
257.535	28.34
257.75	26.31
257.965	25.07
258.18	25.53
258.395	24.68
258.61	25.06
258.826	24.35
259.041	24.47
259.256	24.67
259.471	24.57
259.686	24.25
259.901	23.97
260.116	24.58
260.331	24.77
260.546	24.56
260.761	24.45
260.976	24.39
261.191	24.3
261.406	24.01
261.621	23.99
261.836	25.07
262.05	25.17
262.265	25.14
262.48	24.2
262.695	23.66
262.91	24.22
263.125	24.55
263.34	24.32
263.555	26.26
263.769	26.66
263.984	27.23
264.199	26.68
264.414	25.87
264.629	26.94
264.843	27.54
265.058	27.25
265.273	25.38
265.488	24.71
265.702	24.27
265.917	22.66
266.132	22.16
266.346	21.8
266.561	21.44
266.776	22.27
266.99	20.95
267.205	21.41
267.42	21.05
267.634	21.51
267.849	21.87
268.063	21.81
268.278	22.75
268.492	23.19
268.707	22.39
268.922	22.67
269.136	21.18
269.351	21.17
269.565	21.27
269.78	21.55
269.994	21.98
270.209	22.01
270.423	22.21
270.637	20.87
270.852	20.4
271.066	20.89
271.281	20.82
271.495	21.85
271.709	22.65
271.924	21.72
272.138	21.74
272.353	21.39
272.567	21.14
272.781	20.76
272.996	21.45
273.21	21.9
273.424	22.17
273.638	21.54
273.853	21.37
274.067	21.03
274.281	21.48
274.495	21.81
274.71	21.94
274.924	21.37
275.138	21.72
275.352	22.08
275.566	22.23
275.781	22.22
275.995	22.71
276.209	22.58
276.423	22.2
276.637	21.98
276.851	21.8
277.065	22.03
277.279	23.3
277.493	22.94
277.707	22.56
277.921	22.02
278.135	20.91
278.349	20.76
278.563	20.63
278.777	20.73
278.991	20.82
279.205	20.7
279.419	20.21
279.633	20.17
279.847	20.56
280.061	20.47
280.275	19.6
280.489	20.49
280.703	19.83
280.917	19.04
281.131	18.82
281.344	18.72
281.558	18.24
281.772	18.01
281.986	17.82
282.2	17.32
282.414	16.86
282.627	17.12
282.841	17.12
283.055	17.91
283.269	18.23
283.482	17.95
283.696	17.5
283.91	17.45
284.123	17.08
284.337	17.15
284.551	16.91
284.764	17.3
284.978	17.5
285.192	16.96
285.405	16.49
285.619	16.33
285.833	16.69
286.046	16.81
286.26	16.97
286.473	17.75
286.687	17.39
286.9	17.97
287.114	17.64
287.327	17.41
287.541	17.6
287.754	17.95
287.968	18.04
288.181	18
288.395	17.94
288.608	18.46
288.822	18.07
289.035	17.61
289.248	17.51
289.462	17.78
289.675	17.44
289.889	17.6
290.102	17.35
290.315	17.96
290.529	17.56
290.742	17.98
290.955	17.53
291.169	17.6
291.382	17.8
291.595	17.8
291.808	17.25
292.022	17.66
292.235	17.68
292.448	17.47
292.661	16.93
292.875	17.06
293.088	16.93
293.301	16.63
293.514	16.41
293.727	16.53
293.94	16.75
294.153	17.01
294.367	17.24
294.58	16.87
294.793	16.79
295.006	16.76
295.219	17.12
295.432	16.69
295.645	17.06
295.858	16.69
296.071	16.42
296.284	15.87
296.497	15.85
296.71	15.53
296.923	15.57
297.136	15.48
297.349	15.49
297.562	15.19
297.775	15.48
297.988	15.19
298.201	15.67
298.414	15.78
298.626	16.14
298.839	16.45
299.052	17.22
299.265	17.71
299.478	17.63
299.691	17.76
299.903	17.69
300.116	17.66
300.329	17.86
300.542	18.15
300.755	18.91
300.967	18.6
301.18	17.88
301.393	17.24
301.605	16.73
301.818	17.02
302.031	16.94
302.243	16.86
302.456	16.51
302.669	16.43
302.881	16.52
303.094	16.03
303.307	15.98
303.519	16.71
303.732	16.92
303.944	16.92
304.157	16.84
304.37	16.89
304.582	16.89
304.795	16.99
305.007	17.53
305.22	17.58
305.432	18.08
305.645	18.58
305.857	17.94
306.069	17.29
306.282	17.87
306.494	18.23
306.707	18.44
306.919	18.59
307.132	18.31
307.344	17.71
307.556	16.83
307.769	16.73
307.981	16.43
308.193	16.39
308.406	16.65
308.618	16.14
308.83	15.86
309.043	15.78
309.255	15.94
309.467	16.27
309.679	16.35
309.892	16.66
310.104	16.34
310.316	16.12
310.528	16.27
310.74	16.34
310.953	16.21
311.165	16.15
311.377	15.3
311.589	15.23
311.801	15.17
312.013	14.79
312.225	14.88
312.437	15.12
312.649	15.72
312.862	15.7
313.074	15.49
313.286	15.54
313.498	15.53
313.71	16.3
313.922	16.46
314.134	16.53
314.346	17.05
314.558	16.98
314.77	17.35
314.982	17.54
315.193	17.47
315.405	17.67
315.617	18.05
315.829	18.08
316.041	18.45
316.253	18.24
316.465	18.24
316.677	18.1
316.888	18.01
317.1	17.04
317.312	16.6
317.524	16.96
317.736	17.51
317.947	17.18
318.159	17.57
318.371	16.9
318.583	16.89
318.794	16.37
319.006	16.49
319.218	16.72
319.43	17.03
319.641	17.28
319.853	17.55
320.064	17.26
320.276	17.71
320.488	17.96
320.699	18.38
320.911	18.39
321.123	19.72
321.334	19.99
321.546	19.98
321.757	20.01
321.969	20.15
322.18	19.64
322.392	19.7
322.603	19.23
322.815	18.62
323.026	18.44
323.238	18.25
323.449	17.69
323.661	17.75
323.872	17.99
324.083	18.43
324.295	18.45
324.506	18.28
324.718	18.37
324.929	18.57
325.14	19.16
325.352	19.23
325.563	19.81
325.774	19.63
325.986	19.47
326.197	19.29
326.408	19.12
326.62	18.64
326.831	18.85
327.042	18.66
327.253	18.52
327.464	18.47
327.676	18.63
327.887	18.19
328.098	18.11
328.309	17.86
328.52	17.88
328.732	17.59
328.943	18.35
329.154	18.12
329.365	18.87
329.576	19.31
329.787	19.37
329.998	19.51
330.209	19.46
330.42	19.63
330.631	19.97
330.842	19.73
331.053	20.17
331.264	19.64
331.475	20.14
331.686	19.13
331.897	19.15
332.108	18.9
332.319	18.64
332.53	18.63
332.741	18.55
332.952	19.04
333.163	19.13
333.374	19.23
333.585	19.19
333.795	18.79
334.006	19.12
334.217	19.02
334.428	18.89
334.639	19.09
334.849	19.25
335.06	19.1
335.271	18.4
335.482	18.47
335.692	18
335.903	18.06
336.114	18.57
336.325	18.43
336.535	18.77
336.746	19.19
336.957	18.96
337.167	18.97
337.378	19.24
337.589	19.61
337.799	19.69
338.01	19.6
338.22	19.44
338.431	19.43
338.642	19.86
338.852	19.49
339.063	18.4
339.273	18.58
339.484	18.47
339.694	18.52
339.905	18.45
340.115	18.39
340.326	18.65
340.536	18.32
340.746	17.92
340.957	17.5
341.167	17.35
341.378	18.11
341.588	17.9
341.799	17.73
342.009	17.61
342.219	17.35
342.43	17.51
342.64	17.21
342.85	17.54
343.061	17.51
343.271	17.74
343.481	17.61
343.691	16.92
343.902	16.81
344.112	16.7
344.322	16.83
344.532	17.01
344.743	16.47
344.953	16.34
345.163	16.05
345.373	16.03
345.583	15.66
345.793	15.65
346.004	16.17
346.214	16.21
346.424	16.89
346.634	16.67
346.844	16.57
347.054	16.87
347.264	17.39
347.474	17.59
347.684	17.49
347.894	17.73
348.104	18.02
348.314	18.29
348.524	18.17
348.734	17.63
348.944	17.74
349.154	17.61
349.364	17.37
349.574	17.08
349.784	17.07
349.994	17.41
350.204	17.03
350.413	16.79
350.623	16.3
350.833	16.37
351.043	16.08
351.253	15.87
351.463	15.71
351.672	16.11
351.882	16.04
352.092	15.99
352.302	15.76
352.511	16.44
352.721	16.35
352.931	16.4
353.141	16.57
353.35	17.05
353.56	16.68
353.77	16.66
353.979	16.14
354.189	16.12
354.399	15.9
354.608	15.7
354.818	15.24
355.027	15.08
355.237	15.11
355.447	14.7
355.656	14.55
355.866	14.92
356.075	15.02
356.285	15.17
356.494	15.18
356.704	15.17
356.913	15.34
357.123	15.46
357.332	15.58
357.542	15.84
357.751	15.94
357.96	15.95
358.17	15.55
358.379	15.37
358.589	15.57
358.798	15.28
359.007	15.68
359.217	15.48
359.426	15.42
359.635	15.44
359.845	15.39
360.054	15.27
360.263	15.23
360.472	15.33
360.682	15.33
360.891	15.02
361.1	15.15
361.309	14.73
361.519	14.77
361.728	14.66
361.937	14.58
362.146	14.37
362.355	14.51
362.564	14.3
362.774	14.27
362.983	14.28
363.192	14.49
363.401	14.59
363.61	14.56
363.819	14.63
364.028	14.64
364.237	14.32
364.446	14.18
364.655	14.32
364.864	14.53
365.073	14.49
365.282	14.5
365.491	14.28
365.7	13.97
365.909	14.38
366.118	14.18
366.327	13.82
366.536	14.25
366.745	14.29
366.954	14.31
367.162	14.22
367.371	14.2
367.58	13.97
367.789	13.93
367.998	14.2
368.207	14.12
368.415	14.37
368.624	14.78
368.833	14.68
369.042	14.66
369.25	14.44
369.459	14.32
369.668	14.36
369.877	14.44
370.085	14.47
370.294	14.38
370.503	14
370.711	13.65
370.92	13.45
371.129	13.38
371.337	13.15
371.546	12.95
371.754	12.92
371.963	12.69
372.171	12.7
372.38	12.54
372.589	12.62
372.797	12.37
373.006	12.26
373.214	12.35
373.423	12.33
373.631	12.55
373.84	12.67
374.048	12.53
374.256	12.48
374.465	12.57
374.673	12.48
374.882	12.24
375.09	12.57
375.298	12.73
375.507	12.39
375.715	12.39
375.923	12.06
376.132	12.09
376.34	12.12
376.548	12.19
376.757	12.22
376.965	12.4
377.173	12.59
377.381	12.9
377.59	13.05
377.798	13.13
378.006	12.81
378.214	12.86
378.423	12.79
378.631	12.85
378.839	12.89
379.047	12.72
379.255	12.72
379.463	12.48
379.671	11.91
379.879	11.86
380.088	12.31
380.296	12.53
380.504	12.53
380.712	12.31
380.92	12.38
381.128	12.32
381.336	12
381.544	11.95
381.752	11.87
381.96	12.12
382.168	11.78
382.376	11.23
382.584	11.24
382.791	11.43
382.999	11.53
383.207	11.27
383.415	11.41
383.623	11.51
383.831	11.42
384.039	11.56
384.247	11.31
384.454	11.37
384.662	11.5
384.87	11.51
385.078	11.3
385.285	11.01
385.493	11.13
385.701	10.91
385.909	10.91
386.116	10.9
386.324	10.58
386.532	10.67
386.739	10.54
386.947	10.49
387.155	10.42
387.362	10.27
387.57	10.5
387.778	10.41
387.985	10.53
388.193	10.6
388.4	10.56
388.608	10.65
388.816	10.61
389.023	10.56
389.231	10.46
389.438	10.49
389.646	10.49
389.853	10.43
390.061	10.2
390.268	9.94
390.475	9.79
390.683	9.7
390.89	9.71
391.098	9.69
391.305	9.89
391.512	9.88
391.72	9.67
391.927	9.83
392.135	9.91
392.342	9.94
392.549	9.97
392.756	10.02
392.964	10.03
393.171	10.04
393.378	10
393.586	9.75
393.793	9.78
394	9.79
394.207	9.76
394.414	9.57
394.622	9.65
394.829	9.52
395.036	9.54
395.243	9.48
395.45	9.08
395.657	9.16
395.864	9.26
396.072	9.17
396.279	9.37
396.486	9.15
396.693	9.29
396.9	9.17
397.107	9.19
397.314	9.07
397.521	8.97
397.728	9.15
397.935	9.17
398.142	9.03
398.349	8.92
398.556	8.67
398.763	8.55
398.97	8.44
399.177	8.63
399.383	8.75
399.59	8.95
399.797	9.05
400.004	8.91
400.211	8.77
400.418	8.74
400.625	8.88
400.831	9.05
401.038	9.24
401.245	9.32
401.452	9.17
401.658	9.07
401.865	8.83
402.072	8.88
402.279	8.89
402.485	8.74
402.692	8.7
402.899	8.52
403.105	8.33
403.312	8.52
403.519	8.41
403.725	8.37
403.932	8.4
404.138	8.33
404.345	8.09
404.552	8.14
404.758	8.22
404.965	8.23
405.171	8.34
405.378	8.38
405.584	8.16
405.791	8.04
405.997	8.02
406.204	8.08
406.41	8.2
406.617	8.3
406.823	8.16
407.029	8.17
407.236	8.2
407.442	8.05
407.649	7.87
407.855	7.66
408.061	7.67
408.268	7.68
408.474	7.39
408.68	7.23
408.887	7.4
409.093	7.54
409.299	7.42
409.505	7.42
409.712	7.43
409.918	7.49
410.124	7.56
410.33	7.57
410.537	7.49
410.743	7.68
410.949	7.59
411.155	7.52
411.361	7.61
411.567	7.76
411.773	7.71
411.98	7.72
412.186	7.95
412.392	8.04
412.598	7.89
412.804	7.93
413.01	7.82
413.216	7.89
413.422	7.77
413.628	7.7
413.834	7.34
414.04	7.31
414.246	7.35
414.452	7.27
414.658	7.24
414.864	7.27
415.07	7.14
415.275	7.13
415.481	7.06
415.687	7.01
415.893	7
416.099	7.12
416.305	6.96
416.511	6.93
416.716	6.81
416.922	6.69
417.128	6.66
417.334	6.77
417.539	6.71
417.745	6.59
417.951	6.56
418.157	6.44
418.362	6.43
418.568	6.46
418.774	6.47
418.979	6.41
419.185	6.41
419.391	6.42
419.596	6.36
419.802	6.33
420.008	6.36
420.213	6.43
420.419	6.4
420.624	6.32
420.83	6.38
421.035	6.3
421.241	6.28
421.446	6.24
421.652	6.21
421.857	6.23
422.063	6.16
422.268	6.18
422.474	6.11
422.679	6.09
422.885	6.07
423.09	5.87
423.295	5.76
423.501	5.74
423.706	5.67
423.911	5.57
424.117	5.44
424.322	5.54
424.527	5.52
424.733	5.39
424.938	5.4
425.143	5.46
425.349	5.6
425.554	5.72
425.759	5.75
425.964	5.88
426.169	5.95
426.375	6.04
426.58	6.02
426.785	5.99
426.99	6.21
427.195	6.33
427.4	6.26
427.605	6.24
427.811	6.26
428.016	6.28
428.221	6.27
428.426	6.28
428.631	6.36
428.836	6.31
429.041	6.28
429.246	6.17
429.451	6.14
429.656	6.29
429.861	6.17
430.066	6.24
430.271	6.22
430.476	6.18
430.681	6.15
430.886	6.06
431.09	6.04
431.295	5.99
431.5	6.01
431.705	5.82
431.91	5.66
432.115	5.69
432.32	5.48
432.524	5.47
432.729	5.41
432.934	5.38
433.139	5.37
433.343	5.39
433.548	5.57
433.753	5.58
433.958	5.71
434.162	5.75
434.367	5.79
434.572	5.88
434.776	5.87
434.981	5.93
435.186	6
435.39	5.88
435.595	5.9
435.799	5.72
436.004	5.74
436.209	5.6
436.413	5.63
436.618	5.55
436.822	5.54
437.027	5.41
437.231	5.46
437.436	5.31
437.64	5.36
437.845	5.33
438.049	5.38
438.253	5.29
438.458	5.28
438.662	5.21
438.867	5.23
439.071	5.29
439.275	5.42
439.48	5.39
439.684	5.44
439.888	5.48
440.093	5.55
440.297	5.59
440.501	5.71
440.706	5.75
440.91	5.84
441.114	5.93
441.318	5.88
441.523	5.9
441.727	5.89
441.931	5.99
442.135	6.02
442.339	5.96
442.543	5.92
442.748	5.78
442.952	5.66
443.156	5.65
443.36	5.58
443.564	5.52
443.768	5.36
443.972	5.31
444.176	5.25
444.38	5.19
444.584	5.14
444.788	5.05
444.992	4.97
445.196	5.08
445.4	4.99
445.604	4.95
445.808	4.93
446.012	4.96
446.216	4.95
446.42	4.99
446.624	4.98
446.828	4.99
447.032	5.02
447.235	5.03
447.439	5.05
447.643	5.15
447.847	5.22
448.051	5.28
448.254	5.31
448.458	5.34
448.662	5.31
448.866	5.36
449.069	5.29
449.273	5.42
449.477	5.47
449.681	5.44
449.884	5.22
450.088	5.23
450.292	5.12
450.495	5.07
450.699	5.09
450.902	4.98
451.106	5.01
451.31	5.21
451.513	5.05
451.717	5.03
451.92	5.02
452.124	5.16
452.327	5.17
452.531	5.31
452.734	5.28
452.938	5.33
453.141	5.38
453.345	5.35
453.548	5.2
453.752	5.33
453.955	5.5
454.158	5.54
454.362	5.6
454.565	5.6
454.769	5.52
454.972	5.55
455.175	5.45
455.379	5.42
455.582	5.37
455.785	5.36
455.988	5.32
456.192	5.13
456.395	5.09
456.598	5.07
456.801	4.88
457.005	4.76
457.208	4.7
457.411	4.8
457.614	4.74
457.817	4.73
458.021	4.64
458.224	4.6
458.427	4.62
458.63	4.55
458.833	4.48
459.036	4.5
459.239	4.58
459.442	4.58
459.645	4.52
459.848	4.65
460.051	4.63
460.254	4.81
460.457	4.8
460.66	4.85
460.863	5.01
461.066	5.03
461.269	5.16
461.472	5.28
461.675	5.33
461.878	5.36
462.081	5.22
462.284	5.3
462.486	5.19
462.689	5.24
462.892	5.17
463.095	5.1
463.298	5.07
463.5	4.98
463.703	4.87
463.906	4.86
464.109	4.86
464.311	4.97
464.514	5.05
464.717	5.15
464.92	5.12
465.122	5.22
465.325	5.19
465.528	5.23
465.73	5.27
465.933	5.27
466.135	5.07
466.338	5.09
466.541	5.05
466.743	4.93
466.946	4.94
467.148	5.03
467.351	5.05
467.553	5.05
467.756	5.14
467.958	5.12
468.161	5.07
468.363	5.23
468.566	5.17
468.768	5.15
468.971	5.16
469.173	5.14
469.375	5.04
469.578	4.82
469.78	4.82
469.983	4.79
470.185	4.76
470.387	4.81
470.59	4.99
470.792	5.13
470.994	5.2
471.196	5.25
471.399	5.19
471.601	5.11
471.803	5.26
472.005	5.29
472.208	5.34
472.41	5.34
472.612	5.28
472.814	5.28
473.016	5.24
473.218	5.3
473.421	5.14
473.623	5.23
473.825	5.35
474.027	5.46
474.229	5.43
474.431	5.32
474.633	5.31
474.835	5.41
475.037	5.26
475.239	5.24
475.441	5.09
475.643	5.23
475.845	5.09
476.047	5.08
476.249	4.96
476.451	4.89
476.653	4.83
476.855	4.87
477.057	4.81
477.258	4.86
477.46	4.83
477.662	4.88
477.864	4.86
478.066	4.85
478.268	4.86
478.469	4.85
478.671	4.86
478.873	4.93
479.075	4.85
479.276	4.86
479.478	4.92
479.68	4.92
479.882	4.93
480.083	4.92
480.285	4.93
480.487	4.84
480.688	4.83
480.89	4.84
481.091	4.76
481.293	4.8
481.495	4.77
481.696	4.67
481.898	4.6
482.099	4.48
482.301	4.4
482.502	4.31
482.704	4.21
482.905	4.17
483.107	4.13
483.308	4.13
483.51	4.12
483.711	4.16
483.913	4.22
484.114	4.27
484.315	4.38
484.517	4.49
484.718	4.62
484.92	4.76
485.121	4.85
485.322	4.88
485.524	4.92
485.725	4.88
485.926	4.77
486.127	4.65
486.329	4.58
486.53	4.51
486.731	4.4
486.932	4.35
487.134	4.32
487.335	4.35
487.536	4.4
487.737	4.44
487.938	4.5
488.139	4.59
488.341	4.68
488.542	4.76
488.743	4.76
488.944	4.87
489.145	4.9
489.346	4.95
489.547	4.9
489.748	4.83
489.949	4.77
490.15	4.69
490.351	4.58
490.552	4.52
490.753	4.44
490.954	4.43
491.155	4.41
491.356	4.43
491.557	4.43
491.758	4.47
491.959	4.59
492.159	4.67
492.36	4.84
492.561	4.92
492.762	5.07
492.963	5.2
493.164	5.36
493.364	5.45
493.565	5.55
493.766	5.63
493.967	5.64
494.167	5.61
494.368	5.57
494.569	5.39
494.769	5.4
494.97	5.29
495.171	5.27
495.371	5.16
495.572	5.11
495.773	5.03
495.973	5.04
496.174	5.07
496.375	5.07
496.575	5.05
496.776	5.1
496.976	5.13
497.177	5.16
497.377	5.23
497.578	5.26
497.778	5.32
497.979	5.35
498.179	5.35
498.38	5.39
498.58	5.38
498.78	5.43
498.981	5.48
499.181	5.5
499.382	5.54
499.582	5.5
499.782	5.69
499.983	5.77
500.183	5.87
500.383	5.88
500.584	5.87
500.784	5.87
500.984	5.9
501.184	5.83
501.385	5.88
501.585	5.92
501.785	5.96
501.985	5.93
502.185	5.92
502.386	5.88
502.586	5.91
502.786	5.98
502.986	5.96
503.186	6.05
503.386	6.21
503.586	6.24
503.786	6.2
503.987	6.25
504.187	6.22
504.387	6.22
504.587	6.21
504.787	6.31
504.987	6.27
505.187	6.39
505.387	6.32
505.587	6.33
505.786	6.37
505.986	6.41
506.186	6.33
506.386	6.31
506.586	6.34
506.786	6.37
506.986	6.29
507.186	6.31
507.386	6.35
507.585	6.33
507.785	6.35
507.985	6.37
508.185	6.41
508.384	6.47
508.584	6.48
508.784	6.47
508.984	6.59
509.183	6.65
509.383	6.64
509.583	6.62
509.782	6.77
509.982	6.78
510.182	6.77
510.381	6.85
510.581	6.98
510.781	7.12
510.98	7.2
511.18	7.17
511.379	7.18
511.579	7.32
511.778	7.39
511.978	7.42
512.177	7.46
512.377	7.55
512.576	7.64
512.776	7.68
512.975	7.77
513.175	7.84
513.374	7.97
513.573	8.12
513.773	8.12
513.972	8.11
514.172	8.27
514.371	8.37
514.57	8.5
514.77	8.48
514.969	8.46
515.168	8.36
515.367	8.44
515.567	8.37
515.766	8.29
515.965	8.31
516.164	8.39
516.364	8.38
516.563	8.3
516.762	8.21
516.961	8.16
517.16	8.19
517.359	8.19
517.559	8.16
517.758	8.28
517.957	8.32
518.156	8.41
518.355	8.44
518.554	8.51
518.753	8.71
518.952	8.75
519.151	8.91
519.35	9.02
519.549	9.11
519.748	9.21
519.947	9.26
520.146	9.32
520.345	9.32
520.544	9.47
520.743	9.39
520.942	9.39
521.141	9.47
521.339	9.46
521.538	9.52
521.737	9.54
521.936	9.56
522.135	9.58
522.333	9.62
522.532	9.69
522.731	9.57
522.93	9.59
523.129	9.54
523.327	9.62
523.526	9.62
523.725	9.62
523.923	9.66
524.122	9.65
524.321	9.55
524.519	9.6
524.718	9.61
524.917	9.61
525.115	9.71
525.314	9.79
525.512	9.83
525.711	9.89
525.909	9.93
526.108	9.94
526.306	9.95
526.505	9.99
526.703	9.92
526.902	9.89
527.1	9.84
527.299	9.75
527.497	9.67
527.696	9.59
527.894	9.58
528.092	9.59
528.291	9.66
528.489	9.75
528.688	9.88
528.886	10.04
529.084	10.21
529.283	10.43
529.481	10.72
529.679	10.99
529.877	11.3
530.076	11.53
530.274	11.7
530.472	11.81
530.67	11.83
530.869	11.72
531.067	11.66
531.265	11.48
531.463	11.39
531.661	11.15
531.859	11
532.057	10.85
532.255	10.74
532.454	10.69
532.652	10.69
532.85	10.7
533.048	10.83
533.246	10.96
533.444	11.17
533.642	11.26
533.84	11.45
534.038	11.66
534.236	11.85
534.434	12.02
534.632	12.16
534.83	12.27
535.027	12.33
535.225	12.24
535.423	12.11
535.621	11.98
535.819	11.9
536.017	11.88
536.215	11.85
536.412	11.89
536.61	11.96
536.808	11.99
537.006	12.04
537.203	12.17
537.401	12.37
537.599	12.54
537.797	12.69
537.994	12.79
538.192	12.83
538.39	12.85
538.587	12.75
538.785	12.65
538.983	12.59
539.18	12.52
539.378	12.42
539.575	12.28
539.773	12.15
539.97	12.01
540.168	11.97
540.366	11.9
540.563	11.91
540.761	11.96
540.958	12.05
541.155	12.13
541.353	12.23
541.55	12.38
541.748	12.57
541.945	12.72
542.143	12.93
542.34	13.14
542.537	13.37
542.735	13.55
542.932	13.72
543.129	13.83
543.327	13.92
543.524	14.01
543.721	14
543.919	14
544.116	14.09
544.313	14.14
544.51	14.11
544.708	14.12
544.905	14.07
545.102	14.04
545.299	14
545.496	13.93
545.693	13.89
545.891	13.88
546.088	13.87
546.285	13.89
546.482	13.94
546.679	14.05
546.876	14.09
547.073	14.27
547.27	14.41
547.467	14.61
547.664	14.83
547.861	14.97
548.058	15.21
548.255	15.41
548.452	15.49
548.649	15.59
548.846	15.68
549.043	15.84
549.24	15.75
549.437	15.77
549.633	15.68
549.83	15.57
550.027	15.6
550.224	15.53
550.421	15.36
550.618	15.25
550.814	15.27
551.011	15.18
551.208	15.03
551.405	14.93
551.601	14.87
551.798	14.93
551.995	14.95
552.191	14.96
552.388	14.91
552.585	15.11
552.781	15.19
552.978	15.22
553.175	15.4
553.371	15.54
553.568	15.75
553.764	15.87
553.961	15.98
554.157	16.1
554.354	16.16
554.55	16.27
554.747	16.17
554.943	16.28
555.14	16.21
555.336	16.09
555.533	16.12
555.729	16.17
555.926	16.33
556.122	16.28
556.318	16.31
556.515	16.31
556.711	16.28
556.907	16.35
557.104	16.45
557.3	16.56
557.496	16.82
557.693	16.81
557.889	16.72
558.085	16.59
558.281	16.77
558.478	16.83
558.674	16.84
558.87	16.83
559.066	16.86
559.262	16.74
559.459	16.8
559.655	16.67
559.851	16.74
560.047	16.94
560.243	16.92
560.439	16.84
560.635	16.82
560.831	16.97
561.027	17.15
561.223	17.23
561.419	17.38
561.615	17.43
561.811	17.58
562.007	17.71
562.203	17.66
562.399	17.75
562.595	17.77
562.791	18
562.987	18.03
563.183	18.02
563.379	18.17
563.575	18.18
563.771	18.16
563.966	18.01
564.162	17.98
564.358	17.92
564.554	17.94
564.75	17.84
564.945	17.75
565.141	17.7
565.337	17.63
565.533	17.5
565.728	17.57
565.924	17.67
566.12	17.82
566.315	17.94
566.511	18.15
566.707	18.14
566.902	18.33
567.098	18.45
567.293	18.55
567.489	18.75
567.684	18.91
567.88	18.88
568.076	18.87
568.271	18.9
568.467	18.86
568.662	18.82
568.858	18.94
569.053	18.89
569.248	18.74
569.444	18.67
569.639	18.62
569.835	18.52
570.03	18.52
570.225	18.49
570.421	18.45
570.616	18.47
570.812	18.47
571.007	18.38
571.202	18.45
571.397	18.6
571.593	18.6
571.788	18.7
571.983	18.84
572.178	18.87
572.374	19
572.569	19.05
572.764	19.04
572.959	19.14
573.154	19.29
573.35	19.25
573.545	19.15
573.74	19.2
573.935	19.13
574.13	19.09
574.325	19.16
574.52	19.1
574.715	19.11
574.91	19.16
575.105	19.25
575.3	19.33
575.495	19.43
575.69	19.61
575.885	19.81
576.08	19.94
576.275	19.95
576.47	20.06
576.665	20.1
576.86	20.23
577.055	20.26
577.25	20.08
577.444	20.05
577.639	20.19
577.834	20.14
578.029	20.09
578.224	20.05
578.418	20.15
578.613	20.07
578.808	20.05
579.003	20.1
579.197	20.06
579.392	20.09
579.587	20.15
579.781	19.96
579.976	20.02
580.171	19.98
580.365	19.96
580.56	19.9
580.755	19.96
580.949	19.99
581.144	19.94
581.338	20.1
581.533	20.27
581.727	20.25
581.922	20.36
582.116	20.3
582.311	20.31
582.505	20.37
582.7	20.42
582.894	20.51
583.089	20.45
583.283	20.44
583.478	20.51
583.672	20.47
583.866	20.44
584.061	20.38
584.255	20.41
584.449	20.46
584.644	20.3
584.838	20.27
585.032	20.39
585.226	20.49
585.421	20.51
585.615	20.41
585.809	20.44
586.003	20.44
586.198	20.55
586.392	20.55
586.586	20.52
586.78	20.61
586.974	20.61
587.168	20.28
587.363	20.35
587.557	20.21
587.751	20.27
587.945	20.15
588.139	20.27
588.333	20.27
588.527	20.3
588.721	20.35
588.915	20.59
589.109	20.58
589.303	20.84
589.497	20.71
589.691	20.87
589.885	20.87
590.079	20.97
590.273	20.96
590.466	21.07
590.66	21.13
590.854	21.14
591.048	20.98
591.242	20.99
591.436	20.91
591.629	21.05
591.823	21.14
592.017	21.11
592.211	21.06
592.404	20.93
592.598	20.79
592.792	20.74
592.986	20.6
593.179	20.55
593.373	20.61
593.567	20.62
593.76	20.7
593.954	20.66
594.147	20.61
594.341	20.47
594.535	20.51
594.728	20.46
594.922	20.46
595.115	20.53
595.309	20.42
595.502	20.35
595.696	20.21
595.889	20.02
596.083	19.99
596.276	20.05
596.47	20.16
596.663	20.2
596.856	20.32
597.05	20.39
597.243	20.5
597.437	20.85
597.63	20.99
597.823	21.29
598.017	21.53
598.21	21.6
598.403	21.68
598.596	21.73
598.79	21.8
598.983	21.77
599.176	21.68
599.369	21.68
599.563	21.55
599.756	21.58
599.949	21.42
600.142	21.31
600.335	21.24
600.528	21.17
600.722	21.19
600.915	21.03
601.108	20.93
601.301	21.05
601.494	20.94
601.687	20.73
601.88	20.57
602.073	20.5
602.266	20.43
602.459	20.35
602.652	20.29
602.845	20.29
603.038	20.37
603.231	20.38
603.424	20.2
603.617	20.2
603.809	20.3
604.002	20.43
604.195	20.6
604.388	20.76
604.581	20.84
604.774	21.01
604.966	21.08
605.159	21.24
605.352	21.42
605.545	21.73
605.737	21.93
605.93	22.11
606.123	22.23
606.316	22.24
606.508	22.42
606.701	22.44
606.894	22.26
607.086	22.25
607.279	21.96
607.471	21.82
607.664	21.56
607.857	21.37
608.049	21.29
608.242	21.18
608.434	21.07
608.627	20.93
608.819	21.05
609.012	21.33
609.204	21.41
609.397	21.69
609.589	21.87
609.782	22.18
609.974	22.59
610.166	22.96
610.359	23.29
610.551	23.64
610.743	23.77
610.936	24.04
611.128	23.99
611.32	24.08
611.513	24.11
611.705	24.08
611.897	24.08
612.09	23.92
612.282	23.77
612.474	23.55
612.666	23.46
612.858	23.57
613.051	23.32
613.243	23.33
613.435	23.18
613.627	23.14
613.819	23.17
614.011	23.31
614.203	23.17
614.395	23.14
614.588	23.1
614.78	22.88
614.972	22.76
615.164	22.87
615.356	22.64
615.548	22.68
615.74	22.71
615.932	22.43
616.124	22.09
616.315	22.17
616.507	22.07
616.699	22.08
616.891	22.21
617.083	22.18
617.275	22.1
617.467	22.3
617.659	22.39
617.85	22.21
618.042	22.44
618.234	22.41
618.426	22.23
618.618	22.21
618.809	22.2
619.001	22.12
619.193	22.14
619.384	22.14
619.576	22.09
619.768	22.07
619.959	22.22
620.151	22.29
620.343	22.43
620.534	22.58
620.726	22.44
620.917	22.46
621.109	22.48
621.301	22.54
621.492	22.46
621.684	22.4
621.875	22.35
622.067	22.39
622.258	22.34
622.45	22.41
622.641	22.39
622.832	22.55
623.024	22.39
623.215	22.52
623.407	22.43
623.598	22.54
623.789	22.7
623.981	22.77
624.172	22.77
624.363	22.67
624.555	22.53
624.746	22.6
624.937	22.43
625.129	22.42
625.32	22.31
625.511	22.35
625.702	22.26
625.893	22.19
626.085	22.22
626.276	22.12
626.467	22.17
626.658	22.34
626.849	22.37
627.04	22.58
627.231	22.72
627.422	22.77
627.614	22.76
627.805	23.01
627.996	23.09
628.187	23.08
628.378	23.19
628.569	23.43
628.76	23.45
628.951	23.4
629.142	23.27
629.332	23.4
629.523	23.47
629.714	23.47
629.905	23.33
630.096	23.18
630.287	23.43
630.478	23.26
630.669	22.97
630.859	22.82
631.05	22.8
631.241	22.76
631.432	22.61
631.623	22.48
631.813	22.53
632.004	22.45
632.195	22.39
632.385	21.98
632.576	22.12
632.767	22.06
632.957	22.04
633.148	22.11
633.339	22.03
633.529	22.23
633.72	22.32
633.91	22.36
634.101	22.25
634.292	22.43
634.482	22.53
634.673	22.51
634.863	22.72
635.054	22.81
635.244	22.65
635.435	22.75
635.625	22.42
635.815	22.38
636.006	22.27
636.196	22.49
636.387	22.39
636.577	22.45
636.767	22.47
636.958	22.53
637.148	22.49
637.338	22.6
637.529	22.63
637.719	22.72
637.909	22.74
638.099	22.69
638.29	22.58
638.48	22.56
638.67	22.57
638.86	22.66
639.05	22.56
639.241	22.68
639.431	22.72
639.621	22.84
639.811	22.95
640.001	22.99
640.191	23.12
640.381	22.94
640.571	22.98
640.761	22.78
640.951	22.59
641.141	22.47
641.331	22.41
641.521	22.21
641.711	22.16
641.901	22.21
642.091	22.22
642.281	22.06
642.471	22.26
642.661	22.59
642.851	23
643.041	23.14
643.231	23.23
643.42	23.21
643.61	23.33
643.8	23.41
643.99	23.32
644.18	23.28
644.369	23.5
644.559	23.5
644.749	23.23
644.939	22.94
645.128	22.92
645.318	22.83
645.508	22.83
645.697	22.94
645.887	22.89
646.076	23.03
646.266	23.02
646.456	22.95
646.645	22.97
646.835	23
647.024	23.11
647.214	23.2
647.403	23.1
647.593	23.11
647.782	23.1
647.972	23.21
648.161	23.25
648.351	23.16
648.54	23.13
648.73	23.08
648.919	23.07
649.108	22.88
649.298	22.72
649.487	23.03
649.677	22.98
649.866	23.06
650.055	22.87
650.244	22.8
650.434	22.97
650.623	23.15
650.812	23.22
651.002	23.32
651.191	23.35
651.38	23.41
651.569	23.22
651.758	23.22
651.947	23.32
652.137	23.43
652.326	23.46
652.515	23.43
652.704	23.31
652.893	23.5
653.082	23.54
653.271	23.59
653.46	23.66
653.649	23.93
653.838	23.93
654.027	23.88
654.216	23.73
654.405	23.59
654.594	23.75
654.783	23.79
654.972	23.6
655.161	23.61
655.35	23.75
655.539	23.73
655.728	23.62
655.916	23.82
656.105	23.76
656.294	23.87
656.483	23.83
656.672	23.69
656.86	23.43
657.049	23.49
657.238	23.32
657.427	23.36
657.615	23.34
657.804	23.28
657.993	22.91
658.181	22.71
658.37	22.66
658.559	22.64
658.747	22.61
658.936	22.85
659.125	23.24
659.313	23.23
659.502	23.22
659.69	23.29
659.879	23.36
660.067	23.68
660.256	23.77
660.444	23.84
660.633	24
660.821	24.06
661.01	24.02
661.198	23.62
661.387	23.8
661.575	23.74
661.763	23.88
661.952	23.97
662.14	23.95
662.328	24.12
662.517	23.93
662.705	23.84
662.893	23.78
663.082	24.06
663.27	24.02
663.458	24.04
663.646	24.12
663.834	23.9
664.023	23.8
664.211	24.06
664.399	24.02
664.587	24.45
664.775	24.38
664.963	24.22
665.152	23.99
665.34	23.97
665.528	23.8
665.716	23.95
665.904	24
666.092	23.77
666.28	23.42
666.468	23.36
666.656	22.92
666.844	23.31
667.032	23.46
667.22	23.48
667.408	23.53
667.596	23.65
667.784	23.47
667.971	23.65
668.159	23.8
668.347	23.85
668.535	23.79
668.723	23.98
668.911	23.62
669.098	23.6
669.286	23.63
669.474	23.37
669.662	23.32
669.849	23.44
670.037	23.11
670.225	23.04
670.413	23.27
670.6	23.17
670.788	23.24
670.976	23.42
671.163	23.41
671.351	23.31
671.538	23.45
671.726	23.44
671.913	23.42
672.101	23.59
672.289	23.73
672.476	23.56
672.664	23.94
672.851	24.16
673.039	24.27
673.226	24.53
673.413	24.47
673.601	24.58
673.788	24.5
673.976	24.58
674.163	24.44
674.35	24.54
674.538	24.55
674.725	24.26
674.912	23.96
675.1	23.91
675.287	23.75
675.474	23.91
675.662	23.81
675.849	24.05
676.036	23.93
676.223	23.93
676.411	23.86
676.598	23.83
676.785	24.19
676.972	24.27
677.159	24.3
677.346	23.94
677.533	23.9
677.721	24.12
677.908	24.01
678.095	23.87
678.282	23.91
678.469	23.78
678.656	23.81
678.843	23.44
679.03	23.44
679.217	23.5
679.404	23.84
679.591	23.78
679.778	23.51
679.964	23.49
680.151	23.67
680.338	23.85
680.525	23.81
680.712	23.81
680.899	24.03
681.086	24.03
681.272	24.11
681.459	24
681.646	24.1
681.833	24.22
682.02	24.41
682.206	24.23
682.393	24.38
682.58	24.6
682.766	24.79
682.953	24.94
683.14	25.12
683.326	25.28
683.513	25.44
683.7	25.64
683.886	25.58
684.073	25.56
684.259	25.6
684.446	25.39
684.632	25.24
684.819	25.33
685.005	25.02
685.192	24.8
685.378	24.13
685.565	23.92
685.751	23.71
685.938	23.72
686.124	23.82
686.31	23.95
686.497	23.81
686.683	23.91
686.87	23.53
687.056	23.67
687.242	23.74
687.429	24.02
687.615	23.95
687.801	23.98
687.987	24.18
688.174	23.76
688.36	23.66
688.546	23.77
688.732	23.86
688.918	24.02
689.105	24.08
689.291	24
689.477	24.3
689.663	24.59
689.849	24.72
690.035	25.01
690.221	25.27
690.407	25.42
690.593	25.42
690.779	25.18
690.965	25.38
691.151	25.17
691.337	25.27
691.523	25.33
691.709	25.24
691.895	24.99
692.081	24.55
692.267	24.55
692.453	24.48
692.639	24.7
692.825	24.64
693.011	24.45
693.196	24.67
693.382	24.69
693.568	24.36
693.754	24.62
693.94	24.74
694.125	24.55
694.311	24.16
694.497	24
694.682	23.98
694.868	24.03
695.054	24.03
695.239	24.21
695.425	23.99
695.611	23.99
695.796	23.77
695.982	23.7
696.168	23.99
696.353	24.13
696.539	24.3
696.724	24.14
696.91	24.28
697.095	24.24
697.281	23.91
697.466	23.85
697.652	23.85
697.837	23.79
698.023	23.82
698.208	23.87
698.393	24.05
698.579	24.2
698.764	24.24
698.949	24.3
699.135	24.36
699.32	24.62
699.505	25.12
699.691	25.28
699.876	25.2
700.061	25.55
700.246	25.77
700.432	25.68
700.617	25.26
700.802	25.05
700.987	25.18
701.172	25.15
701.358	24.95
701.543	24.89
701.728	24.99
701.913	25.51
702.098	25.29
702.283	25.31
702.468	25.61
702.653	26.04
702.838	26.49
703.023	26.25
703.208	26.26
703.393	26.31
703.578	26.29
703.763	26.13
703.948	26.17
704.133	26.11
704.318	25.82
704.503	25.44
704.688	25.33
704.873	25.09
705.057	25.18
705.242	25.45
705.427	25.59
705.612	25.57
705.797	25.67
705.981	25.57
706.166	25.88
706.351	25.5
706.536	25.61
706.72	25.67
706.905	25.99
707.09	25.95
707.274	25.72
707.459	25.83
707.644	25.53
707.828	25.54
708.013	25.35
708.197	25.04
708.382	25.52
708.567	25.68
708.751	25.71
708.936	25.21
709.12	25.27
709.305	25.2
709.489	25.04
709.673	25.28
709.858	25.13
710.042	25.41
710.227	25.57
710.411	25.57
710.596	25.6
710.78	25.55
710.964	25.88
711.149	25.82
711.333	25.73
711.517	25.76
711.702	25.92
711.886	25.92
712.07	25.65
712.254	25.6
712.438	25.31
712.623	25.01
712.807	25.06
712.991	24.84
713.175	24.88
713.359	25.05
713.544	25.05
713.728	25.12
713.912	25.03
714.096	25.14
714.28	25.22
714.464	25.42
714.648	25.59
714.832	25.72
715.016	26.32
715.2	26.32
715.384	26.5
715.568	26.5
715.752	25.91
715.936	26.01
716.12	26.02
716.304	25.79
716.488	25.58
716.671	25.68
716.855	26.02
717.039	25.66
717.223	25.37
717.407	25.34
717.59	25.09
717.774	25.59
717.958	25.29
718.142	25.39
718.325	25.54
718.509	26
718.693	25.71
718.877	25.4
719.06	25.07
719.244	25.78
719.428	25.68
719.611	26.12
719.795	25.85
719.978	26.71
720.162	26.59
720.345	26.7
720.529	26.71
720.713	26.84
720.896	26.42
721.08	26.69
721.263	26.23
721.446	26.19
721.63	25.67
721.813	25.74
721.997	25.15
722.18	25.14
722.364	24.83
722.547	24.41
722.73	24.43
722.914	24.48
723.097	24.54
723.28	24.99
723.464	24.91
723.647	25.45
723.83	25.71
724.013	25.53
724.197	25.79
724.38	25.98
724.563	25.97
724.746	25.82
724.929	26.21
725.112	26.19
725.296	25.62
725.479	25.68
725.662	25.53
725.845	25.53
726.028	25.38
726.211	25.12
726.394	24.94
726.577	24.74
726.76	24.77
726.943	24.8
727.126	24.66
727.309	25.11
727.492	25.2
727.675	25.31
727.858	24.88
728.041	25.32
728.224	25.83
728.407	25.95
728.589	26.43
728.772	26.47
728.955	26.38
729.138	26.29
729.321	25.86
729.503	25.99
729.686	25.65
729.869	25.85
730.052	25.62
730.234	25.18
730.417	24.93
730.6	24.43
730.782	24.57
730.965	24.56
731.148	24.41
731.33	24.39
731.513	24.22
731.695	24.22
731.878	24.22
732.061	24.11
732.243	24.13
732.426	23.9
732.608	24.32
732.791	24.16
732.973	23.87
733.156	24.32
733.338	24.34
733.52	24.55
733.703	24.77
733.885	24.93
734.068	25.12
734.25	25.36
734.432	25.69
734.615	25.56
734.797	24.97
734.979	24.93
735.162	24.72
735.344	24.9
735.526	24.49
735.708	24.18
735.891	23.94
736.073	23.91
736.255	23.55
736.437	23.79
736.619	23.66
736.802	24.5
736.984	24.48
737.166	24.41
737.348	24.68
737.53	24.79
737.712	25.32
737.894	25.31
738.076	25.38
738.258	25.53
738.44	25.13
738.622	25.41
738.804	25.37
738.986	25.57
739.168	25.63
739.35	25.04
739.532	24.92
739.714	24.96
739.896	24.89
740.078	25.03
740.259	25.25
740.441	25.69
740.623	25.83
740.805	25.63
740.987	25.52
741.168	25.02
741.35	25.75
741.532	25.87
741.714	25.93
741.895	26.21
742.077	25.92
742.259	25.58
742.44	25.82
742.622	25.64
742.804	25.11
742.985	25.21
743.167	25.89
743.348	25.4
743.53	25.25
743.711	25.18
743.893	25.27
744.075	24.95
744.256	24.97
744.438	24.56
744.619	24.56
744.8	25.55
744.982	25.32
745.163	24.86
745.345	25.05
745.526	25.34
745.707	25.31
745.889	24.75
746.07	25.62
746.252	26.04
746.433	25.93
746.614	25.8
746.795	25.09
746.977	25.39
747.158	25.73
747.339	25.65
747.52	25.82
747.702	25
747.883	25.51
748.064	25.4
748.245	24.65
748.426	24.67
748.607	25.31
748.788	25.43
748.97	25.36
749.151	24.85
749.332	24.72
749.513	24.25
749.694	25.02
749.875	24.2
750.056	24.36
750.237	24.41
750.418	24.26
750.599	23.67
750.78	24.14
750.96	24.28
751.141	24.74
751.322	24.82
751.503	25.15
751.684	24.76
751.865	25.12
752.046	24.68
752.226	25.1
752.407	25.48
752.588	25.21
752.769	25.35
752.949	25.25
753.13	25.26
753.311	25.19
753.492	24.86
753.672	25.61
753.853	26.23
754.034	26.4
754.214	26.01
754.395	25.31
754.575	25.69
754.756	25.36
754.937	25.25
755.117	24.92
755.298	25.01
755.478	24.58
755.659	23.76
755.839	22.85
756.02	22.89
756.2	23.27
756.381	23.06
756.561	23.09
756.741	23.39
756.922	23.17
757.102	23.05
757.283	22.8
757.463	23.24
757.643	23.28
757.823	23.32
758.004	22.4
758.184	21.89
758.364	23.19
758.545	23.05
758.725	23.02
758.905	23.31
759.085	23.61
759.265	23.52
759.446	23.41
759.626	23.44
759.806	23.81
759.986	24.53
760.166	24.7
760.346	24.05
760.526	23.86
760.706	23.83
760.886	23.25
761.066	23.72
761.246	23.63
761.426	24.09
761.606	24.06
761.786	23.81
761.966	23.28
762.146	23.39
762.326	23.49
762.506	23.28
762.686	23.38
762.866	23.56
763.046	23.28
763.225	23.67
763.405	23.51
763.585	23.36
763.765	23.24
763.945	23.42
764.124	23.3
764.304	23.51
764.484	23.33
764.664	22.78
764.843	22.91
765.023	22.6
765.203	22.42
765.382	21.71
765.562	22.18
765.741	22.06
765.921	22.21
766.101	22.36
766.28	22.19
766.46	22.78
766.639	22.91
766.819	23.18
766.998	23.35
767.178	23.31
767.357	24.01
767.537	23.26
767.716	24.09
767.896	23.43
768.075	23.05
768.254	22.63
768.434	22.89
768.613	23.36
768.792	23.61
768.972	23.69
769.151	23.61
769.33	22.94
769.51	23.46
769.689	22.64
769.868	23.42
770.047	24.59
770.226	24.58
770.406	24.25
770.585	23.79
770.764	23.27
770.943	23.52
771.122	23.15
771.301	24.45
771.48	24.62
771.66	25.12
771.839	25.09
772.018	24.12
772.197	23.55
772.376	23.81
772.555	24.13
772.734	24.06
772.913	23.59
773.092	24.28
773.271	23.52
773.449	22.96
773.628	23.14
773.807	23.08
773.986	22.93
774.165	23.9
774.344	24.3
774.523	24.18
774.701	24.17
774.88	24.88
775.059	23.75
775.238	24.35
775.417	25.12
775.595	24.63
775.774	24.69
775.953	24.56
776.131	24.35
776.31	23.06
776.489	22.91
776.667	23.28
776.846	22.31
777.025	23.48
777.203	22.61
777.382	21.85
777.56	21.6
777.739	21.57
777.917	22.03
778.096	21.84
778.274	23.15
778.453	23.63
778.631	23.28
778.81	23.6
778.988	23.42
779.166	23.52
779.345	23.68
779.523	24.75
779.702	25.99
779.88	25.86
780.058	26.03
780.237	26.14
780.415	26
780.593	25.58
780.771	26.55
780.95	27.36
781.128	28.41
781.306	28.88
781.484	28.64
781.662	27.25
781.841	27.51
782.019	27.67
782.197	27.9
782.375	27.84
782.553	28.65
782.731	27.7
782.909	27.44
783.087	26.75
783.265	27.26
783.443	26.77
783.621	27.33
783.799	27.8
783.977	27.78
784.155	26.7
784.333	26.97
784.511	26.55
784.689	26.78
784.867	26.27
785.045	25.89
785.223	24.39
785.4	24.69
785.578	24.31
785.756	23.47
785.934	23.33
786.112	23.69
786.289	23.7
786.467	23.95
786.645	24.33
786.823	24.36
787	24.96
787.178	25.43
787.356	25.4
787.533	25.41
787.711	24.83
787.889	25
788.066	24.67
788.244	24.5
788.421	24.77
788.599	24.2
788.776	24.28
788.954	24.64
789.131	24.61
789.309	24.88
789.486	25.28
789.664	26.27
789.841	26.51
790.019	26.32
790.196	25.52
790.373	24.85
790.551	25.57
790.728	25.09
790.906	25.37
791.083	24.65
791.26	24.19
791.437	23.93
791.615	23.56
791.792	23.28
791.969	23.59
792.146	23.7
792.324	24.1
792.501	23.96
792.678	24.14
792.855	22.58
793.032	23
793.209	22.89
793.387	22.82
793.564	23.22
793.741	22.94
793.918	23.33
794.095	23.33
794.272	22.89
794.449	22.67
794.626	23.86
794.803	24.28
794.98	24.44
795.157	24.44
795.334	24.18
795.511	23.92
795.688	24.16
795.864	23.94
796.041	24.27
796.218	25.53
796.395	25.98
796.572	25.23
796.749	25.24
796.925	25.42
797.102	25.51
797.279	25.59
797.456	25.8
797.632	26.36
797.809	27.02
797.986	27.85
798.162	27.74
798.339	26.56
798.516	26.7
798.692	27.83
798.869	27.7
799.046	27.67
799.222	28.18
799.399	27.58
799.575	26.75
799.752	26.5
799.928	26.03
800.105	25.19
800.281	26.25
800.458	26.39
800.634	24.96
800.811	24.95
800.987	25.17
801.163	24.64
801.34	25.6
801.516	25.39
801.692	25.51
801.869	25.27
802.045	25.83
802.221	24.36
802.398	23.52
802.574	24.03
802.75	25.03
802.926	25.34
803.103	24.98
803.279	24.68
803.455	25.67
803.631	24.98
803.807	25.25
803.983	24.84
804.16	25.84
804.336	25.75
804.512	26.13
804.688	24.73
804.864	24.68
805.04	24.27
805.216	23.77
805.392	23.46
805.568	23.8
805.744	24.13
805.92	24.42
806.096	24.9
806.272	26.41
806.448	25.72
806.623	27.22
806.799	27.17
806.975	28.36
807.151	28.39
807.327	28.01
807.503	28.17
807.678	28.55
807.854	29.4
808.03	29.35
808.206	28.36
808.381	28.46
808.557	28.3
808.733	28.39
808.908	28.2
809.084	28.44
809.26	28.05
809.435	28.37
809.611	27.91
809.787	26.17
809.962	25.9
810.138	26.51
810.313	26.64
810.489	25.55
810.664	25.32
810.84	24.37
811.015	25.23
811.191	25.96
811.366	26.09
811.542	26.22
811.717	26.96
811.892	27.62
812.068	27.02
812.243	26.61
812.419	26.95
812.594	27.08
812.769	28.35
812.944	27.71
813.12	27.99
813.295	27.51
813.47	26.71
813.645	27.4
813.821	25.87
813.996	26.4
814.171	26.54
814.346	27.16
814.521	27.73
814.697	28.29
814.872	28.63
815.047	28.11
815.222	28.01
815.397	28
815.572	27.23
815.747	27.57
815.922	27.86
816.097	28.11
816.272	27.93
816.447	26.6
816.622	27.08
816.797	26.94
816.972	27.34
817.147	27.39
817.322	26.71
817.496	26.3
817.671	27.19
817.846	26.75
818.021	26.79
818.196	27.11
818.371	27.78
818.545	26.02
818.72	25.92
818.895	25.73
819.069	25.02
819.244	26.4
819.419	26.53
819.594	26.13
819.768	25.95
819.943	25.85
820.117	25.26
820.292	24.6
820.467	24.88
820.641	24.43
820.816	24.02
820.99	23.41
821.165	22.84
821.339	22.68
821.514	22.48
821.688	21.86
821.863	21.28
822.037	20.9
822.212	20.87
822.386	20.55
822.56	20.26
822.735	20.15
822.909	20.13
823.084	19.77
823.258	19.34
823.432	18.99
823.606	19.23
823.781	19.15
823.955	19.03
824.129	18.65
824.303	18.46
824.478	18.48
824.652	18.38
824.826	18.32
825	18.69
825.174	19.1
825.348	19.1
825.523	18.75
825.697	19.54
825.871	19.81
826.045	20.49
826.219	20.35
826.393	21.01
826.567	20.92
826.741	21.19
826.915	21.05
827.089	21.09
827.263	21.3
827.437	21.26
827.611	20.55
827.784	20.63
827.958	20.24
828.132	20.41
828.306	19.57
828.48	19.43
828.654	19.12
828.827	18.8
829.001	18.16
829.175	18.02
829.349	18.47
829.522	18.46
829.696	18.78
829.87	18.69
830.044	19.89
830.217	20.75
830.391	21.21
830.565	21.06
830.738	22.28
830.912	23.2
831.085	22.96
831.259	23.39
831.432	24.58
831.606	24.74
831.779	24.3
831.953	23.39
832.126	23.18
832.3	23.56
832.473	24.67
832.647	24.6
832.82	24.11
832.994	24.12
833.167	24.05
833.34	23.74
833.514	23.4
833.687	23.46
833.86	23.37
834.034	22.91
834.207	22.32
834.38	21.79
834.553	21.21
834.727	21.2
834.9	20.83
835.073	19.95
835.246	19.94
835.419	19.34
835.593	18.8
835.766	18.64
835.939	18.96
836.112	19.37
836.285	19.27
836.458	20.27
836.631	21.02
836.804	22.18
836.977	22.6
837.15	23.34
837.323	24.1
837.496	24.93
837.669	24.87
837.842	25.2
838.015	24.71
838.188	24.45
838.361	23.93
838.533	23.6
838.706	25.38
838.879	25.56
839.052	24.93
839.225	25.69
839.398	26.74
839.57	27
839.743	27.24
839.916	26.5
840.088	27.28
840.261	25.84
840.434	25.52
840.607	23.5
840.779	24.59
840.952	24.67
841.124	23.43
841.297	24.25
841.47	25.68
841.642	25.37
841.815	26
841.987	25.74
842.16	27.87
842.332	27.99
842.505	29.15
842.677	27.98
842.85	27.54
843.022	29.54
843.194	27.9
843.367	26.66
843.539	24.98
843.712	25.66
843.884	26.37
844.056	29.06
844.229	30.53
844.401	30.51
844.573	31.71
844.745	33.85
844.918	32.86
845.09	32.18
845.262	31.45
845.434	33.24
845.606	31.83
845.779	33.93
845.951	30.52
846.123	30.66
846.295	29.05
846.467	30.82
846.639	27.66
846.811	28.05
846.983	30.45
847.155	32.77
847.327	32.68
847.499	32.72
847.671	30.47
847.843	30.6
848.015	29.68
848.187	30.72
848.359	28.07
848.531	30.49
848.703	31
848.875	30.02
849.047	27.49
849.218	25.41
849.39	28.19
849.562	26.03
849.734	27.72
849.905	28.26
850.077	29.8
850.249	29.65
850.421	30.27
850.592	26.27
850.764	26.69
850.936	27.63
851.107	31.75
851.279	33.97
851.451	36.61
851.622	38.6
851.794	36.18
851.965	36.14
852.137	36.08
852.308	33.42
852.48	38.48
852.651	40.45
852.823	41.15
852.994	40.62
853.166	38.47
853.337	40.12
853.509	36.14
853.68	36.97
853.851	36.26
854.023	37.28
854.194	37.32
854.365	35.84
854.537	33.76
854.708	34.19
854.879	35.62
855.05	36.25
855.222	35.7
855.393	35.91
855.564	38.1
855.735	37.1
855.906	37.01
856.078	38.4
856.249	39.12
856.42	39.37
856.591	40.5
856.762	40.04
856.933	38.95
857.104	38.81
857.275	39.08
857.446	39.23
857.617	39.56
857.788	38.49
857.959	37.46
858.13	37.05
858.301	37.56
858.472	33.39
858.643	34.28
858.814	34.68
858.985	32.27
859.155	31.15
859.326	30.41
859.497	29.7
859.668	31.17
859.839	34.26
860.009	33.98
860.18	33.93
860.351	35.14
860.522	31.27
860.692	29.47
860.863	31.18
861.034	34.3
861.204	34.37
861.375	35.64
861.546	33.46
861.716	30.27
861.887	34.18
862.057	33.07
862.228	33.17
862.398	34.47
862.569	36.19
862.739	36.43
862.91	35.65
863.08	34.31
863.251	36.56
863.421	34.14
863.592	36.03
863.762	34.27
863.932	32.36
864.103	34.94
864.273	34.76
864.443	35.36
864.614	34.91
864.784	34.59
864.954	36.64
865.125	35.18
865.295	40.75
865.465	37.88
865.635	36.99
865.805	39.61
865.976	37.8
866.146	38.35
866.316	37.09
866.486	37.37
866.656	38.71
866.826	36.14
866.996	33.61
867.166	30.1
867.336	35.6
867.506	37.12
867.676	38.7
867.846	40.14
868.016	39.72
868.186	41.25
868.356	40.46
868.526	37.1
868.696	38.73
868.866	40.74
869.036	42.71
869.206	38.8
869.376	35.55
869.545	33.48
869.715	33.02
869.885	33.61
870.055	34.51
870.224	34.01
870.394	37.5
870.564	38.89
870.734	35.69
870.903	35.61
871.073	35.58
871.243	38.98
871.412	39.49
871.582	38.69
871.751	39.81
871.921	39.39
872.091	40.01
872.26	39.06
872.43	37.44
872.599	40.44
872.769	40.9
872.938	42.24
873.108	39.64
873.277	39.86
873.446	40.35
873.616	36.69
873.785	33.87
873.955	32.46
874.124	32.77
874.293	31.43
874.463	31.36
874.632	31.81
874.801	29.31
874.971	28.24
875.14	29.21
875.309	27.73
875.478	29.66
875.647	31.37
875.817	31.23
875.986	29.77
876.155	31.3
876.324	31.14
876.493	31.84
876.662	32.11
876.831	35.01
877	33.51
877.17	34.62
877.339	34.11
877.508	33.99
877.677	35.14
877.846	34.22
878.015	33.81
878.184	33.25
878.352	31.36
878.521	32.27
878.69	31.15
878.859	30.49
879.028	28.8
879.197	29.72
879.366	28.58
879.534	27.27
879.703	26
879.872	25.16
880.041	24.87
880.21	23.66
880.378	21.47
880.547	20.27
880.716	19.47
880.884	19
881.053	18.32
881.222	18.37
881.39	18.49
881.559	18.3
881.727	18.34
881.896	17.97
882.065	17.92
882.233	18.19
882.402	18.36
882.57	18.54
882.739	18.4
882.907	17.89
883.076	17.42
883.244	17
883.412	17.32
883.581	16.75
883.749	16.59
883.918	16.44
884.086	16.61
884.254	16.38
884.423	16.37
884.591	16.58
884.759	17.29
884.927	17.22
885.096	17.7
885.264	17.33
885.432	18.88
885.6	17.91
885.769	17.14
885.937	18.22
886.105	17.06
886.273	17.15
886.441	17.31
886.609	17.69
886.777	19.42
886.945	18.94
887.113	19.43
887.281	16.27
887.449	19.17
887.617	22.86
887.785	22.01
887.953	24.61
888.121	24.7
888.289	22.4
888.457	22.19
888.625	21.1
888.793	22.64
888.961	23.54
889.129	25.1
889.296	23.86
889.464	22.12
889.632	21.4
889.8	20.16
889.967	19.09
890.135	24.8
