Data from JASIL_3180_Reflection_01.txt Node
Date: Fri Nov 13 13:57:35 EST 2015
User: Geneva
Spectrometer: USB4E03002
Autoset integration time: false
Trigger mode: 4
Integration Time (sec): 1.000000E-1
Scans to average: 10
Electric dark correction enabled: false
Nonlinearity correction enabled: false
Boxcar width: 5
Stray light correction enabled: false
XAxis mode: Wavelengths
Stop averaging: false
Number of Pixels in Spectrum: 3648
>>>>>Begin Spectral Data<<<<<
177.575	132.48
177.794	73.73
178.014	50.54
178.233	41.1
178.452	79.67
178.672	100.54
178.891	158.43
179.11	32.26
179.33	106.45
179.549	-86.42
179.768	-104.6
179.987	-2800
180.207	47.28
180.426	77.86
180.645	-5.09
180.864	-2.79
181.084	29.2
181.303	-17.02
181.522	29.29
181.741	42.79
181.96	203.66
182.179	-250
182.398	-2300
182.618	71.27
182.837	-116.33
183.056	-64.41
183.275	-62.5
183.494	375
183.713	-267.8
183.932	-420.41
184.151	-30600
184.37	-122.29
184.589	-131.22
184.808	-35.75
185.027	4.71
185.246	-26.07
185.465	-17.94
185.684	-28.38
185.903	-44.62
186.122	-131.94
186.341	-156.72
186.56	-359.42
186.779	210.57
186.998	182.27
187.216	136.65
187.435	134.63
187.654	76.35
187.873	50.27
188.092	81.39
188.311	115.06
188.53	134.33
188.748	117.37
188.967	23.32
189.186	-34.5
189.405	3.17
189.623	-61.54
189.842	9.38
190.061	114.14
190.28	-784.21
190.498	88.82
190.717	74.65
190.936	117.45
191.154	117
191.373	211.16
191.592	277.22
191.81	344.87
192.029	1228.57
192.248	-219.49
192.466	-334.25
192.685	-540.96
192.904	-123.24
193.122	-89.54
193.341	-174.57
193.559	-200.4
193.778	-237.89
193.996	-151.11
194.215	-167.33
194.433	-48.82
194.652	1440
194.87	348.21
195.089	-123.53
195.307	-16.87
195.526	-82.91
195.744	147.44
195.963	1114.29
196.181	121.94
196.399	126.05
196.618	105.46
196.836	-490.91
197.055	214.5
197.273	131.88
197.491	21.41
197.71	29.68
197.928	52.74
198.146	280.65
198.365	113.43
198.583	84.29
198.801	85.86
199.019	99.51
199.238	98.4
199.456	-203.57
199.674	-6.33
199.892	5.13
200.111	-15.19
200.329	24.56
200.547	129.33
200.765	54.01
200.983	70.72
201.202	53.82
201.42	54.71
201.638	51
201.856	37.98
202.074	38.49
202.292	142.25
202.51	427.27
202.728	137.18
202.946	72.8
203.165	148.7
203.383	159.48
203.601	221.37
203.819	248.51
204.037	225.44
204.255	177.15
204.473	161.07
204.691	127.02
204.909	122.47
205.127	124.61
205.345	101.39
205.562	100
205.78	85.89
205.998	79.29
206.216	78.35
206.434	49.4
206.652	70.9
206.87	73.66
207.088	88.89
207.306	79.67
207.523	92.36
207.741	-372.22
207.959	316.88
208.177	184.78
208.395	650
208.612	238.79
208.83	521.21
209.048	-697.62
209.266	-127.34
209.483	133.52
209.701	132
209.919	73.17
210.136	48.62
210.354	24.42
210.572	29.88
210.79	23.08
211.007	-74.36
211.225	2.06
211.442	18.4
211.66	72.43
211.878	82.05
212.095	-363.75
212.313	-408.14
212.53	-617.17
212.748	-1709.52
212.966	1906.02
213.183	-2880
213.401	-1145.22
213.618	147400
213.836	-2182.09
214.053	1477.88
214.271	1194.29
214.488	209.3
214.705	124.14
214.923	-2388.89
215.14	247.83
215.358	126.78
215.575	21.14
215.793	54.65
216.01	100.65
216.227	100
216.445	95.06
216.662	95.03
216.879	86.63
217.097	101.95
217.314	60.53
217.531	83.88
217.749	358.97
217.966	198.26
218.183	1065.52
218.4	228.16
218.618	236.78
218.835	-41.67
219.052	3.54
219.269	516.67
219.487	115.79
219.704	11.24
219.921	-82.52
220.138	141.96
220.355	196.64
220.572	45.45
220.79	-13.75
221.007	30.04
221.224	79.64
221.441	77.25
221.658	283.72
221.875	218.22
222.092	296.04
222.309	-526.19
222.526	-0.91
222.743	14.26
222.96	14.98
223.177	11.64
223.394	18.33
223.611	10.58
223.828	10.1
224.045	28.29
224.262	70.52
224.479	68.78
224.696	79.73
224.913	109.01
225.13	104.22
225.347	57.81
225.564	45.67
225.781	51.34
225.997	51.71
226.214	18.73
226.431	6.09
226.648	-27.95
226.865	-26.57
227.082	-26.98
227.298	-41.09
227.515	-44.41
227.732	-20.59
227.949	-22.31
228.165	-22.41
228.382	-20.21
228.599	-9.46
228.816	-19.13
229.032	-23.1
229.249	-24.46
229.466	-24.54
229.682	-26.91
229.899	-24.17
230.116	-35.21
230.332	-36.84
230.549	-30.34
230.765	-30.11
230.982	-31.18
231.199	-2.49
231.415	9.22
231.632	-13.39
231.848	-11.39
232.065	7.17
232.281	6.09
232.498	34.81
232.714	39.79
232.931	27.66
233.147	28.04
233.364	58.06
233.58	53.61
233.797	51.78
234.013	54.11
234.23	36.88
234.446	7.81
234.662	25.17
234.879	16.8
235.095	12.47
235.312	24.25
235.528	29.06
235.744	20.97
235.961	-11.3
236.177	-5.85
236.393	7.23
236.61	9.72
236.826	26.68
237.042	11.47
237.258	12.98
237.475	26.56
237.691	12.41
237.907	16.63
238.123	18.16
238.339	32.37
238.556	23.54
238.772	9.88
238.988	10.24
239.204	-0.1
239.42	14.83
239.636	9.71
239.853	-20.2
240.069	-2.02
240.285	-9.26
240.501	-1.91
240.717	0.36
240.933	4.07
241.149	4.99
241.365	4.06
241.581	7.44
241.797	8.96
242.013	7.61
242.229	10.45
242.445	14.01
242.661	16.39
242.877	11.96
243.093	14.58
243.309	14.96
243.525	18.32
243.741	15.7
243.957	13.28
244.173	7.32
244.388	4
244.604	1.15
244.82	-4.04
245.036	-9.78
245.252	-7.2
245.468	-10.32
245.683	-10.14
245.899	-11.68
246.115	-8.01
246.331	-7.8
246.547	-6.49
246.762	-3.17
246.978	-0.9
247.194	0.44
247.409	4.77
247.625	4.1
247.841	3.18
248.057	3.84
248.272	1.37
248.488	1.41
248.703	3.43
248.919	5.95
249.135	4.86
249.35	5.21
249.566	7.89
249.782	6.77
249.997	12.54
250.213	14.62
250.428	14.27
250.644	19.78
250.859	17.91
251.075	15.18
251.29	12.75
251.506	14.91
251.721	15.09
251.937	8.64
252.152	10.42
252.368	6.71
252.583	13.03
252.798	16.23
253.014	11.78
253.229	12.08
253.445	13.43
253.66	12.12
253.875	6.1
254.091	10.61
254.306	15.8
254.521	17.32
254.737	26.58
254.952	20.13
255.167	18.94
255.383	28.8
255.598	22.43
255.813	19.47
256.028	18.72
256.244	19.42
256.459	16.31
256.674	18.47
256.889	14.67
257.104	4.55
257.32	7.03
257.535	5.19
257.75	1.43
257.965	5.47
258.18	6.16
258.395	10.07
258.61	7.8
258.826	5.43
259.041	3.73
259.256	0.77
259.471	2.74
259.686	3.22
259.901	3.52
260.116	4.35
260.331	2.7
260.546	0.96
260.761	-2.88
260.976	-0.06
261.191	1.19
261.406	3.62
261.621	9.02
261.836	8.53
262.05	4.31
262.265	1.07
262.48	4.29
262.695	7.6
262.91	9.47
263.125	7.49
263.34	4.71
263.555	1.62
263.769	-3.81
263.984	-5.98
264.199	-10.06
264.414	-6.76
264.629	-4.85
264.843	-5.08
265.058	-8.21
265.273	-6.43
265.488	-5.05
265.702	-6.24
265.917	-5.07
266.132	-2.81
266.346	-5.31
266.561	-0.86
266.776	-1.27
266.99	3.15
267.205	2.49
267.42	2.39
267.634	-0.74
267.849	-2.03
268.063	-2.41
268.278	0.25
268.492	-2.78
268.707	-2.16
268.922	-2.74
269.136	1.47
269.351	-2.05
269.565	-4.18
269.78	-3.38
269.994	1.81
270.209	5.86
270.423	8.2
270.637	7.46
270.852	9.33
271.066	10.95
271.281	12.55
271.495	10.01
271.709	9.88
271.924	10.49
272.138	13.58
272.353	11.34
272.567	11.24
272.781	11.58
272.996	11.44
273.21	10.92
273.424	8.58
273.638	5.21
273.853	1.8
274.067	6.02
274.281	2.29
274.495	2.65
274.71	2.01
274.924	0.91
275.138	-1.32
275.352	-2.36
275.566	-1.98
275.781	-0.29
275.995	-1.15
276.209	5.45
276.423	1.86
276.637	4.09
276.851	1.95
277.065	4.05
277.279	2.97
277.493	5.81
277.707	5.26
277.921	5.9
278.135	4.92
278.349	9.04
278.563	4.44
278.777	4.91
278.991	4.62
279.205	6.83
279.419	5.25
279.633	2.11
279.847	-0.63
280.061	-0.12
280.275	0.11
280.489	3.04
280.703	-0.14
280.917	1.32
281.131	1.27
281.344	2.05
281.558	-1.02
281.772	0.02
281.986	3.37
282.2	3.18
282.414	2.44
282.627	1.54
282.841	1.43
283.055	-0.14
283.269	-2.96
283.482	-3.7
283.696	-4.14
283.91	-0.59
284.123	-0.86
284.337	-0.79
284.551	-0.76
284.764	0.28
284.978	-0.76
285.192	-1.11
285.405	1.32
285.619	2.37
285.833	3.42
286.046	2.86
286.26	-0.05
286.473	-0.84
286.687	-0.81
286.9	-0.78
287.114	-2.68
287.327	-1.07
287.541	-1
287.754	-2.01
287.968	-0.58
288.181	-2.24
288.395	-2.44
288.608	-0.37
288.822	1.97
289.035	0.6
289.248	0.91
289.462	2.59
289.675	3.55
289.889	3.94
290.102	6.19
290.315	4.99
290.529	4.42
290.742	4.03
290.955	4.74
291.169	3.5
291.382	3.73
291.595	4.23
291.808	4.75
292.022	5.04
292.235	4
292.448	2.01
292.661	2.21
292.875	5.86
293.088	8
293.301	7.69
293.514	5.25
293.727	8.37
293.94	8.22
294.153	9.78
294.367	7.42
294.58	8.55
294.793	9.27
295.006	10.18
295.219	7
295.432	6.21
295.645	4.41
295.858	5.72
296.071	4.13
296.284	2.97
296.497	1.31
296.71	2.12
296.923	2.93
297.136	1.76
297.349	2.22
297.562	3.48
297.775	3.53
297.988	3.12
298.201	2.13
298.414	1.72
298.626	4.42
298.839	3.93
299.052	3.62
299.265	2.41
299.478	3.6
299.691	-0.01
299.903	0.82
300.116	1.15
300.329	2.76
300.542	4.48
300.755	4.43
300.967	1.94
301.18	2.88
301.393	0.62
301.605	-1.88
301.818	0.51
302.031	2
302.243	2.27
302.456	4.22
302.669	5.54
302.881	6.98
303.094	7.97
303.307	11.08
303.519	12.45
303.732	16.05
303.944	18.2
304.157	17.75
304.37	16.88
304.582	17.48
304.795	17.3
305.007	17.7
305.22	17.44
305.432	16.91
305.645	14.42
305.857	14.69
306.069	12.19
306.282	10.52
306.494	7.77
306.707	10.44
306.919	8.34
307.132	7.17
307.344	6.85
307.556	4.64
307.769	4.97
307.981	3.71
308.193	2.49
308.406	4.52
308.618	6.16
308.83	7.73
309.043	10.04
309.255	12.53
309.467	10.38
309.679	9.58
309.892	11.55
310.104	12.53
310.316	15
310.528	14.15
310.74	11.92
310.953	10.68
311.165	9.88
311.377	6.84
311.589	3.94
311.801	5.53
312.013	10.05
312.225	8.25
312.437	6.23
312.649	4.07
312.862	3.89
313.074	6.86
313.286	5.57
313.498	6.4
313.71	6.73
313.922	7.05
314.134	7.95
314.346	1.75
314.558	3.92
314.77	5.55
314.982	6.49
315.193	7.04
315.405	4.05
315.617	6.04
315.829	5.34
316.041	6.01
316.253	7.36
316.465	5.43
316.677	7.59
316.888	8.46
317.1	6.39
317.312	6.21
317.524	6
317.736	9.01
317.947	10.96
318.159	12.77
318.371	10.8
318.583	10.91
318.794	11.45
319.006	10.7
319.218	8.34
319.43	10.68
319.641	10.26
319.853	11.04
320.064	11.24
320.276	9.09
320.488	7.36
320.699	9.06
320.911	8.01
321.123	11.87
321.334	11.14
321.546	11.3
321.757	10.9
321.969	12.73
322.18	11.42
322.392	9.04
322.603	9.29
322.815	12.81
323.026	13.55
323.238	14.09
323.449	14.85
323.661	14.07
323.872	13.99
324.083	13.2
324.295	10.38
324.506	10.12
324.718	12.2
324.929	10.39
325.14	8.86
325.352	9.12
325.563	8.74
325.774	7.18
325.986	9.63
326.197	10.17
326.408	11.42
326.62	13.9
326.831	15.65
327.042	13.25
327.253	14.45
327.464	13.97
327.676	14.08
327.887	12.85
328.098	9.95
328.309	5.68
328.52	5.97
328.732	5.5
328.943	4.12
329.154	3.93
329.365	7.13
329.576	7.51
329.787	6.95
329.998	6.05
330.209	9.63
330.42	9.38
330.631	13.29
330.842	12.27
331.053	12.22
331.264	11.12
331.475	10.17
331.686	8.24
331.897	9.77
332.108	9.56
332.319	10.59
332.53	8.77
332.741	12.12
332.952	13.45
333.163	13.52
333.374	12.76
333.585	14.75
333.795	16.2
334.006	15.27
334.217	12.82
334.428	14.38
334.639	14.19
334.849	14.38
335.06	13.13
335.271	12.87
335.482	14.96
335.692	13.64
335.903	14.29
336.114	12.53
336.325	16.17
336.535	17.93
336.746	17.19
336.957	17.26
337.167	17.45
337.378	16.63
337.589	15.3
337.799	13.4
338.01	16.78
338.22	16.09
338.431	17.31
338.642	16.7
338.852	16.86
339.063	18.03
339.273	19.18
339.484	18.81
339.694	20.65
339.905	18.35
340.115	19.76
340.326	19.07
340.536	19.26
340.746	17.19
340.957	16.57
341.167	15.91
341.378	15.48
341.588	15.08
341.799	14.8
342.009	13.81
342.219	16.64
342.43	17.69
342.64	17.08
342.85	18.25
343.061	19.16
343.271	18.77
343.481	18.79
343.691	18.11
343.902	17.34
344.112	17.43
344.322	18.73
344.532	16.81
344.743	15.09
344.953	14.6
345.163	14.1
345.373	13.47
345.583	15.58
345.793	14.47
346.004	14.97
346.214	12.85
346.424	13.3
346.634	12.41
346.844	12.47
347.054	13.1
347.264	14.35
347.474	12.45
347.684	13.55
347.894	10.15
348.104	11.76
348.314	10.73
348.524	10.61
348.734	10.7
348.944	8.45
349.154	8.18
349.364	7.47
349.574	3.73
349.784	7.39
349.994	7.97
350.204	9.54
350.413	8.3
350.623	9.75
350.833	10.64
351.043	10.73
351.253	11.36
351.463	12.6
351.672	8.85
351.882	11.76
352.092	9.71
352.302	10.07
352.511	10.63
352.721	10.9
352.931	9.82
353.141	10.44
353.35	10.27
353.56	9.96
353.77	11.29
353.979	14.09
354.189	12.57
354.399	11.57
354.608	11.18
354.818	10.89
355.027	10.78
355.237	11.71
355.447	13
355.656	12.73
355.866	12.84
356.075	10.85
356.285	12.29
356.494	14.1
356.704	15.08
356.913	14.12
357.123	13.73
357.332	14.74
357.542	13.38
357.751	11.86
357.96	12.41
358.17	12.62
358.379	13.34
358.589	13.36
358.798	11.78
359.007	12.43
359.217	12.78
359.426	13.5
359.635	11.48
359.845	12.46
360.054	12.67
360.263	13.27
360.472	14.37
360.682	14.53
360.891	13.04
361.1	13.56
361.309	12.68
361.519	11.9
361.728	10.19
361.937	11.62
362.146	11.88
362.355	11.46
362.564	10.23
362.774	9.9
362.983	9.14
363.192	10.34
363.401	10.97
363.61	10
363.819	11.03
364.028	12.08
364.237	12.51
364.446	11.76
364.655	13.09
364.864	13.95
365.073	14.02
365.282	14.65
365.491	13.41
365.7	11.22
365.909	11.48
366.118	10.19
366.327	10.38
366.536	10.18
366.745	10.51
366.954	11.07
367.162	11.35
367.371	10.51
367.58	11.24
367.789	12.64
367.998	15.29
368.207	16.26
368.415	17.73
368.624	17.65
368.833	16.61
369.042	17.14
369.25	14.13
369.459	13.55
369.668	14.2
369.877	13.02
370.085	12.05
370.294	10.37
370.503	10.64
370.711	10.31
370.92	10.35
371.129	10.8
371.337	9.19
371.546	10.27
371.754	10.4
371.963	10.03
372.171	9.65
372.38	11.04
372.589	11.55
372.797	10.35
373.006	11.5
373.214	11.61
373.423	12.11
373.631	13.04
373.84	13.63
374.048	13.28
374.256	12.83
374.465	13.38
374.673	12.89
374.882	13.46
375.09	13.39
375.298	12.87
375.507	12.83
375.715	11.55
375.923	11.18
376.132	11.59
376.34	12.56
376.548	12.82
376.757	12.07
376.965	11.13
377.173	10.32
377.381	11.44
377.59	10.87
377.798	10.94
378.006	11.8
378.214	11.57
378.423	10.82
378.631	8.9
378.839	8.13
379.047	10.05
379.255	9.97
379.463	9.62
379.671	10.36
379.879	10.61
380.088	9.43
380.296	9.18
380.504	9.45
380.712	8.27
380.92	8.92
381.128	9.21
381.336	8.17
381.544	8.38
381.752	8.92
381.96	7.87
382.168	9.23
382.376	9.93
382.584	9.82
382.791	10
382.999	11.14
383.207	10.85
383.415	11.81
383.623	12.14
383.831	12.9
384.039	13.55
384.247	13.97
384.454	13.43
384.662	13.59
384.87	12.83
385.078	12.92
385.285	12.69
385.493	12.06
385.701	11.45
385.909	10.65
386.116	10.14
386.324	9.19
386.532	8.04
386.739	7.46
386.947	8.55
387.155	10.23
387.362	10.72
387.57	10.76
387.778	11.47
387.985	10.87
388.193	11.01
388.4	10.34
388.608	9.97
388.816	9.7
389.023	10.18
389.231	7.55
389.438	6.04
389.646	5.67
389.853	5.71
390.061	5.69
390.268	5.96
390.475	6.91
390.683	6.97
390.89	6.65
391.098	7.7
391.305	8.11
391.512	9.71
391.72	9.88
391.927	10.43
392.135	10.33
392.342	11.49
392.549	12.01
392.756	11.76
392.964	12.52
393.171	13.9
393.378	13.1
393.586	11.41
393.793	10.55
394	10.68
394.207	10.77
394.414	10.69
394.622	10.31
394.829	10.31
395.036	9.3
395.243	8.85
395.45	9.13
395.657	9.24
395.864	10.5
396.072	11.66
396.279	11.72
396.486	10.6
396.693	11.36
396.9	11.06
397.107	9.85
397.314	10.69
397.521	11.04
397.728	8.45
397.935	8.3
398.142	7.02
398.349	6.9
398.556	8.1
398.763	9.01
398.97	9.02
399.177	8.59
399.383	9.15
399.59	7.76
399.797	7.64
400.004	8.84
400.211	8.92
400.418	10.31
400.625	10.24
400.831	8.25
401.038	6.88
401.245	6.78
401.452	7.04
401.658	7.13
401.865	7.43
402.072	7.53
402.279	8.34
402.485	7.53
402.692	7.54
402.899	8.12
403.105	8.35
403.312	9.11
403.519	9.51
403.725	9.45
403.932	9.01
404.138	9.95
404.345	10.04
404.552	9.56
404.758	10.42
404.965	10.01
405.171	9.35
405.378	10.25
405.584	10.41
405.791	9.49
405.997	10.45
406.204	11.02
406.41	10.29
406.617	9.91
406.823	10.2
407.029	10.43
407.236	10.33
407.442	10.2
407.649	9.92
407.855	9.77
408.061	9.14
408.268	8.8
408.474	9.29
408.68	9.42
408.887	9.84
409.093	9.04
409.299	9.62
409.505	9.6
409.712	9.97
409.918	10.14
410.124	10.52
410.33	11.22
410.537	10.46
410.743	10.28
410.949	10.13
411.155	10
411.361	11.36
411.567	10.52
411.773	10.69
411.98	10.24
412.186	9.92
412.392	9.75
412.598	9.43
412.804	9.7
413.01	10.12
413.216	10.99
413.422	10.56
413.628	9.69
413.834	10.12
414.04	10.5
414.246	10.42
414.452	10.62
414.658	10.12
414.864	9.91
415.07	9.89
415.275	9.65
415.481	9.52
415.687	9.72
415.893	9.48
416.099	9.64
416.305	9.29
416.511	9.09
416.716	8.28
416.922	8.73
417.128	8.95
417.334	8.75
417.539	8.37
417.745	8.07
417.951	7.19
418.157	7.5
418.362	7.05
418.568	6.56
418.774	6.58
418.979	7.08
419.185	7.21
419.391	7.39
419.596	7.98
419.802	8.45
420.008	8.44
420.213	4.08
420.419	3.71
420.624	3.71
420.83	4.2
421.035	4.16
421.241	4.23
421.446	3.5
421.652	3.65
421.857	2.76
422.063	2.56
422.268	2.49
422.474	7.38
422.679	7.7
422.885	8.13
423.09	8.12
423.295	8.41
423.501	8.51
423.706	8.88
423.911	8.49
424.117	8.83
424.322	9.01
424.527	9.67
424.733	9.63
424.938	9.35
425.143	9.26
425.349	9.13
425.554	8.98
425.759	9.26
425.964	9.3
426.169	9.78
426.375	10.14
426.58	9.55
426.785	8.74
426.99	9.24
427.195	9.69
427.4	9.61
427.605	9.02
427.811	9.76
428.016	8.74
428.221	9.18
428.426	8.58
428.631	8.13
428.836	8.29
429.041	8.52
429.246	8.55
429.451	8.39
429.656	8.65
429.861	9.41
430.066	9.21
430.271	9.69
430.476	9.06
430.681	10.03
430.886	9.64
431.09	9.96
431.295	9.7
431.5	9.81
431.705	9.76
431.91	10.04
432.115	9.26
432.32	8.79
432.524	9.01
432.729	9.48
432.934	9.09
433.139	9.08
433.343	8.5
433.548	8.54
433.753	8.16
433.958	8.03
434.162	6.89
434.367	7.22
434.572	6.67
434.776	6.6
434.981	5.57
435.186	5.13
435.39	5.43
435.595	5.98
435.799	6.13
436.004	6.15
436.209	6.97
436.413	7.27
436.618	7.58
436.822	8.38
437.027	7.28
437.231	7.78
437.436	7.71
437.64	7.71
437.845	7.34
438.049	7.5
438.253	7.74
438.458	7.49
438.662	7.7
438.867	7.64
439.071	7.57
439.275	8.02
439.48	8.33
439.684	8.67
439.888	8.75
440.093	8.82
440.297	8.59
440.501	8.75
440.706	8.84
440.91	8.9
441.114	9.19
441.318	9.03
441.523	9.13
441.727	8.9
441.931	8.97
442.135	8.43
442.339	8.79
442.543	8.99
442.748	8.68
442.952	8.59
443.156	8.49
443.36	8.64
443.564	8.84
443.768	8.94
443.972	9.14
444.176	8.59
444.38	9.04
444.584	8.77
444.788	8.41
444.992	8.46
445.196	8.11
445.4	8.35
445.604	7.93
445.808	7.93
446.012	8.53
446.216	8.43
446.42	8.62
446.624	8.62
446.828	8.94
447.032	9.45
447.235	9.42
447.439	9.52
447.643	9.53
447.847	9.51
448.051	9.63
448.254	9.16
448.458	9.25
448.662	9.3
448.866	8.88
449.069	8.46
449.273	8.26
449.477	8.4
449.681	8.69
449.884	8.96
450.088	9.56
450.292	9.69
450.495	9.66
450.699	9.4
450.902	9.89
451.106	10.79
451.31	11.02
451.513	10.58
451.717	10.24
451.92	9.98
452.124	9.32
452.327	8.81
452.531	8.11
452.734	8.35
452.938	8.23
453.141	7.99
453.345	7.74
453.548	7.79
453.752	7.76
453.955	7.59
454.158	8.1
454.362	8.07
454.565	7.88
454.769	9.12
454.972	8.82
455.175	8.68
455.379	8.73
455.582	9.23
455.785	8.9
455.988	9.38
456.192	9.81
456.395	9.01
456.598	9.43
456.801	9.46
457.005	8.64
457.208	8.83
457.411	9.07
457.614	8.33
457.817	7.92
458.021	8.1
458.224	7.76
458.427	7.8
458.63	8.52
458.833	8.38
459.036	8.1
459.239	8.5
459.442	8.67
459.645	8.81
459.848	9.36
460.051	9.36
460.254	9.24
460.457	9.27
460.66	9.2
460.863	8.84
461.066	8.96
461.269	9.09
461.472	8.83
461.675	8.32
461.878	7.89
462.081	7.59
462.284	7.37
462.486	7.06
462.689	6.73
462.892	6.26
463.095	6.56
463.298	7.12
463.5	7.98
463.703	7.86
463.906	7.8
464.109	8.55
464.311	8.49
464.514	9.47
464.717	9.9
464.92	10.6
465.122	10.68
465.325	10.87
465.528	10.23
465.73	9.65
465.933	9.5
466.135	9.49
466.338	8.99
466.541	9.43
466.743	8.76
466.946	8.64
467.148	8.22
467.351	8.57
467.553	7.9
467.756	8.22
467.958	8.26
468.161	8.22
468.363	8.34
468.566	8.87
468.768	8.54
468.971	9.04
469.173	9.64
469.375	9.46
469.578	9.54
469.78	9.79
469.983	9.88
470.185	10.67
470.387	10.84
470.59	10.92
470.792	10.57
470.994	10.65
471.196	10.51
471.399	10.16
471.601	10.37
471.803	9.88
472.005	9.79
472.208	8.86
472.41	8.51
472.612	8.79
472.814	8.67
473.016	9.06
473.218	9.08
473.421	8.34
473.623	8.58
473.825	9.17
474.027	9.68
474.229	9.7
474.431	10.52
474.633	10.48
474.835	10.59
475.037	10.42
475.239	10.05
475.441	10.33
475.643	11.25
475.845	10.74
476.047	10.17
476.249	10.51
476.451	10.97
476.653	10.75
476.855	10.97
477.057	11
477.258	11.47
477.46	11.17
477.662	11.17
477.864	11.2
478.066	11.33
478.268	11.58
478.469	11.22
478.671	10.61
478.873	10.27
479.075	9.96
479.276	9.73
479.478	9.1
479.68	9.17
479.882	9.28
480.083	8.79
480.285	8.72
480.487	9.06
480.688	8.98
480.89	9.23
481.091	9.55
481.293	9.34
481.495	9.09
481.696	9.09
481.898	9.29
482.099	8.8
482.301	8.86
482.502	8.95
482.704	8.79
482.905	8.71
483.107	8.51
483.308	8.37
483.51	8.26
483.711	8.34
483.913	8.34
484.114	8.3
484.315	8.52
484.517	8.43
484.718	8.49
484.92	8.29
485.121	8.27
485.322	8.36
485.524	8.42
485.725	8.59
485.926	8.48
486.127	8.71
486.329	8.54
486.53	8.43
486.731	8.5
486.932	8.39
487.134	8.51
487.335	8.73
487.536	8.87
487.737	9
487.938	9.16
488.139	9.28
488.341	9.17
488.542	9.34
488.743	9.44
488.944	9.39
489.145	9.55
489.346	9.66
489.547	9.39
489.748	9.34
489.949	9.57
490.15	9.54
490.351	9.47
490.552	9.57
490.753	9.52
490.954	9.51
491.155	9.52
491.356	9.39
491.557	9.47
491.758	9.55
491.959	9.54
492.159	9.09
492.36	9.16
492.561	9.03
492.762	9.3
492.963	9.35
493.164	9.66
493.364	9.77
493.565	9.84
493.766	9.82
493.967	9.92
494.167	9.8
494.368	10.12
494.569	9.64
494.769	10.15
494.97	10.32
495.171	10.57
495.371	10.54
495.572	10.34
495.773	10.05
495.973	9.67
496.174	9.56
496.375	9.8
496.575	9.79
496.776	10.3
496.976	10.15
497.177	9.62
497.377	9.37
497.578	9.35
497.778	9.53
497.979	9.76
498.179	10.13
498.38	10.02
498.58	9.86
498.78	9.88
498.981	9.46
499.181	9.96
499.382	10.18
499.582	10.16
499.782	10.01
499.983	10.12
500.183	9.89
500.383	10.01
500.584	10.6
500.784	11
500.984	11.15
501.184	11.04
501.385	10.7
501.585	10.86
501.785	11.22
501.985	11.26
502.185	11.72
502.386	12.12
502.586	12.05
502.786	11.92
502.986	11.67
503.186	11.22
503.386	11.89
503.586	11.86
503.786	11.53
503.987	11.54
504.187	11.67
504.387	11.78
504.587	12.32
504.787	12.35
504.987	12.61
505.187	13.07
505.387	13.3
505.587	13.57
505.786	13.36
505.986	13.87
506.186	13.59
506.386	13.59
506.586	13.33
506.786	12.56
506.986	12.61
507.186	12.46
507.386	12.6
507.585	12.52
507.785	12.42
507.985	12.88
508.185	12.79
508.384	13.26
508.584	13.43
508.784	13.74
508.984	13.96
509.183	14.05
509.383	13.97
509.583	13.7
509.782	14.08
509.982	14.02
510.182	14.18
510.381	14.04
510.581	13.91
510.781	13.74
510.98	13.17
511.18	13.74
511.379	13.46
511.579	13.1
511.778	13.18
511.978	13.32
512.177	12.97
512.377	12.78
512.576	13.08
512.776	13.12
512.975	12.99
513.175	13.49
513.374	13.1
513.573	13.83
513.773	14.21
513.972	14.21
514.172	14.33
514.371	15.09
514.57	15.05
514.77	15.72
514.969	15.1
515.168	15.96
515.367	15.85
515.567	15.95
515.766	15.53
515.965	16.17
516.164	16.55
516.364	16.31
516.563	16.28
516.762	16.39
516.961	15.78
517.16	16.13
517.359	15.78
517.559	16.02
517.758	16.26
517.957	16.24
518.156	16.25
518.355	16.14
518.554	16.47
518.753	16.43
518.952	16.73
519.151	17.01
519.35	17.48
519.549	17.94
519.748	17.93
519.947	17.87
520.146	18.3
520.345	18.26
520.544	18.79
520.743	19.11
520.942	19.01
521.141	18.89
521.339	19.03
521.538	18.86
521.737	18.71
521.936	18.87
522.135	19.3
522.333	19.48
522.532	19.76
522.731	19.01
522.93	18.74
523.129	18.85
523.327	19.04
523.526	19.28
523.725	19.63
523.923	19.36
524.122	19.37
524.321	19.73
524.519	19.89
524.718	19.78
524.917	20.3
525.115	20.47
525.314	20.71
525.512	20.52
525.711	20.33
525.909	20.07
526.108	20.25
526.306	20.34
526.505	19.95
526.703	19.86
526.902	19.85
527.1	19.94
527.299	19.81
527.497	19.69
527.696	19.72
527.894	19.8
528.092	19.9
528.291	19.87
528.489	19.9
528.688	20
528.886	20.1
529.084	20.18
529.283	19.94
529.481	20.19
529.679	20.33
529.877	20.75
530.076	20.88
530.274	20.94
530.472	21.28
530.67	21.42
530.869	21.41
531.067	21.65
531.265	22.03
531.463	22.41
531.661	22.15
531.859	22.2
532.057	21.93
532.255	21.97
532.454	22.31
532.652	22.13
532.85	22.43
533.048	22.42
533.246	22.23
533.444	22.02
533.642	22.08
533.84	22.55
534.038	22.87
534.236	23.02
534.434	23.28
534.632	23.12
534.83	23.26
535.027	22.65
535.225	23.16
535.423	23.5
535.621	23.97
535.819	23.58
536.017	23.5
536.215	23.54
536.412	23.93
536.61	23.94
536.808	24.41
537.006	24.88
537.203	25.69
537.401	25.73
537.599	25.51
537.797	25.45
537.994	26.32
538.192	26.5
538.39	26.27
538.587	26.36
538.785	26.12
538.983	26.01
539.18	25.65
539.378	25.17
539.575	25.43
539.773	25.64
539.97	25.63
540.168	25.26
540.366	25.3
540.563	25.39
540.761	25.38
540.958	25.68
541.155	25.66
541.353	25.81
541.55	26.05
541.748	26.01
541.945	25.85
542.143	25.87
542.34	26.3
542.537	26.15
542.735	26.37
542.932	26.27
543.129	26.15
543.327	26.15
543.524	26.3
543.721	26.08
543.919	26.16
544.116	26.62
544.313	26.83
544.51	26.62
544.708	27.08
544.905	27.16
545.102	27.06
545.299	26.99
545.496	27.03
545.693	27.23
545.891	27.54
546.088	27.67
546.285	27.88
546.482	28.33
546.679	28.64
546.876	28.5
547.073	28.38
547.27	28.81
547.467	29.03
547.664	29.06
547.861	29.1
548.058	29.18
548.255	29
548.452	29.05
548.649	28.6
548.846	28.71
549.043	29.16
549.24	29.53
549.437	29.1
549.633	29.16
549.83	29.65
550.027	29.78
550.224	29.98
550.421	29.88
550.618	30.25
550.814	30.2
551.011	29.82
551.208	29.63
551.405	29.82
551.601	30.06
551.798	30.46
551.995	30.57
552.191	30.36
552.388	30.35
552.585	30.46
552.781	30.36
552.978	30.39
553.175	31.13
553.371	31.01
553.568	30.86
553.764	31.42
553.961	31.29
554.157	31.28
554.354	31.52
554.55	31.92
554.747	32.8
554.943	32.85
555.14	33.58
555.336	33.81
555.533	33.94
555.729	33.86
555.926	33.81
556.122	34.05
556.318	33.82
556.515	34.03
556.711	34.23
556.907	33.68
557.104	33.86
557.3	33.39
557.496	33.11
557.693	33.07
557.889	33.8
558.085	33.91
558.281	34.39
558.478	34.66
558.674	34.05
558.87	33.56
559.066	33.16
559.262	33.24
559.459	33.76
559.655	33.88
559.851	34.51
560.047	34.04
560.243	34.07
560.439	33.71
560.635	34.03
560.831	35.14
561.027	35.07
561.223	35.45
561.419	35.59
561.615	35.35
561.811	35.25
562.007	35.11
562.203	35.24
562.399	35.5
562.595	35.84
562.791	35.25
562.987	34.3
563.183	34.67
563.379	35.04
563.575	34.93
563.771	34.96
563.966	34.75
564.162	34.41
564.358	34.13
564.554	34.02
564.75	33.54
564.945	34.4
565.141	34.73
565.337	34.75
565.533	34.64
565.728	34.63
565.924	34.47
566.12	34.82
566.315	35.05
566.511	35.3
566.707	35.3
566.902	35.11
567.098	34.76
567.293	34.89
567.489	34.84
567.684	34.97
567.88	34.75
568.076	35.09
568.271	35.21
568.467	35.11
568.662	35.22
568.858	35.25
569.053	34.94
569.248	34.62
569.444	34.57
569.639	34.7
569.835	35.17
570.03	35.26
570.225	35.19
570.421	35.37
570.616	35.49
570.812	36.18
571.007	35.79
571.202	35.8
571.397	36.34
571.593	36.13
571.788	36.17
571.983	35.25
572.178	35.59
572.374	35.57
572.569	35
572.764	35.2
572.959	34.71
573.154	35.24
573.35	35.72
573.545	35.87
573.74	36.34
573.935	36.37
574.13	36.48
574.325	35.89
574.52	35.87
574.715	36.5
574.91	36.51
575.105	36.28
575.3	36.13
575.495	36.5
575.69	36.13
575.885	36.3
576.08	36.42
576.275	37.43
576.47	38.18
576.665	38.26
576.86	38.08
577.055	38.01
577.25	38.43
577.444	39.02
577.639	38.98
577.834	39.81
578.029	40.1
578.224	40.87
578.418	40.41
578.613	40.34
578.808	40.3
579.003	40.51
579.197	40.86
579.392	41.8
579.587	41.51
579.781	42.04
579.976	41.74
580.171	41.66
580.365	41.65
580.56	41.97
580.755	42.21
580.949	42.47
581.144	42.37
581.338	42.39
581.533	41.74
581.727	41.63
581.922	41.12
582.116	41.61
582.311	42.3
582.505	41.8
582.7	41.69
582.894	41.68
583.089	41.81
583.283	41.89
583.478	42.26
583.672	42.12
583.866	42.55
584.061	43.61
584.255	43.77
584.449	43.21
584.644	44.02
584.838	44.3
585.032	44.19
585.226	44.47
585.421	44.07
585.615	43.71
585.809	43.4
586.003	43.47
586.198	42.58
586.392	41.91
586.586	41.77
586.78	41.24
586.974	41.55
587.168	41.26
587.363	41.44
587.557	42.37
587.751	42.72
587.945	43.01
588.139	42.34
588.333	42.96
588.527	43.59
588.721	43.21
588.915	42.93
589.109	43.02
589.303	43.13
589.497	42.86
589.691	42.27
589.885	41.76
590.079	42.31
590.273	42.48
590.466	42.04
590.66	41.37
590.854	42.46
591.048	42.53
591.242	42.17
591.436	43.4
591.629	43.73
591.823	43.65
592.017	43.8
592.211	43.2
592.404	43.28
592.598	43.04
592.792	43.4
592.986	42.91
593.179	42.94
593.373	42.45
593.567	42.14
593.76	41.78
593.954	41.98
594.147	42.29
594.341	42.17
594.535	42.12
594.728	42.26
594.922	42.04
595.115	41.25
595.309	42.06
595.502	42.7
595.696	42.3
595.889	42.14
596.083	41.92
596.276	42.17
596.47	42.37
596.663	42.75
596.856	42.4
597.05	42.85
597.243	43.43
597.437	42.64
597.63	42.37
597.823	42.51
598.017	42.48
598.21	43.05
598.403	42.97
598.596	43.29
598.79	43.65
598.983	44.18
599.176	44.35
599.369	45
599.563	45.32
599.756	45.53
599.949	45.8
600.142	46.32
600.335	46.16
600.528	45.77
600.722	45.53
600.915	45.58
601.108	45.4
601.301	44.78
601.494	44.38
601.687	43.83
601.88	43.56
602.073	43.51
602.266	43.49
602.459	42.88
602.652	42.49
602.845	42.28
603.038	41.69
603.231	41.85
603.424	41.74
603.617	41.68
603.809	42.25
604.002	42.09
604.195	41.57
604.388	41.79
604.581	42.17
604.774	43.32
604.966	43.49
605.159	44.29
605.352	44.45
605.545	44.16
605.737	44.25
605.93	43.91
606.123	44.48
606.316	45.24
606.508	45.63
606.701	46.33
606.894	45.39
607.086	45.49
607.279	45.44
607.471	46.22
607.664	46.67
607.857	47.21
608.049	47.51
608.242	47.21
608.434	47.12
608.627	46.41
608.819	46.2
609.012	46.43
609.204	46.99
609.397	46.27
609.589	45.42
609.782	45.85
609.974	45.48
610.166	44.94
610.359	45.21
610.551	45.48
610.743	45.57
610.936	45.18
611.128	45.19
611.32	44.65
611.513	44.79
611.705	44.81
611.897	44.63
612.09	44.53
612.282	45.19
612.474	45
612.666	44.78
612.858	45.72
613.051	46.29
613.243	47.49
613.435	47.4
613.627	47.71
613.819	49.11
614.011	48.68
614.203	47.94
614.395	48.2
614.588	48.29
614.78	48.61
614.972	48.56
615.164	48.62
615.356	47.55
615.548	47.71
615.74	47.75
615.932	46.72
616.124	47.41
616.315	48.32
616.507	48.16
616.699	47.69
616.891	46.36
617.083	45.15
617.275	45.31
617.467	45.23
617.659	45.42
617.85	46
618.042	46.45
618.234	47.72
618.426	48.53
618.618	48.2
618.809	49.03
619.001	49.82
619.193	50.83
619.384	50.57
619.576	50.74
619.768	50.83
619.959	50.85
620.151	51.36
620.343	50.7
620.534	49.32
620.726	49.97
620.917	50.87
621.109	51.38
621.301	50.51
621.492	50.51
621.684	50.64
621.875	50.58
622.067	50.2
622.258	49.12
622.45	48.08
622.641	48.53
622.832	48.68
623.024	47.7
623.215	47.37
623.407	48.23
623.598	48.31
623.789	48.27
623.981	47.78
624.172	48.39
624.363	49.08
624.555	50.02
624.746	50.04
624.937	49.77
625.129	49.68
625.32	49.51
625.511	49.84
625.702	48.82
625.893	48.04
626.085	48.89
626.276	47.77
626.467	47.32
626.658	47.05
626.849	47
627.04	46.12
627.231	46.78
627.422	47.73
627.614	47.03
627.805	47.99
627.996	48.92
628.187	48.27
628.378	49.37
628.569	49.32
628.76	48.09
628.951	48.32
629.142	49.05
629.332	48.47
629.523	47.8
629.714	48.39
629.905	48.57
630.096	48.37
630.287	48.98
630.478	49.46
630.669	50.11
630.859	51.72
631.05	51.32
631.241	52.34
631.432	52.71
631.623	53.21
631.813	53.64
632.004	52.84
632.195	52.92
632.385	52.87
632.576	52.26
632.767	52.1
632.957	51.63
633.148	51.68
633.339	50.99
633.529	50.9
633.72	50.17
633.91	49.26
634.101	50.56
634.292	50.36
634.482	50.27
634.673	50.02
634.863	49.76
635.054	50.22
635.244	51.51
635.435	51.11
635.625	51.44
635.815	52.52
636.006	53.35
636.196	53.09
636.387	53.21
636.577	53.1
636.767	54.33
636.958	54.7
637.148	53.37
637.338	52.26
637.529	52.98
637.719	52.35
637.909	51.54
638.099	51.49
638.29	50.95
638.48	51.32
638.67	51.91
638.86	51.97
639.05	52.24
639.241	54.39
639.431	55.07
639.621	54.87
639.811	55.1
640.001	55.47
640.191	55.63
640.381	55.8
640.571	56.28
640.761	56.13
640.951	55.04
641.141	56.05
641.331	54.28
641.521	53.76
641.711	53.72
641.901	54.4
642.091	55.17
642.281	54.91
642.471	54.86
642.661	54.6
642.851	53.69
643.041	53.53
643.231	52.91
643.42	54.32
643.61	54.28
643.8	55.28
643.99	54.02
644.18	52.88
644.369	52.68
644.559	52.53
644.749	52.42
644.939	54.35
645.128	54.56
645.318	55.34
645.508	55.82
645.697	56.82
645.887	56.94
646.076	58.1
646.266	58.72
646.456	58.1
646.645	58.94
646.835	58.84
647.024	58.34
647.214	59.37
647.403	57.96
647.593	57.66
647.782	56.44
647.972	55.96
648.161	54.54
648.351	53.52
648.54	54.38
648.73	53.89
648.919	54.11
649.108	53.27
649.298	52.21
649.487	52.33
649.677	52.62
649.866	52.47
650.055	51.71
650.244	52.63
650.434	53.33
650.623	52.98
650.812	53.53
651.002	53.6
651.191	54.66
651.38	54.61
651.569	55.45
651.758	53.52
651.947	54.54
652.137	55.73
652.326	55.4
652.515	55.2
652.704	54.96
652.893	55.03
653.082	54.68
653.271	54.16
653.46	53.79
653.649	52.9
653.838	53.78
654.027	52.52
654.216	51.84
654.405	52.86
654.594	53.51
654.783	53.91
654.972	53.38
655.161	53.69
655.35	53.37
655.539	52.7
655.728	52.83
655.916	52.52
656.105	54.35
656.294	53.8
656.483	53.28
656.672	51.08
656.86	51.8
657.049	52.44
657.238	52.19
657.427	52.34
657.615	54.02
657.804	53.51
657.993	53.42
658.181	52.34
658.37	52.99
658.559	53.19
658.747	54.94
658.936	54.03
659.125	54.05
659.313	53.96
659.502	53.9
659.69	53.75
659.879	54
660.067	54.88
660.256	55.15
660.444	55.78
660.633	55.87
660.821	56.03
661.01	57.02
661.198	56.87
661.387	57.45
661.575	57.93
661.763	57.38
661.952	57.83
662.14	57.94
662.328	59.12
662.517	57.97
662.705	57.83
662.893	57.08
663.082	56.33
663.27	56.38
663.458	57.61
663.646	57.07
663.834	57.96
664.023	58.05
664.211	58.07
664.399	57.66
664.587	58.16
664.775	57.08
664.963	57.69
665.152	58.43
665.34	57.89
665.528	56.64
665.716	57.41
665.904	57.57
666.092	58.07
666.28	57.68
666.468	57.36
666.656	57.71
666.844	58.68
667.032	58.72
667.22	58.37
667.408	59.15
667.596	58.95
667.784	57.86
667.971	56.89
668.159	57.95
668.347	58.45
668.535	58.14
668.723	59.44
668.911	60.26
669.098	59.78
669.286	60.65
669.474	59.98
669.662	60.2
669.849	61.53
670.037	61.94
670.225	60.82
670.413	60.63
670.6	61.79
670.788	61.34
670.976	60.88
671.163	61.38
671.351	61.37
671.538	61.24
671.726	61.96
671.913	62.55
672.101	63.38
672.289	62.93
672.476	63.25
672.664	63.64
672.851	62.75
673.039	61.5
673.226	61.9
673.413	61.03
673.601	60.85
673.788	60.97
673.976	60.17
674.163	59.37
674.35	60.3
674.538	60.52
674.725	59.88
674.912	60.07
675.1	60.75
675.287	59.45
675.474	58.85
675.662	59.4
675.849	59
676.036	58.88
676.223	59.23
676.411	58.99
676.598	60.11
676.785	59.36
676.972	59.27
677.159	59.25
677.346	59.53
677.533	59.61
677.721	59.44
677.908	58.74
678.095	58.98
678.282	59.12
678.469	58.15
678.656	56.96
678.843	57.41
679.03	56.29
679.217	55.82
679.404	56.29
679.591	56.62
679.778	56.56
679.964	57.07
680.151	56.35
680.338	55.84
680.525	56.14
680.712	56.18
680.899	56.66
681.086	56.77
681.272	58.03
681.459	58.11
681.646	57.88
681.833	57.56
682.02	57.1
682.206	57.35
682.393	57.47
682.58	57.25
682.766	56.76
682.953	56.59
683.14	56.97
683.326	56.19
683.513	55.75
683.7	55.5
683.886	55.58
684.073	55.82
684.259	55.57
684.446	55.56
684.632	56.98
684.819	56.72
685.005	55.39
685.192	56.19
685.378	56.54
685.565	55.9
685.751	56.54
685.938	55.83
686.124	55.27
686.31	55.78
686.497	55.67
686.683	54.01
686.87	53.2
687.056	53.84
687.242	52.66
687.429	51.92
687.615	51.2
687.801	50.32
687.987	51.24
688.174	51.39
688.36	51.1
688.546	50.72
688.732	51.33
688.918	53.11
689.105	52.72
689.291	53.1
689.477	53.27
689.663	54.54
689.849	54.62
690.035	55.15
690.221	55.71
690.407	56.61
690.593	56.58
690.779	56.38
690.965	56.25
691.151	56.83
691.337	57.41
691.523	57.19
691.709	58.07
691.895	59.45
692.081	59.54
692.267	59.06
692.453	58.46
692.639	59.68
692.825	58.54
693.011	57.07
693.196	56.93
693.382	56.85
693.568	56.39
693.754	55.5
693.94	54.74
694.125	56.33
694.311	55.96
694.497	55.35
694.682	55.36
694.868	55.97
695.054	57.35
695.239	58.84
695.425	58.35
695.611	58.86
695.796	59.01
695.982	57.56
696.168	55.66
696.353	56.45
696.539	56.36
696.724	56.16
696.91	55.85
697.095	54.65
697.281	52.53
697.466	51.98
697.652	51.96
697.837	51.43
698.023	51.81
698.208	51.68
698.393	51.05
698.579	51.85
698.764	51.73
698.949	53.14
699.135	54.59
699.32	54.6
699.505	54.85
699.691	54.83
699.876	55.65
700.061	57.02
700.246	57.12
700.432	57.5
700.617	56.67
700.802	55.07
700.987	55.63
701.172	52.04
701.358	52.27
701.543	52.37
701.728	53.45
701.913	52.42
702.098	52.72
702.283	53.39
702.468	52.86
702.653	54.77
702.838	57.22
703.023	56.78
703.208	58.94
703.393	61.63
703.578	62.64
703.763	63.72
703.948	65
704.133	65.62
704.318	66.68
704.503	68.37
704.688	67.7
704.873	67.08
705.057	65.19
705.242	65.33
705.427	64.37
705.612	64.05
705.797	62.91
705.981	64.42
706.166	64.15
706.351	62.71
706.536	62.47
706.72	61.95
706.905	60.87
707.09	61.28
707.274	63.5
707.459	64.02
707.644	64.59
707.828	65.24
708.013	64.35
708.197	62.65
708.382	64.9
708.567	66.1
708.751	65.04
708.936	67.63
709.12	68.36
709.305	66.63
709.489	64.36
709.673	64.76
709.858	63.18
710.042	61.91
710.227	61.95
710.411	61.52
710.596	59.82
710.78	60.89
710.964	59.96
711.149	61.54
711.333	62.2
711.517	63.56
711.702	62.98
711.886	64.23
712.07	65.24
712.254	65.6
712.438	65.42
712.623	64.8
712.807	63.95
712.991	63.35
713.175	61.46
713.359	62.31
713.544	61.88
713.728	61.32
713.912	60.5
714.096	58.51
714.28	60.78
714.464	59.95
714.648	61.36
714.832	61.51
715.016	60.17
715.2	58.16
715.384	55.65
715.568	55.4
715.752	54.39
715.936	53.9
716.12	54.9
716.304	51.79
716.488	50.33
716.671	48.64
716.855	46.67
717.039	45.11
717.223	46.39
717.407	47.7
717.59	47.21
717.774	47.25
717.958	47.95
718.142	47.75
718.325	51.15
718.509	51.02
718.693	49.96
718.877	52.12
719.06	54.75
719.244	55.72
719.428	56.67
719.611	59.31
719.795	60.14
719.978	60.71
720.162	60.36
720.345	58.5
720.529	58.29
720.713	59.77
720.896	59.68
721.08	60.68
721.263	60.41
721.446	61.89
721.63	62.8
721.813	63.49
721.997	63.76
722.18	66.12
722.364	64.11
722.547	66.63
722.73	65.34
722.914	65.18
723.097	63.33
723.28	64.4
723.464	61.01
723.647	58.92
723.83	56.48
724.013	56.42
724.197	54.41
724.38	56.56
724.563	55
724.746	56.66
724.929	56.68
725.112	57.41
725.296	57.66
725.479	55.8
725.662	53.66
725.845	55.37
726.028	52.33
726.211	51.83
726.394	49.57
726.577	49.75
726.76	49.95
726.943	49.83
727.126	51.33
727.309	48.97
727.492	50.64
727.675	50.96
727.858	52.26
728.041	53.47
728.224	54.83
728.407	55.65
728.589	56.61
728.772	55.81
728.955	57.95
729.138	55.73
729.321	57.19
729.503	58.07
729.686	58.1
729.869	59.73
730.052	60.19
730.234	59.57
730.417	59.91
730.6	60.86
730.782	62.95
730.965	61.2
731.148	61.91
731.33	60.6
731.513	61.18
731.695	62.35
731.878	61.37
732.061	60.09
732.243	59.87
732.426	60.08
732.608	59.28
732.791	59.17
732.973	59.95
733.156	59.02
733.338	61.81
733.52	60.5
733.703	61.39
733.885	60.51
734.068	62.34
734.25	63.57
734.432	64.33
734.615	63.63
734.797	64.8
734.979	64.13
735.162	67.03
735.344	67.44
735.526	69.25
735.708	70.62
735.891	71.26
736.073	74.04
736.255	77.97
736.437	79.89
736.619	82.29
736.802	79.01
736.984	79.33
737.166	75.81
737.348	75.67
737.53	75.82
737.712	75.53
737.894	73.97
738.076	70.83
738.258	65.86
738.44	66.97
738.622	66.02
738.804	67.06
738.986	68.96
739.168	70.97
739.35	69.92
739.532	69.49
739.714	67.5
739.896	68.11
740.078	69.56
740.259	72.41
740.441	68.99
740.623	67.43
740.805	67.75
740.987	68.35
741.168	65.4
741.35	66.5
741.532	64.5
741.714	64.95
741.895	66.8
742.077	65.19
742.259	65.26
742.44	66.24
742.622	69.13
742.804	69.57
742.985	68.8
743.167	71.78
743.348	73.55
743.53	76.17
743.711	77.78
743.893	75.45
744.075	76.09
744.256	74.64
744.438	75.5
744.619	73.8
744.8	71.58
744.982	70.72
745.163	70.65
745.345	71.49
745.526	71.38
745.707	70.87
745.889	73.92
746.07	75.3
746.252	77.44
746.433	76.73
746.614	76.71
746.795	79.43
746.977	82.2
747.158	84.72
747.339	82.86
747.52	82.8
747.702	83.57
747.883	78.73
748.064	79.83
748.245	78.28
748.426	77.99
748.607	77.83
748.788	77.98
748.97	78.23
749.151	75.4
749.332	70.19
749.513	69.59
749.694	69.21
749.875	73.32
750.056	70.87
750.237	68.53
750.418	71.78
750.599	75.32
750.78	76.07
750.96	77.51
751.141	81.18
751.322	81.8
751.503	84.13
751.684	81.4
751.865	80.17
752.046	80.83
752.226	83.72
752.407	84.1
752.588	82.06
752.769	81
752.949	78.57
753.13	76.4
753.311	78.21
753.492	72.69
753.672	75.6
753.853	77.61
754.034	78.56
754.214	77.66
754.395	75.54
754.575	75.83
754.756	76.47
754.937	76.42
755.117	76.16
755.298	77.14
755.478	80.33
755.659	80.14
755.839	76.57
756.02	78.86
756.2	80.69
756.381	79
756.561	77.88
756.741	77.08
756.922	75.53
757.102	74.65
757.283	73.42
757.463	75.49
757.643	72.84
757.823	71.06
758.004	66.06
758.184	61.76
758.364	59.66
758.545	56.42
758.725	51.91
758.905	51.42
759.085	49.6
759.265	50.09
759.446	46.52
759.626	43.28
759.806	41.03
759.986	43.68
760.166	46.21
760.346	46.77
760.526	47.1
760.706	53.28
760.886	52.1
761.066	55.96
761.246	53.45
761.426	52.85
761.606	54.26
761.786	53.63
761.966	49.51
762.146	49.17
762.326	48.62
762.506	48.4
762.686	46.91
762.866	47.13
763.046	44.42
763.225	44.95
763.405	44.93
763.585	43.36
763.765	44.8
763.945	46.57
764.124	45.48
764.304	47.15
764.484	49.06
764.664	48.45
764.843	48.17
765.023	49.8
765.203	50.47
765.382	54.23
765.562	58.1
765.741	57.57
765.921	56.96
766.101	61.25
766.28	60.08
766.46	59.33
766.639	60.49
766.819	63.03
766.998	62.38
767.178	64.96
767.357	64.38
767.537	66.3
767.716	70.96
767.896	74.73
768.075	74.13
768.254	76.12
768.434	78.62
768.613	80.65
768.792	80.53
768.972	81.86
769.151	80.38
769.33	82.51
769.51	81.05
769.689	79.38
769.868	80.25
770.047	78.87
770.226	80.04
770.406	80.64
770.585	81.73
770.764	81.99
770.943	84.35
771.122	87.22
771.301	86.15
771.48	87.7
771.66	87.76
771.839	83.76
772.018	82.99
772.197	83.81
772.376	84.15
772.555	83.47
772.734	83.42
772.913	81.06
773.092	80.52
773.271	80.87
773.449	78.85
773.628	82.58
773.807	83.9
773.986	87.35
774.165	86.97
774.344	82.4
774.523	79.94
774.701	79.52
774.88	80.73
775.059	80.9
775.238	77.61
775.417	81.91
775.595	81.69
775.774	83.32
775.953	80.45
776.131	80.23
776.31	81.47
776.489	81.92
776.667	80.7
776.846	81.91
777.025	80.44
777.203	82.24
777.382	75.78
777.56	74.6
777.739	77.01
777.917	79.18
778.096	78.7
778.274	80.02
778.453	82.45
778.631	81.88
778.81	83.5
778.988	88.47
779.166	88.45
779.345	95.55
779.523	95.27
779.702	91.75
779.88	90.47
780.058	89.52
780.237	86.44
780.415	89.53
780.593	92.63
780.771	90.85
780.95	90.78
781.128	96.67
781.306	94.09
781.484	93.26
781.662	96.02
781.841	94.29
782.019	98.58
782.197	100.7
782.375	94.45
782.553	93.74
782.731	93.7
782.909	91.66
783.087	81.97
783.265	82.36
783.443	81.58
783.621	75.81
783.799	77
783.977	75.73
784.155	79.2
784.333	84.07
784.511	85.55
784.689	91.06
784.867	83.69
785.045	87.95
785.223	88.76
785.4	95.37
785.578	98.12
785.756	97.53
785.934	96.41
786.112	87.77
786.289	83.11
786.467	80.5
786.645	69.69
786.823	71.49
787	67.44
787.178	67.6
787.356	59.94
787.533	57.73
787.711	58.23
787.889	58.29
788.066	60.14
788.244	58.68
788.421	57.09
788.599	60.83
788.776	60.95
788.954	64.86
789.131	67.32
789.309	69.11
789.486	71.54
789.664	76.14
789.841	75.93
790.019	80.66
790.196	83.84
790.373	81.57
790.551	81.2
790.728	81.2
790.906	82.34
791.083	70.63
791.26	71.84
791.437	70.67
791.615	68.72
791.792	64.57
791.969	57.25
792.146	54.4
792.324	63.98
792.501	68.49
792.678	68.23
792.855	66.12
793.032	71.68
793.209	69.5
793.387	71.66
793.564	65.89
793.741	61.56
793.918	62.79
794.095	62.41
794.272	56.76
794.449	55.41
794.626	58.01
794.803	55.36
794.98	54.62
795.157	54.08
795.334	51.97
795.511	54.22
795.688	60.19
795.864	62.67
796.041	63.95
796.218	68.09
796.395	64.44
796.572	59.95
796.749	62.61
796.925	69.26
797.102	70.11
797.279	78.18
797.456	78.92
797.632	78.83
797.809	79.64
797.986	80.08
798.162	81.88
798.339	88.63
798.516	94.11
798.692	94.53
798.869	92.64
799.046	88.43
799.222	82.48
799.399	81.74
799.575	80.1
799.752	80.33
799.928	79.69
800.105	79.22
800.281	76.76
800.458	73.35
800.634	72.34
800.811	69.52
800.987	74.13
801.163	71.67
801.34	76.06
801.516	82.51
801.692	75.56
801.869	72.68
802.045	69.53
802.221	74.44
802.398	78.68
802.574	79.1
802.75	77.57
802.926	76.96
803.103	74.56
803.279	69.29
803.455	75.07
803.631	82.95
803.807	88.35
803.983	87.91
804.16	80.73
804.336	83.93
804.512	78.61
804.688	79.27
804.864	76.02
805.04	84.92
805.216	86.77
805.392	80.76
805.568	79.47
805.744	79.57
805.92	74.47
806.096	69.2
806.272	57.52
806.448	53.45
806.623	49.26
806.799	49.66
806.975	47.42
807.151	42.8
807.327	38.74
807.503	41.42
807.678	47.49
807.854	52.78
808.03	58.49
808.206	67.17
808.381	63.64
808.557	70.23
808.733	68.41
808.908	65.09
809.084	70.99
809.26	70.1
809.435	71.81
809.611	69.49
809.787	74.53
809.962	71.71
810.138	67.02
810.313	71.83
810.489	75.61
810.664	75.53
810.84	76.29
811.015	77
811.191	79.31
811.366	77.54
811.542	72.29
811.717	72.11
811.892	72.49
812.068	76.73
812.243	73.9
812.419	71.99
812.594	83.32
812.769	80.69
812.944	68.09
813.12	63.94
813.295	62.58
813.47	67.81
813.645	58.98
813.821	59.86
813.996	63.92
814.171	68.99
814.346	64.8
814.521	50.69
814.697	48.56
814.872	57.1
815.047	52.08
815.222	54.93
815.397	55.8
815.572	56.49
815.747	55.86
815.922	58.51
816.097	57.9
816.272	56.1
816.447	60.43
816.622	67
816.797	63.76
816.972	70.14
817.147	69.99
817.322	66.77
817.496	67.3
817.671	67.71
817.846	62.85
818.021	59.35
818.196	58.57
818.371	53.33
818.545	51.48
818.72	48.55
818.895	44.71
819.069	43.53
819.244	45.53
819.419	44.57
819.594	42.36
819.768	43
819.943	44.32
820.117	41.6
820.292	41.62
820.467	39.35
820.641	39.94
820.816	39.16
820.99	37.37
821.165	35.29
821.339	34.03
821.514	32.69
821.688	31.07
821.863	30.13
822.037	30.99
822.212	30.8
822.386	30.94
822.56	31.37
822.735	32.2
822.909	32.94
823.084	32.43
823.258	33.81
823.432	35.04
823.606	35.62
823.781	36.55
823.955	36.47
824.129	36.56
824.303	36.8
824.478	36.53
824.652	35.84
824.826	35.56
825	39.07
825.174	38.49
825.348	37.45
825.523	39.86
825.697	40.33
825.871	39.9
826.045	40.91
826.219	40.61
826.393	40.61
826.567	39.72
826.741	39.93
826.915	38.21
827.089	38.4
827.263	41.86
827.437	41.19
827.611	41.19
827.784	43.22
827.958	43.55
828.132	45.64
828.306	46.89
828.48	48.73
828.654	49.88
828.827	51.11
829.001	54.35
829.175	54.64
829.349	58.28
829.522	56.92
829.696	55.94
829.87	55.77
830.044	50.81
830.217	51.47
830.391	51.19
830.565	56.71
830.738	56.75
830.912	53.69
831.085	44.58
831.259	44.95
831.432	52.12
831.606	49.33
831.779	57.6
831.953	61.93
832.126	58.62
832.3	56.82
832.473	55.62
832.647	54.99
832.82	51.72
832.994	54.4
833.167	49.72
833.34	45.45
833.514	48.8
833.687	44.2
833.86	43.84
834.034	44.65
834.207	45.67
834.38	43.6
834.553	46.48
834.727	48.51
834.9	50.45
835.073	51.13
835.246	52.49
835.419	50.06
835.593	52.36
835.766	54.15
835.939	53.46
836.112	60.85
836.285	64.42
836.458	60.71
836.631	66.07
836.804	62.94
836.977	64.55
837.15	70.36
837.323	76.2
837.496	77.77
837.669	71.51
837.842	75.4
838.015	63.63
838.188	60.96
838.361	65.66
838.533	59.2
838.706	60.6
838.879	60.59
839.052	68.12
839.225	59.07
839.398	65.9
839.57	79.22
839.743	78.81
839.916	81.62
840.088	83.02
840.261	76.72
840.434	77.27
840.607	83.72
840.779	88.86
840.952	89.21
841.124	105.69
841.297	89.83
841.47	83.09
841.642	89.75
841.815	92.11
841.987	99.78
842.16	113.15
842.332	120.69
842.505	119.74
842.677	113.86
842.85	104.65
843.022	88.43
843.194	90.37
843.367	89.9
843.539	81.86
843.712	85.68
843.884	77.82
844.056	75.52
844.229	70.12
844.401	65.66
844.573	75.23
844.745	70.93
844.918	73.39
845.09	80.03
845.262	85.09
845.434	80.66
845.606	71.47
845.779	70.58
845.951	55.99
846.123	62.54
846.295	73.45
846.467	51.2
846.639	59.89
846.811	81.03
846.983	84.83
847.155	81.59
847.327	85.62
847.499	87.31
847.671	86.98
847.843	97.05
848.015	83.6
848.187	81.9
848.359	100.94
848.531	106.04
848.703	90.53
848.875	74.93
849.047	88.78
849.218	100.69
849.39	135.91
849.562	150.65
849.734	163.52
849.905	217.49
850.077	196.31
850.249	117.52
850.421	123.45
850.592	98.18
850.764	118.25
850.936	103.53
851.107	110.01
851.279	96.32
851.451	104.04
851.622	108.29
851.794	118.16
851.965	122.48
852.137	107.38
852.308	103.6
852.48	138.62
852.651	123.12
852.823	134.46
852.994	107.63
853.166	162.15
853.337	120.43
853.509	119.15
853.68	100
853.851	111.05
854.023	125.07
854.194	159.97
854.365	132.53
854.537	146.09
854.708	136.16
854.879	139.67
855.05	108.37
855.222	141.32
855.393	101.55
855.564	100.3
855.735	94
855.906	107.45
856.078	105.68
856.249	94.8
856.42	109.53
856.591	89.53
856.762	92.92
856.933	83.22
857.104	83.44
857.275	188.39
857.446	285.71
857.617	133.64
857.788	196.02
857.959	135.37
858.13	296.27
858.301	135.08
858.472	146.45
858.643	100.16
858.814	124.57
858.985	119.14
859.155	102.2
859.326	105.34
859.497	110.34
859.668	94.34
859.839	70.94
860.009	67.78
860.18	56.02
860.351	53.62
860.522	59.54
860.692	42.73
860.863	25.05
861.034	22.52
861.204	21.14
861.375	23.37
861.546	39.65
861.716	65.74
861.887	80.76
862.057	80
862.228	89.12
862.398	107.8
862.569	101.46
862.739	104.35
862.91	129.36
863.08	118.63
863.251	111.36
863.421	88.58
863.592	86.49
863.762	81.91
863.932	73.8
864.103	86.63
864.273	103.36
864.443	120.34
864.614	124.94
864.784	117.93
864.954	121.74
865.125	98.01
865.295	146.22
865.465	153.54
865.635	134.67
865.805	189.93
865.976	141.13
866.146	118.22
866.316	99.15
866.486	89.24
866.656	78.11
866.826	77.84
866.996	89.34
867.166	76.22
867.336	66.2
867.506	73.21
867.676	70.8
867.846	72.36
868.016	49.22
868.186	61.33
868.356	63.55
868.526	75.4
868.696	67.24
868.866	61.09
869.036	39.97
869.206	59.68
869.376	49.93
869.545	74.36
869.715	67.58
869.885	73.53
870.055	80.08
870.224	85.97
870.394	81.43
870.564	84.99
870.734	87.08
870.903	82.99
871.073	83.26
871.243	80.66
871.412	77.3
871.582	89.5
871.751	81.86
871.921	65.34
872.091	66.53
872.26	61.47
872.43	77.46
872.599	81.5
872.769	116.59
872.938	120.66
873.108	133.7
873.277	117.86
873.446	93.41
873.616	126.01
873.785	130.97
873.955	133.71
874.124	155.73
874.293	98.44
874.463	103.46
874.632	109.44
874.801	102.82
874.971	85.96
875.14	68.58
875.309	81.62
875.478	51.09
875.647	78.39
875.817	130.96
875.986	151.96
876.155	168.38
876.324	77.43
876.493	87.45
876.662	71.48
876.831	73.26
877	74.76
877.17	65.77
877.339	81.11
877.508	52.84
877.677	56.14
877.846	50.66
878.015	60.79
878.184	79.56
878.352	69.2
878.521	62.67
878.69	83.98
878.859	80.61
879.028	87.04
879.197	88.17
879.366	85.38
879.534	68.48
879.703	53.86
879.872	43.47
880.041	40.02
880.21	33.4
880.378	38.89
880.547	28.53
880.716	22.27
880.884	20.78
881.053	19.45
881.222	22.28
881.39	21.28
881.559	26.05
881.727	28.48
881.896	30.31
882.065	28.59
882.233	27.21
882.402	29.66
882.57	30.05
882.739	31.15
882.907	31.43
883.076	32.19
883.244	34.14
883.412	33.57
883.581	31.8
883.749	29.18
883.918	33.64
884.086	29.7
884.254	21.05
884.423	26.27
884.591	23.56
884.759	24.15
884.927	18.16
885.096	20.73
885.264	10.25
885.432	14.81
885.6	13.67
885.769	1.15
885.937	5.91
886.105	11.14
886.273	2.36
886.441	-8.8
886.609	-14.22
886.777	-1.05
886.945	-26.85
887.113	-22.29
887.281	-39.68
887.449	-56.56
887.617	-37.75
887.785	-49.12
887.953	-36.72
888.121	-65.73
888.289	-77.26
888.457	-84.65
888.625	-132.16
888.793	-101.97
888.961	-156.52
889.129	-152.08
889.296	-144.58
889.464	-108.7
889.632	-87.96
889.8	-90.73
889.967	-58.43
890.135	-3.49
