Data from JASIL_3262_Reflection_2.txt Node
Date: Mon Nov 16 20:53:20 EST 2015
User: Geneva
Spectrometer: USB4E03002
Autoset integration time: false
Trigger mode: 4
Integration Time (sec): 1.000000E-1
Scans to average: 10
Electric dark correction enabled: false
Nonlinearity correction enabled: false
Boxcar width: 5
Stray light correction enabled: false
XAxis mode: Wavelengths
Stop averaging: false
Number of Pixels in Spectrum: 3648
>>>>>Begin Spectral Data<<<<<
177.575	-645.3
177.794	-689.29
178.014	-686.14
178.233	-1220.56
178.452	-1765.06
178.672	-1194.7
178.891	-1429.25
179.11	4327.03
179.33	1363.39
179.549	-7068.18
179.768	1429.66
179.987	1901.08
180.207	1146.45
180.426	648.08
180.645	655.36
180.864	1211.69
181.084	538.82
181.303	504.86
181.522	955.91
181.741	3184.51
181.96	682.91
182.179	879.93
182.398	992
182.618	912.29
182.837	919.75
183.056	860.32
183.275	502.78
183.494	484.65
183.713	523.7
183.932	428.95
184.151	411.16
184.37	405.54
184.589	322.6
184.808	299.87
185.027	304.38
185.246	364.42
185.465	550.37
185.684	632.03
185.903	2657.47
186.122	1122.87
186.341	1403.37
186.56	709.21
186.779	1379.27
186.998	2016.92
187.216	1909.45
187.435	1519.16
187.654	1397.84
187.873	627.99
188.092	515.87
188.311	461.67
188.53	680.41
188.748	625.47
188.967	1520
189.186	730.27
189.405	763.64
189.623	835.19
189.842	777.78
190.061	865.55
190.28	2241.03
190.498	-2138.75
190.717	1476.98
190.936	-2969.49
191.154	-1466.96
191.373	-30766.67
191.592	-17181.82
191.81	-1072.99
192.029	-1354.96
192.248	-378.61
192.466	-340.58
192.685	-421.47
192.904	-610.26
193.122	-418.67
193.341	-928.65
193.559	-921.32
193.778	-1038.79
193.996	-1305.34
194.215	47825
194.433	-4540.48
194.652	1008.37
194.87	861.04
195.089	745.41
195.307	877.89
195.526	2805.08
195.744	1461.4
195.963	963.19
196.181	21387.5
196.399	-1508.55
196.618	8265
196.836	27466.67
197.055	-1372.95
197.273	-3043.1
197.491	-1982.22
197.71	-3586.27
197.928	2405
198.146	4359.52
198.365	-18720
198.583	886.15
198.801	1144.44
199.019	2619.48
199.238	-4704.76
199.456	2030.19
199.674	895.34
199.892	700.9
200.111	903.08
200.329	879.25
200.547	684.23
200.765	615.45
200.983	690.66
201.202	541.67
201.42	875.98
201.638	568.4
201.856	668.75
202.074	1921.49
202.292	2309.09
202.51	1532.65
202.728	2295.88
202.946	-5700
203.165	7321.21
203.383	-2440.21
203.601	-2747.67
203.819	4842
204.037	24200
204.255	2535.05
204.473	1152.34
204.691	1628.67
204.909	1025.71
205.127	1094.42
205.345	1210.23
205.562	1006.44
205.78	659.06
205.998	753.88
206.216	656.07
206.434	607.09
206.652	545.15
206.87	407.11
207.088	337.52
207.306	433.64
207.523	417.33
207.741	334.47
207.959	350.41
208.177	396.91
208.395	337.62
208.612	389.62
208.83	372.88
209.048	408.47
209.266	526.05
209.483	557.41
209.701	445.09
209.919	508.14
210.136	531.73
210.354	1233
210.572	1160.63
210.79	1787.41
211.007	1019.65
211.225	1608.53
211.442	-8790.48
211.66	-2447.22
211.878	-1038.19
212.095	386.26
212.313	388.36
212.53	525.91
212.748	311.6
212.966	284.65
213.183	261.87
213.401	266.95
213.618	260.83
213.836	308.76
214.053	323.69
214.271	311.49
214.488	1643.7
214.705	916.51
214.923	683.87
215.14	728.83
215.358	618.46
215.575	985.85
215.793	1050.23
216.01	1406.13
216.227	514.04
216.445	372.99
216.662	426.61
216.879	447.69
217.097	383.25
217.314	418.76
217.531	520.19
217.749	570.47
217.966	691.33
218.183	554.27
218.4	659.93
218.618	791.73
218.835	800
219.052	575.8
219.269	479.82
219.487	762.5
219.704	541.07
219.921	387.98
220.138	297.78
220.355	293.48
220.572	318.71
220.79	356.09
221.007	411.2
221.224	589.67
221.441	506.96
221.658	631.21
221.875	396.37
222.092	400
222.309	622.1
222.526	656.85
222.743	581.63
222.96	730.19
223.177	325.9
223.394	391.85
223.611	264.32
223.828	321.18
224.045	325.57
224.262	408.54
224.479	292.57
224.696	229.51
224.913	295.22
225.13	236.01
225.347	203.43
225.564	197.37
225.781	149.14
225.997	155
226.214	125.32
226.431	109.48
226.648	92
226.865	84.84
227.082	78.89
227.298	66.47
227.515	60.83
227.732	53.54
227.949	46.73
228.165	42.44
228.382	32.3
228.599	30.49
228.816	31.86
229.032	33.64
229.249	32.5
229.466	34.64
229.682	37.39
229.899	36.93
230.116	41.28
230.332	45.8
230.549	51.36
230.765	57.41
230.982	63.68
231.199	64.48
231.415	69.53
231.632	78.59
231.848	77.86
232.065	81.29
232.281	81.85
232.498	92.47
232.714	97.03
232.931	93.01
233.147	95.6
233.364	99.83
233.58	96.04
233.797	98.41
234.013	91.81
234.23	94.84
234.446	84.31
234.662	81.62
234.879	78.27
235.095	77.38
235.312	80.27
235.528	82.3
235.744	84.13
235.961	83.47
236.177	76.87
236.393	86.65
236.61	93.15
236.826	94.18
237.042	97.96
237.258	97.26
237.475	96.38
237.691	92.38
237.907	94.48
238.123	93.46
238.339	90.11
238.556	87.75
238.772	77.55
238.988	69.81
239.204	74.24
239.42	70.15
239.636	65.53
239.853	60.35
240.069	54.84
240.285	49.71
240.501	46.28
240.717	42.17
240.933	37.21
241.149	35.21
241.365	30.93
241.581	29.25
241.797	27.21
242.013	28.34
242.229	27.13
242.445	28.91
242.661	30.11
242.877	30.18
243.093	30.81
243.309	34.27
243.525	34.88
243.741	38.45
243.957	38.87
244.173	40.12
244.388	39.78
244.604	40.83
244.82	40.81
245.036	35.8
245.252	31.35
245.468	29.22
245.683	25.94
245.899	24.43
246.115	22.76
246.331	20.45
246.547	19.37
246.762	18.53
246.978	18.79
247.194	18.08
247.409	18.08
247.625	19.88
247.841	21.34
248.057	23.07
248.272	24.77
248.488	27.35
248.703	31.27
248.919	34.6
249.135	37.18
249.35	38.72
249.566	41.63
249.782	43.25
249.997	44.42
250.213	41.77
250.428	42.65
250.644	44.31
250.859	43.83
251.075	41.31
251.29	39.85
251.506	37.96
251.721	39.64
251.937	39.36
252.152	38.76
252.368	37.85
252.583	41.02
252.798	41.72
253.014	38.97
253.229	39.12
253.445	41.44
253.66	44.67
253.875	47.5
254.091	46.87
254.306	47.49
254.521	49.46
254.737	48.35
254.952	47.93
255.167	48.16
255.383	50.8
255.598	49.46
255.813	46.77
256.028	44.41
256.244	43.64
256.459	41.67
256.674	39.57
256.889	39.55
257.104	37.59
257.32	33.66
257.535	28.96
257.75	25.19
257.965	23.2
258.18	21.95
258.395	18.51
258.61	16.42
258.826	16.24
259.041	16.95
259.256	16.13
259.471	16.43
259.686	16.38
259.901	16.58
260.116	16.87
260.331	17.4
260.546	17.3
260.761	18.74
260.976	19.66
261.191	20.44
261.406	19.48
261.621	21.67
261.836	22.43
262.05	23.1
262.265	24.75
262.48	25.35
262.695	25.49
262.91	25.03
263.125	26.58
263.34	27.37
263.555	27.78
263.769	29.07
263.984	27.84
264.199	29.91
264.414	30.69
264.629	30.24
264.843	29.22
265.058	30.39
265.273	30.14
265.488	28.77
265.702	27.99
265.917	28.41
266.132	27.13
266.346	26.21
266.561	24.71
266.776	25.16
266.99	24.83
267.205	24.49
267.42	21.18
267.634	21.45
267.849	21.37
268.063	21.93
268.278	22.35
268.492	21.89
268.707	23.54
268.922	22.51
269.136	22.92
269.351	22
269.565	22.06
269.78	23.71
269.994	24.11
270.209	23.74
270.423	22.69
270.637	21.7
270.852	21.24
271.066	19.51
271.281	20.79
271.495	19.49
271.709	20.18
271.924	20.81
272.138	20.96
272.353	20.38
272.567	19.45
272.781	19.39
272.996	18.71
273.21	20.06
273.424	19.78
273.638	18.47
273.853	18.55
274.067	18.79
274.281	20
274.495	20.15
274.71	20.92
274.924	20.88
275.138	21.3
275.352	21.45
275.566	21.38
275.781	21.93
275.995	23.25
276.209	23.65
276.423	24.29
276.637	22.36
276.851	23.69
277.065	24.28
277.279	26.61
277.493	25.89
277.707	25.32
277.921	25.13
278.135	26.47
278.349	27.18
278.563	27.3
278.777	25.99
278.991	25.43
279.205	23.95
279.419	22.8
279.633	22.75
279.847	23.23
280.061	24.87
280.275	24.44
280.489	23.65
280.703	22.07
280.917	22.67
281.131	22.24
281.344	23.36
281.558	24.46
281.772	24.08
281.986	23.07
282.2	23.49
282.414	21.38
282.627	21.72
282.841	20.7
283.055	21.58
283.269	21.19
283.482	22.02
283.696	21.92
283.91	20.14
284.123	19.92
284.337	19.55
284.551	18.14
284.764	18.48
284.978	17.58
285.192	18.3
285.405	17.52
285.619	16.82
285.833	16.68
286.046	16.16
286.26	15.84
286.473	16.42
286.687	16.99
286.9	17.42
287.114	18.19
287.327	18.82
287.541	18.84
287.754	18.63
287.968	18.16
288.181	18.77
288.395	17.93
288.608	19.94
288.822	20.65
289.035	20.04
289.248	19.4
289.462	18.42
289.675	18.45
289.889	18
290.102	17.67
290.315	18.94
290.529	17.46
290.742	18.02
290.955	17.62
291.169	16.42
291.382	16.32
291.595	19.56
291.808	20.16
292.022	20.18
292.235	20.7
292.448	22.22
292.661	21.52
292.875	23.61
293.088	24.57
293.301	23.34
293.514	21.95
293.727	21.2
293.94	17.98
294.153	19.27
294.367	19.53
294.58	18.66
294.793	18.62
295.006	19.07
295.219	17.73
295.432	16.84
295.645	16.44
295.858	17.33
296.071	17.86
296.284	17.94
296.497	16.87
296.71	16.57
296.923	17.58
297.136	16
297.349	15.64
297.562	16.09
297.775	16.22
297.988	16.21
298.201	17.03
298.414	16.33
298.626	17.46
298.839	18.35
299.052	17.95
299.265	17.5
299.478	19.13
299.691	18.65
299.903	18.73
300.116	19.18
300.329	19.97
300.542	19.76
300.755	21.53
300.967	20.93
301.18	20.52
301.393	21.58
301.605	21.96
301.818	21.14
302.031	22.75
302.243	23.66
302.456	24.79
302.669	25.12
302.881	25.62
303.094	25.28
303.307	24.87
303.519	24.66
303.732	24.87
303.944	24.73
304.157	25.56
304.37	25.35
304.582	24.22
304.795	23.98
305.007	23.15
305.22	22.41
305.432	21.63
305.645	22.67
305.857	23.09
306.069	23.26
306.282	23.61
306.494	22.07
306.707	21.18
306.919	20.56
307.132	19.99
307.344	20.74
307.556	20.92
307.769	21.69
307.981	21.54
308.193	21.12
308.406	19.63
308.618	18.82
308.83	20.08
309.043	20.66
309.255	21.56
309.467	21.01
309.679	19.53
309.892	19.25
310.104	18.95
310.316	19.25
310.528	18.57
310.74	18.29
310.953	18.12
311.165	18.17
311.377	17.14
311.589	16.66
311.801	15.74
312.013	17.74
312.225	18.83
312.437	18.59
312.649	17.56
312.862	18.34
313.074	18.55
313.286	19.25
313.498	20.46
313.71	20.1
313.922	21.1
314.134	23.23
314.346	22.31
314.558	20.5
314.77	20.42
314.982	22.5
315.193	22.88
315.405	24.18
315.617	23.15
315.829	21.99
316.041	23.82
316.253	23.04
316.465	22.99
316.677	23.12
316.888	24.61
317.1	25.38
317.312	23.8
317.524	22.67
317.736	22.88
317.947	25.89
318.159	26.11
318.371	27.09
318.583	26.76
318.794	25.89
319.006	25.22
319.218	25.33
319.43	24.21
319.641	25.31
319.853	25.52
320.064	24.89
320.276	23.84
320.488	23.56
320.699	21.33
320.911	21.95
321.123	22.86
321.334	24.5
321.546	24.49
321.757	27.07
321.969	26.43
322.18	26.53
322.392	26.27
322.603	25.39
322.815	25.58
323.026	25.01
323.238	24.93
323.449	23.16
323.661	21.48
323.872	21.69
324.083	20.93
324.295	19.94
324.506	20.95
324.718	20.29
324.929	18.64
325.14	18.44
325.352	19.94
325.563	20.78
325.774	20.86
325.986	21.2
326.197	20.4
326.408	20.76
326.62	21.56
326.831	22.07
327.042	22.85
327.253	25.1
327.464	26.27
327.676	25.36
327.887	24.95
328.098	25.66
328.309	26.79
328.52	28.08
328.732	27.37
328.943	27.53
329.154	26.98
329.365	27.51
329.576	26.75
329.787	25.83
329.998	27.96
330.209	26.14
330.42	26.21
330.631	26.01
330.842	24.61
331.053	25.09
331.264	25.74
331.475	24.61
331.686	24.29
331.897	23.75
332.108	24.63
332.319	23.18
332.53	24.24
332.741	25.13
332.952	24.7
333.163	25.07
333.374	24.39
333.585	23.53
333.795	24.24
334.006	23.56
334.217	24.29
334.428	22.88
334.639	22.97
334.849	21.46
335.06	20.64
335.271	21.04
335.482	21.28
335.692	22.34
335.903	22.22
336.114	22.95
336.325	23.34
336.535	23.42
336.746	24.19
336.957	24.22
337.167	25.25
337.378	25.67
337.589	24.73
337.799	23.62
338.01	24.24
338.22	24.36
338.431	24.07
338.642	23.49
338.852	22.78
339.063	21.8
339.273	21.81
339.484	22.2
339.694	21.89
339.905	23
340.115	22.92
340.326	20.97
340.536	21.74
340.746	20.59
340.957	21.14
341.167	21.21
341.378	21.26
341.588	21.17
341.799	21.76
342.009	22.1
342.219	22.07
342.43	23.14
342.64	23.5
342.85	22.99
343.061	22.85
343.271	23.39
343.481	22.58
343.691	22.21
343.902	22.22
344.112	21.83
344.322	21.56
344.532	21.31
344.743	21.71
344.953	22.43
345.163	21.73
345.373	21.88
345.583	21.86
345.793	21.97
346.004	23.05
346.214	22.19
346.424	21.71
346.634	20.8
346.844	20.5
347.054	20.46
347.264	18.92
347.474	19.87
347.684	19.91
347.894	19.09
348.104	20.29
348.314	19.79
348.524	20.15
348.734	20.37
348.944	21.3
349.154	21.81
349.364	20.42
349.574	20.8
349.784	20.37
349.994	20.62
350.204	20.83
350.413	20.28
350.623	20.66
350.833	20.78
351.043	21.31
351.253	21.13
351.463	19.96
351.672	20.3
351.882	20.27
352.092	19.25
352.302	19.43
352.511	19.57
352.721	20.1
352.931	19.73
353.141	19.26
353.35	18.57
353.56	18.54
353.77	18.63
353.979	19.17
354.189	20.19
354.399	20.87
354.608	20.75
354.818	20.57
355.027	19.22
355.237	18.98
355.447	18.52
355.656	18.65
355.866	17.93
356.075	17.82
356.285	17.65
356.494	16.56
356.704	16.63
356.913	16.13
357.123	16.02
357.332	16.02
357.542	15.92
357.751	15.5
357.96	15.7
358.17	15.63
358.379	15.89
358.589	15.78
358.798	15.79
359.007	15.13
359.217	14.1
359.426	13.79
359.635	14.38
359.845	14
360.054	14.44
360.263	14.38
360.472	14.44
360.682	14.55
360.891	14.18
361.1	14.41
361.309	14.18
361.519	15.04
361.728	15.08
361.937	14.99
362.146	15.31
362.355	15.35
362.564	15
362.774	15.14
362.983	15.08
363.192	15.61
363.401	15.79
363.61	16
363.819	16.17
364.028	16.03
364.237	15.86
364.446	15.9
364.655	16.57
364.864	17.1
365.073	17.64
365.282	17.33
365.491	17.27
365.7	17.14
365.909	17.47
366.118	17.14
366.327	17.9
366.536	18.12
366.745	17.19
366.954	17.82
367.162	18.69
367.371	18.01
367.58	17.83
367.789	17.86
367.998	17.68
368.207	17.27
368.415	17.8
368.624	17.14
368.833	17.15
369.042	18.3
369.25	17.76
369.459	17.18
369.668	17.61
369.877	17.4
370.085	17.43
370.294	16.74
370.503	16.55
370.711	16.01
370.92	15.66
371.129	16.05
371.337	14.93
371.546	13.98
371.754	13.8
371.963	13.59
372.171	14.56
372.38	14.03
372.589	15.37
372.797	15.6
373.006	15.85
373.214	16.55
373.423	15.28
373.631	15.75
373.84	14.75
374.048	13.95
374.256	14.2
374.465	14.24
374.673	13.77
374.882	12.32
375.09	13.04
375.298	12.93
375.507	12.43
375.715	13.01
375.923	12.51
376.132	13.27
376.34	13.34
376.548	13.14
376.757	12.45
376.965	13.04
377.173	13.2
377.381	13.12
377.59	13.62
377.798	13.24
378.006	13.01
378.214	13.76
378.423	14.53
378.631	14.29
378.839	13.84
379.047	14.45
379.255	14.21
379.463	14.51
379.671	13.57
379.879	12.63
380.088	13.54
380.296	14.58
380.504	14.91
380.712	14.15
380.92	14.83
381.128	15.08
381.336	14.91
381.544	15.2
381.752	14.76
381.96	15.12
382.168	15.05
382.376	14.98
382.584	13.9
382.791	12.9
382.999	13.32
383.207	12.48
383.415	12.76
383.623	12.35
383.831	11.98
384.039	12.49
384.247	12.54
384.454	13.4
384.662	12.94
384.87	12.56
385.078	12.66
385.285	12.74
385.493	12.91
385.701	12.71
385.909	12.27
386.116	12.2
386.324	11.95
386.532	12.16
386.739	11.47
386.947	11.34
387.155	12.62
387.362	12.23
387.57	11.65
387.778	12.39
387.985	12.48
388.193	12.49
388.4	12.5
388.608	12.65
388.816	11.85
389.023	11.43
389.231	11.84
389.438	10.96
389.646	12.18
389.853	12.7
390.061	12.28
390.268	12.1
390.475	12.19
390.683	11.48
390.89	11.59
391.098	12.11
391.305	13.33
391.512	12.6
391.72	12.36
391.927	11.73
392.135	11.41
392.342	10.58
392.549	10.57
392.756	10.98
392.964	11.38
393.171	10.97
393.378	11.27
393.586	10.51
393.793	10.92
394	11.36
394.207	11.58
394.414	11.33
394.622	11.65
394.829	11.21
395.036	11.35
395.243	11.7
395.45	11.79
395.657	11.56
395.864	11.23
396.072	11.14
396.279	11.22
396.486	11.39
396.693	12.62
396.9	13.1
397.107	13.35
397.314	12.88
397.521	12.8
397.728	12.9
397.935	12.11
398.142	12.32
398.349	12.26
398.556	11.58
398.763	11.31
398.97	10.48
399.177	9.83
399.383	9.97
399.59	10.64
399.797	10.45
400.004	10.28
400.211	11.02
400.418	11.33
400.625	11.68
400.831	11.86
401.038	11.7
401.245	11.63
401.452	11.3
401.658	11.11
401.865	10.83
402.072	10.95
402.279	10.83
402.485	10.21
402.692	9.48
402.899	8.9
403.105	8.78
403.312	9.25
403.519	9.29
403.725	9.12
403.932	9.11
404.138	8.53
404.345	8.53
404.552	8.73
404.758	8.76
404.965	8.97
405.171	9.39
405.378	9.9
405.584	9.23
405.791	8.82
405.997	9.56
406.204	9.9
406.41	10.48
406.617	10.03
406.823	9.94
407.029	10.31
407.236	10.46
407.442	10.1
407.649	10.28
407.855	10.23
408.061	10.46
408.268	10.29
408.474	10.07
408.68	8.89
408.887	8.98
409.093	9.24
409.299	9.32
409.505	9.27
409.712	9.46
409.918	8.95
410.124	9.02
410.33	8.79
410.537	8.49
410.743	8.52
410.949	9.68
411.155	9.69
411.361	9.47
411.567	9.66
411.773	9.5
411.98	8.75
412.186	8.69
412.392	9.25
412.598	9.27
412.804	10.07
413.01	10.17
413.216	9.84
413.422	10.07
413.628	10.05
413.834	9.36
414.04	10.38
414.246	10.92
414.452	10.93
414.658	10.48
414.864	10.8
415.07	10.39
415.275	10.29
415.481	10.56
415.687	10.5
415.893	10.51
416.099	10.6
416.305	10.12
416.511	9.82
416.716	8.99
416.922	8.94
417.128	8.42
417.334	8.37
417.539	7.76
417.745	7.22
417.951	7.06
418.157	6.85
418.362	6.51
418.568	6.05
418.774	5.78
418.979	6.14
419.185	5.76
419.391	6.03
419.596	5.78
419.802	5.82
420.008	5.73
420.213	6.4
420.419	6.55
420.624	6.7
420.83	6.72
421.035	6.76
421.241	6.58
421.446	6.84
421.652	6.44
421.857	6.39
422.063	6.62
422.268	6.75
422.474	6
422.679	5.88
422.885	5.96
423.09	5.71
423.295	5.51
423.501	5.54
423.706	5.45
423.911	5.35
424.117	5.31
424.322	5.14
424.527	4.84
424.733	4.77
424.938	4.72
425.143	4.6
425.349	4.73
425.554	5.05
425.759	5.34
425.964	5.05
426.169	5.24
426.375	5.52
426.58	5.73
426.785	6.12
426.99	6.31
427.195	6.29
427.4	5.89
427.605	6.77
427.811	6.6
428.016	6.58
428.221	7.16
428.426	7.56
428.631	7.6
428.836	7.32
429.041	7.15
429.246	7.39
429.451	8.02
429.656	8.56
429.861	7.84
430.066	8.1
430.271	8.17
430.476	7.7
430.681	7.89
430.886	7.49
431.09	7.41
431.295	7.49
431.5	7.09
431.705	6.34
431.91	6.04
432.115	6.11
432.32	6.15
432.524	5.97
432.729	6.12
432.934	5.76
433.139	5.76
433.343	6.01
433.548	5.76
433.753	5.76
433.958	6.15
434.162	6.22
434.367	6.41
434.572	6.31
434.776	6.48
434.981	6.52
435.186	6.76
435.39	7.04
435.595	6.96
435.799	6.82
436.004	6.7
436.209	6.63
436.413	6.56
436.618	6.27
436.822	6.6
437.027	6.21
437.231	5.88
437.436	5.39
437.64	4.89
437.845	4.91
438.049	5.23
438.253	5.28
438.458	4.76
438.662	4.87
438.867	4.59
439.071	4.27
439.275	4.37
439.48	4.66
439.684	4.76
439.888	5.13
440.093	5.25
440.297	5.17
440.501	5.43
440.706	5.81
440.91	6.01
441.114	6.03
441.318	6.28
441.523	6.34
441.727	6.44
441.931	6.73
442.135	6.63
442.339	6.37
442.543	6.3
442.748	6.53
442.952	6.27
443.156	5.89
443.36	6.03
443.564	5.97
443.768	5.57
443.972	5.65
444.176	5.51
444.38	5.72
444.584	5.56
444.788	5.32
444.992	4.94
445.196	5.14
445.4	5.36
445.604	5.42
445.808	5.27
446.012	5.42
446.216	4.97
446.42	4.75
446.624	4.7
446.828	4.69
447.032	4.99
447.235	5.05
447.439	4.93
447.643	4.73
447.847	4.72
448.051	4.89
448.254	4.98
448.458	4.95
448.662	4.96
448.866	5.01
449.069	5.24
449.273	5.35
449.477	5.39
449.681	5.69
449.884	5.71
450.088	5.93
450.292	5.61
450.495	5.8
450.699	6.41
450.902	6.47
451.106	6.36
451.31	6.65
451.513	6.56
451.717	6.2
451.92	6.09
452.124	6.14
452.327	5.83
452.531	6.12
452.734	5.98
452.938	6.1
453.141	6.13
453.345	6.13
453.548	5.77
453.752	5.8
453.955	6.28
454.158	6.07
454.362	6.19
454.565	6.51
454.769	6.54
454.972	6.75
455.175	6.42
455.379	6.7
455.582	6.52
455.785	6.5
455.988	6.12
456.192	5.64
456.395	5.89
456.598	5.72
456.801	5.7
457.005	5.63
457.208	5.27
457.411	5.49
457.614	5.4
457.817	5.58
458.021	5.71
458.224	5.83
458.427	5.72
458.63	5.53
458.833	5.52
459.036	5.3
459.239	5.03
459.442	4.94
459.645	4.75
459.848	4.87
460.051	4.63
460.254	4.55
460.457	4.49
460.66	4.61
460.863	4.59
461.066	4.52
461.269	4.59
461.472	4.69
461.675	5.04
461.878	5.47
462.081	5.37
462.284	5.61
462.486	5.89
462.689	6.06
462.892	6.4
463.095	6.68
463.298	7.25
463.5	7.42
463.703	7.56
463.906	7.38
464.109	6.95
464.311	7.18
464.514	7.44
464.717	7.14
464.92	7
465.122	6.86
465.325	6.64
465.528	6.19
465.73	5.8
465.933	5.69
466.135	5.82
466.338	5.84
466.541	5.55
466.743	5.33
466.946	5.43
467.148	5.6
467.351	5.47
467.553	5.78
467.756	5.97
467.958	6.23
468.161	6.29
468.363	6.21
468.566	6.1
468.768	6.1
468.971	6.22
469.173	6.03
469.375	6.13
469.578	6.3
469.78	5.88
469.983	5.63
470.185	5.99
470.387	6.15
470.59	6.46
470.792	6.48
470.994	6.36
471.196	6.3
471.399	6.42
471.601	6.33
471.803	6.14
472.005	6.28
472.208	6.27
472.41	5.45
472.612	5.45
472.814	5.03
473.016	5.16
473.218	5.14
473.421	4.97
473.623	4.94
473.825	4.68
474.027	4.97
474.229	5.1
474.431	5.2
474.633	5.55
474.835	5.48
475.037	5.72
475.239	5.66
475.441	6.09
475.643	6.45
475.845	6.65
476.047	6.77
476.249	6.59
476.451	6.23
476.653	6.11
476.855	6.04
477.057	6.07
477.258	5.66
477.46	5.6
477.662	5.29
477.864	4.98
478.066	4.73
478.268	4.85
478.469	4.63
478.671	4.61
478.873	4.58
479.075	4.61
479.276	4.63
479.478	4.74
479.68	4.74
479.882	4.58
480.083	4.58
480.285	4.54
480.487	4.68
480.688	4.93
480.89	4.94
481.091	4.92
481.293	4.8
481.495	4.56
481.696	4.55
481.898	4.35
482.099	4.29
482.301	4.13
482.502	3.86
482.704	3.55
482.905	3.31
483.107	3.19
483.308	3.08
483.51	2.9
483.711	2.9
483.913	2.81
484.114	2.91
484.315	2.88
484.517	2.83
484.718	2.9
484.92	2.93
485.121	2.91
485.322	2.96
485.524	3.01
485.725	3.17
485.926	3.06
486.127	3.12
486.329	3
486.53	3.07
486.731	3.15
486.932	3.12
487.134	3.18
487.335	3.21
487.536	3.22
487.737	3.34
487.938	3.34
488.139	3.44
488.341	3.32
488.542	3.33
488.743	3.37
488.944	3.42
489.145	3.38
489.346	3.45
489.547	3.54
489.748	3.56
489.949	3.24
490.15	3.32
490.351	3.25
490.552	3.32
490.753	3.33
490.954	3.23
491.155	3.29
491.356	3.38
491.557	3.29
491.758	3.25
491.959	3.11
492.159	3.44
492.36	3.5
492.561	3.73
492.762	3.78
492.963	3.86
493.164	3.91
493.364	3.83
493.565	3.97
493.766	4.31
493.967	4.56
494.167	4.62
494.368	4.55
494.569	4.6
494.769	4.51
494.97	4.87
495.171	4.93
495.371	5.17
495.572	5.19
495.773	5.22
495.973	5.04
496.174	4.8
496.375	5.17
496.575	5.05
496.776	4.76
496.976	4.41
497.177	4.28
497.377	4.33
497.578	4.26
497.778	4.37
497.979	4.4
498.179	4.36
498.38	4.54
498.58	4.65
498.78	4.7
498.981	4.97
499.181	5.36
499.382	5.38
499.582	5.29
499.782	5.08
499.983	5.02
500.183	4.92
500.383	4.71
500.584	4.85
500.784	4.87
500.984	5.11
501.184	4.86
501.385	4.89
501.585	4.7
501.785	5
501.985	5.31
502.185	5.44
502.386	5.41
502.586	5.68
502.786	5.45
502.986	5.4
503.186	5.45
503.386	5.77
503.586	5.69
503.786	6.01
503.987	5.59
504.187	5.66
504.387	5.79
504.587	5.76
504.787	5.89
504.987	6.02
505.187	6.2
505.387	6.21
505.587	6.07
505.786	6.03
505.986	6.13
506.186	6.29
506.386	6.24
506.586	6.12
506.786	6.23
506.986	6.12
507.186	6.4
507.386	6.06
507.585	5.99
507.785	6.08
507.985	6.24
508.185	6.11
508.384	6.02
508.584	6.1
508.784	5.96
508.984	6.07
509.183	6.09
509.383	5.89
509.583	5.82
509.782	5.91
509.982	6.08
510.182	6.25
510.381	6.35
510.581	6.69
510.781	6.5
510.98	6.74
511.18	6.81
511.379	6.87
511.579	6.72
511.778	6.99
511.978	7.04
512.177	6.88
512.377	6.66
512.576	6.49
512.776	6.34
512.975	6.47
513.175	6.61
513.374	6.61
513.573	6.52
513.773	6.72
513.972	6.7
514.172	6.62
514.371	6.94
514.57	7.19
514.77	7.43
514.969	7.68
515.168	7.92
515.367	7.89
515.567	8.11
515.766	8.45
515.965	8.55
516.164	8.55
516.364	8.68
516.563	8.56
516.762	8.48
516.961	8.33
517.16	8.28
517.359	8.06
517.559	8.16
517.758	7.95
517.957	7.76
518.156	7.87
518.355	8.03
518.554	7.81
518.753	7.86
518.952	7.8
519.151	8.02
519.35	8.12
519.549	8.24
519.748	8.28
519.947	8.27
520.146	8.56
520.345	8.58
520.544	8.5
520.743	8.95
520.942	9.06
521.141	9.47
521.339	9.49
521.538	9.44
521.737	9.43
521.936	9.24
522.135	9.18
522.333	9.14
522.532	9.14
522.731	9.18
522.93	8.99
523.129	8.64
523.327	8.64
523.526	8.77
523.725	8.92
523.923	9
524.122	8.93
524.321	9.25
524.519	9.4
524.718	9.32
524.917	9.39
525.115	9.42
525.314	9.69
525.512	9.52
525.711	9.47
525.909	9.47
526.108	9.43
526.306	9.71
526.505	9.64
526.703	9.41
526.902	9.4
527.1	9.3
527.299	9.29
527.497	9.15
527.696	9.14
527.894	9.08
528.092	8.93
528.291	8.96
528.489	8.83
528.688	8.83
528.886	8.82
529.084	8.8
529.283	8.91
529.481	8.94
529.679	9.1
529.877	9.13
530.076	9.27
530.274	9.59
530.472	9.81
530.67	9.92
530.869	10.03
531.067	10.24
531.265	10.42
531.463	10.45
531.661	10.62
531.859	10.59
532.057	10.72
532.255	10.79
532.454	10.69
532.652	10.61
532.85	10.59
533.048	10.72
533.246	10.65
533.444	10.77
533.642	10.93
533.84	10.88
534.038	11.03
534.236	11.21
534.434	11.1
534.632	11.2
534.83	11.33
535.027	11.53
535.225	11.47
535.423	11.76
535.621	11.64
535.819	11.63
536.017	11.54
536.215	11.48
536.412	11.24
536.61	11.4
536.808	11.43
537.006	11.46
537.203	11.7
537.401	11.76
537.599	11.75
537.797	11.88
537.994	11.87
538.192	12.29
538.39	12.54
538.587	12.73
538.785	12.86
538.983	12.93
539.18	13.03
539.378	12.94
539.575	13.08
539.773	13.07
539.97	13.08
540.168	13.03
540.366	12.86
540.563	12.75
540.761	12.74
540.958	12.72
541.155	12.67
541.353	12.62
541.55	12.51
541.748	12.46
541.945	12.53
542.143	12.42
542.34	12.58
542.537	12.53
542.735	12.63
542.932	12.65
543.129	12.76
543.327	12.86
543.524	12.89
543.721	13.11
543.919	13.41
544.116	13.62
544.313	13.92
544.51	13.88
544.708	14.22
544.905	14.42
545.102	14.65
545.299	14.79
545.496	14.84
545.693	15.07
545.891	15.03
546.088	14.93
546.285	14.97
546.482	15.06
546.679	15.01
546.876	15.05
547.073	14.88
547.27	14.78
547.467	14.69
547.664	14.89
547.861	14.88
548.058	14.91
548.255	15.13
548.452	15.16
548.649	15.51
548.846	16
549.043	16.02
549.24	16.27
549.437	16.41
549.633	16.5
549.83	16.55
550.027	16.72
550.224	16.89
550.421	16.87
550.618	16.92
550.814	16.69
551.011	16.8
551.208	16.67
551.405	16.63
551.601	16.85
551.798	16.88
551.995	16.71
552.191	16.68
552.388	16.72
552.585	16.71
552.781	16.52
552.978	16.37
553.175	16
553.371	16.13
553.568	16.46
553.764	16.55
553.961	16.5
554.157	16.89
554.354	17.23
554.55	17.38
554.747	17.42
554.943	17.38
555.14	17.72
555.336	18.17
555.533	18.63
555.729	18.48
555.926	18.81
556.122	18.94
556.318	19.05
556.515	18.85
556.711	19.03
556.907	19.28
557.104	19.56
557.3	19.61
557.496	19.5
557.693	19.12
557.889	19.36
558.085	19.35
558.281	19.74
558.478	19.52
558.674	19.89
558.87	19.55
559.066	19.4
559.262	19.15
559.459	19.12
559.655	19.28
559.851	19.54
560.047	19.42
560.243	19
560.439	19.12
560.635	19.28
560.831	19.21
561.027	19.38
561.223	19.43
561.419	20.04
561.615	20.46
561.811	20.32
562.007	20.58
562.203	20.7
562.399	20.73
562.595	20.54
562.791	20.49
562.987	20.57
563.183	20.89
563.379	20.91
563.575	21
563.771	20.66
563.966	20.74
564.162	20.26
564.358	20.31
564.554	20.45
564.75	20.2
564.945	20.05
565.141	19.81
565.337	19.57
565.533	19.79
565.728	19.57
565.924	19.48
566.12	19.54
566.315	19.74
566.511	19.56
566.707	19.7
566.902	19.75
567.098	19.97
567.293	20.19
567.489	20.08
567.684	19.58
567.88	19.48
568.076	19.6
568.271	19.77
568.467	19.59
568.662	19.61
568.858	19.4
569.053	19.87
569.248	19.94
569.444	19.72
569.639	20.06
569.835	20.16
570.03	20.11
570.225	19.99
570.421	19.92
570.616	19.83
570.812	19.63
571.007	19.56
571.202	19.24
571.397	19.17
571.593	19.21
571.788	18.93
571.983	19.13
572.178	19.57
572.374	19.74
572.569	19.49
572.764	19.7
572.959	20.17
573.154	20.54
573.35	20.77
573.545	20.9
573.74	21.14
573.935	21.53
574.13	21.39
574.325	21.01
574.52	20.87
574.715	21.43
574.91	21.58
575.105	21.33
575.3	21.44
575.495	21.46
575.69	21.29
575.885	21.46
576.08	21.65
576.275	22.11
576.47	22.31
576.665	22.79
576.86	22.21
577.055	22.27
577.25	22.42
577.444	22.1
577.639	22.01
577.834	22.66
578.029	22.41
578.224	22.2
578.418	22.23
578.613	22.53
578.808	22.5
579.003	23.05
579.197	23.09
579.392	23.18
579.587	23.31
579.781	23.52
579.976	23.12
580.171	23.57
580.365	23.49
580.56	23.62
580.755	23.82
580.949	23.43
581.144	23.39
581.338	23.52
581.533	23.13
581.727	23.13
581.922	22.72
582.116	22.91
582.311	22.39
582.505	22.71
582.7	22.21
582.894	22.2
583.089	22.68
583.283	22.98
583.478	23.14
583.672	23.83
583.866	23.89
584.061	23.96
584.255	23.63
584.449	23.72
584.644	23.68
584.838	23.96
585.032	23.74
585.226	23.62
585.421	23.69
585.615	23.64
585.809	23.65
586.003	23.62
586.198	24.11
586.392	24.55
586.586	24.85
586.78	25.05
586.974	25.07
587.168	24.72
587.363	24.6
587.557	24.26
587.751	24.27
587.945	23.83
588.139	24.2
588.333	24.08
588.527	23.77
588.721	23.84
588.915	23.81
589.109	24.08
589.303	24.28
589.497	24.37
589.691	24.58
589.885	24.11
590.079	24.54
590.273	24.4
590.466	24.5
590.66	24.9
590.854	25.05
591.048	24.79
591.242	24.49
591.436	24.81
591.629	25.07
591.823	24.78
592.017	25.22
592.211	25.47
592.404	25.7
592.598	25.4
592.792	24.91
592.986	24.84
593.179	25.05
593.373	25
593.567	25.07
593.76	24.42
593.954	24.46
594.147	24.38
594.341	24.26
594.535	24.15
594.728	24.12
594.922	24.13
595.115	23.86
595.309	23.83
595.502	24.04
595.696	24.05
595.889	24.25
596.083	24.52
596.276	24.75
596.47	24.74
596.663	24.57
596.856	24.96
597.05	24.92
597.243	24.8
597.437	24.93
597.63	24.87
597.823	24.9
598.017	25.05
598.21	24.72
598.403	24.84
598.596	25.29
598.79	25.49
598.983	25.44
599.176	25.63
599.369	26.14
599.563	26.09
599.756	26.07
599.949	26.31
600.142	26.39
600.335	26.83
600.528	26.6
600.722	25.8
600.915	25.39
601.108	25.56
601.301	25.67
601.494	25.44
601.687	25.69
601.88	25.7
602.073	25.4
602.266	25.03
602.459	25.14
602.652	25.25
602.845	25.49
603.038	25.4
603.231	25.19
603.424	25.16
603.617	25.09
603.809	24.67
604.002	24.55
604.195	24.34
604.388	24.55
604.581	24.32
604.774	24.33
604.966	24.08
605.159	24.48
605.352	24.4
605.545	24.73
605.737	24.93
605.93	25.39
606.123	25.73
606.316	25.79
606.508	26.13
606.701	26.46
606.894	26.67
607.086	26.86
607.279	26.95
607.471	26.79
607.664	26.74
607.857	26.64
608.049	26.25
608.242	25.98
608.434	25.72
608.627	25.78
608.819	25.71
609.012	25.08
609.204	24.93
609.397	25.03
609.589	25.19
609.782	24.85
609.974	24.68
610.166	24.75
610.359	24.69
610.551	25.41
610.743	25.38
610.936	25.2
611.128	25.71
611.32	26.07
611.513	25.9
611.705	26.56
611.897	27.11
612.09	27.53
612.282	27.73
612.474	27.94
612.666	27.64
612.858	27.19
613.051	27.56
613.243	27.79
613.435	27.72
613.627	27.98
613.819	27.54
614.011	28.44
614.203	28.51
614.395	28.15
614.588	28.74
614.78	28.87
614.972	29.7
615.164	29.96
615.356	29.41
615.548	29.72
615.74	29.75
615.932	30.26
616.124	29.25
616.315	29.86
616.507	30.86
616.699	30.47
616.891	30.54
617.083	30.27
617.275	29.64
617.467	29.99
617.659	29.43
617.85	29.76
618.042	29.16
618.234	29.26
618.426	28.65
618.618	28.62
618.809	28.61
619.001	28.69
619.193	29.06
619.384	29.82
619.576	30.15
619.768	30.55
619.959	30
620.151	30.01
620.343	30.27
620.534	30.51
620.726	29.62
620.917	29.84
621.109	29.94
621.301	29.73
621.492	29.19
621.684	29.46
621.875	29.86
622.067	29.48
622.258	29.58
622.45	29.55
622.641	29.4
622.832	29.52
623.024	29.2
623.215	28.66
623.407	28.4
623.598	28.67
623.789	27.63
623.981	27.67
624.172	27.69
624.363	27.49
624.555	27.22
624.746	26.96
624.937	26.97
625.129	27.35
625.32	27.53
625.511	27.47
625.702	27.13
625.893	27.56
626.085	27.17
626.276	28.06
626.467	27.88
626.658	27.88
626.849	27.54
627.04	27.64
627.231	27.43
627.422	27.73
627.614	28.3
627.805	28.34
627.996	28.64
628.187	28.76
628.378	28.46
628.569	29.11
628.76	29.5
628.951	29.35
629.142	29.32
629.332	29.18
629.523	28.85
629.714	28.22
629.905	28.89
630.096	28.24
630.287	28.44
630.478	28.2
630.669	28.37
630.859	28.51
631.05	29.27
631.241	29.68
631.432	29.82
631.623	30.11
631.813	30.11
632.004	29.13
632.195	28.74
632.385	28.57
632.576	28.55
632.767	28.52
632.957	28.09
633.148	28.19
633.339	27.83
633.529	27.73
633.72	27.78
633.91	28.31
634.101	28.67
634.292	29.55
634.482	29.79
634.673	29.81
634.863	29.87
635.054	29.81
635.244	29.52
635.435	30.08
635.625	30.64
635.815	30.07
636.006	29.89
636.196	29.81
636.387	29.4
636.577	29.64
636.767	29.83
636.958	29.79
637.148	29.97
637.338	30.4
637.529	30.17
637.719	29.69
637.909	30.46
638.099	30.95
638.29	31.43
638.48	32.23
638.67	32.07
638.86	32.53
639.05	32.05
639.241	32.1
639.431	32.34
639.621	32.81
639.811	32.78
640.001	32.78
640.191	31.95
640.381	32.23
640.571	32.11
640.761	31.83
640.951	31.8
641.141	32.45
641.331	32.58
641.521	32.77
641.711	32.48
641.901	32.97
642.091	33.21
642.281	33.27
642.471	32.95
642.661	32.94
642.851	32.98
643.041	32.51
643.231	32.65
643.42	32.45
643.61	32.31
643.8	32.67
643.99	32.34
644.18	31.88
644.369	32.06
644.559	32
644.749	31.66
644.939	31.82
645.128	31.66
645.318	31.65
645.508	31.84
645.697	32.09
645.887	31.23
646.076	30.83
646.266	31.04
646.456	31.07
646.645	31.35
646.835	31.28
647.024	31.07
647.214	31.39
647.403	30.91
647.593	30.29
647.782	29.98
647.972	30.17
648.161	31.04
648.351	31
648.54	31.01
648.73	31.02
648.919	30.86
649.108	30.54
649.298	30.96
649.487	30.79
649.677	31.94
649.866	32.06
650.055	32.27
650.244	32.03
650.434	31.33
650.623	31.36
650.812	30.86
651.002	31.44
651.191	32.11
651.38	32.26
651.569	32.69
651.758	32.36
651.947	32.48
652.137	32.54
652.326	32.07
652.515	32.51
652.704	32.91
652.893	33.66
653.082	33.68
653.271	34.43
653.46	33.96
653.649	33.8
653.838	33.12
654.027	32.77
654.216	32.74
654.405	33.67
654.594	33.85
654.783	34.16
654.972	33.51
655.161	33.61
655.35	32.62
655.539	32.43
655.728	33.05
655.916	33.16
656.105	33.21
656.294	32.52
656.483	32.14
656.672	31.75
656.86	30.58
657.049	30.83
657.238	29.98
657.427	29.28
657.615	28.73
657.804	28.49
657.993	28.45
658.181	27.88
658.37	28.81
658.559	28.9
658.747	29.18
658.936	29.69
659.125	29.76
659.313	30.15
659.502	30.47
659.69	31.32
659.879	31.07
660.067	31.5
660.256	31.76
660.444	31.49
660.633	31.47
660.821	31.39
661.01	31.45
661.198	30.84
661.387	30.66
661.575	30.5
661.763	30.52
661.952	30.81
662.14	31
662.328	30.97
662.517	30.83
662.705	30.81
662.893	31.18
663.082	31.27
663.27	31.58
663.458	31.59
663.646	31.88
663.834	31.56
664.023	32.17
664.211	31.92
664.399	32.07
664.587	32.29
664.775	32.73
664.963	33.11
665.152	33.53
665.34	34.01
665.528	33.8
665.716	34.09
665.904	34.34
666.092	33.8
666.28	34.18
666.468	34.42
666.656	34.67
666.844	34.69
667.032	34.35
667.22	34.01
667.408	33.89
667.596	33.86
667.784	34.11
667.971	34.6
668.159	34.5
668.347	33.39
668.535	34.17
668.723	33.7
668.911	33.37
669.098	34.04
669.286	34.29
669.474	33.99
669.662	35.14
669.849	35.39
670.037	34.87
670.225	34.47
670.413	35.77
670.6	34.82
670.788	35.14
670.976	34.79
671.163	34.27
671.351	34.06
671.538	33.84
671.726	34.01
671.913	34.01
672.101	33.31
672.289	34.54
672.476	33.29
672.664	33.94
672.851	34.37
673.039	35.35
673.226	34.4
673.413	34.25
673.601	34.44
673.788	33.93
673.976	33.47
674.163	34.46
674.35	33.64
674.538	34.9
674.725	34.72
674.912	35.38
675.1	34.73
675.287	34.75
675.474	36.11
675.662	36.9
675.849	37.86
676.036	38.25
676.223	38.17
676.411	37.78
676.598	37.29
676.785	38.04
676.972	37.34
677.159	38.11
677.346	39.18
677.533	38.49
677.721	37.81
677.908	37.31
678.095	36.86
678.282	36.44
678.469	36.55
678.656	36.33
678.843	35.52
679.03	34.9
679.217	34.24
679.404	34.16
679.591	33.76
679.778	33.71
679.964	33.53
680.151	34
680.338	33.5
680.525	33.68
680.712	33.89
680.899	33.8
681.086	34.72
681.272	35.15
681.459	35.31
681.646	35.44
681.833	35.81
682.02	35.95
682.206	35.97
682.393	37.04
682.58	36.62
682.766	35.93
682.953	36.39
683.14	35.58
683.326	36.3
683.513	36.11
683.7	35.8
683.886	35.33
684.073	34.57
684.259	34.82
684.446	35.49
684.632	36.19
684.819	37.48
685.005	37.47
685.192	37.43
685.378	37.09
685.565	37.16
685.751	36.85
685.938	37.68
686.124	37.92
686.31	37.64
686.497	37.11
686.683	36.61
686.87	36.5
687.056	35.7
687.242	35.87
687.429	35.32
687.615	35
687.801	35.52
687.987	35.92
688.174	36.65
688.36	36.51
688.546	36.08
688.732	36.6
688.918	36.51
689.105	37.56
689.291	37.94
689.477	37.97
689.663	38.51
689.849	38.93
690.035	38.42
690.221	38.2
690.407	38.32
690.593	38.19
690.779	38.94
690.965	38.38
691.151	38.18
691.337	37.83
691.523	37.06
691.709	36.86
691.895	36.56
692.081	36.36
692.267	36.09
692.453	36.22
692.639	35.96
692.825	35.6
693.011	36.45
693.196	36.33
693.382	37.49
693.568	39.28
693.754	39.45
693.94	39.4
694.125	40.15
694.311	40.43
694.497	40.67
694.682	41.6
694.868	41.8
695.054	41.63
695.239	42.26
695.425	42.15
695.611	40.05
695.796	40.12
695.982	40.49
696.168	39.44
696.353	39.2
696.539	38.9
696.724	38.34
696.91	38.3
697.095	37.66
697.281	36.72
697.466	35.94
697.652	35.41
697.837	34.45
698.023	34.08
698.208	33.87
698.393	33.53
698.579	33.15
698.764	33.08
698.949	32.96
699.135	33.26
699.32	33.12
699.505	33.15
699.691	33.99
699.876	34.54
700.061	35.06
700.246	35.33
700.432	36.07
700.617	36.7
700.802	37.13
700.987	37.55
701.172	38.41
701.358	40.08
701.543	39.87
701.728	40.91
701.913	42.45
702.098	42.97
702.283	44.78
702.468	45.18
702.653	45.56
702.838	46.02
703.023	45.47
703.208	45.04
703.393	44.4
703.578	45.49
703.763	46.15
703.948	44.76
704.133	44.7
704.318	44.77
704.503	44.89
704.688	44.85
704.873	44.32
705.057	45.52
705.242	44.35
705.427	45.51
705.612	46.66
705.797	47.45
705.981	48.17
706.166	46.84
706.351	45.77
706.536	46.31
706.72	45.75
706.905	46.06
707.09	45.6
707.274	46.78
707.459	45.31
707.644	44.01
707.828	42.84
708.013	43.45
708.197	44.28
708.382	44.52
708.567	43.65
708.751	43.94
708.936	44.03
709.12	42.39
709.305	41.73
709.489	41.68
709.673	41.65
709.858	42.25
710.042	41.38
710.227	40.46
710.411	41.26
710.596	41.24
710.78	41.36
710.964	41.33
711.149	42.4
711.333	43.14
711.517	43.88
711.702	44.33
711.886	43.22
712.07	43.3
712.254	44.31
712.438	43.42
712.623	44.12
712.807	43.38
712.991	42.63
713.175	41.78
713.359	41.81
713.544	41.24
713.728	40.41
713.912	40.21
714.096	40.58
714.28	40.15
714.464	40.01
714.648	39.38
714.832	40.49
715.016	40.34
715.2	40.71
715.384	40.02
715.568	39.78
715.752	40.12
715.936	41.14
716.12	40.61
716.304	41.01
716.488	40.55
716.671	40.85
716.855	40.16
717.039	40.87
717.223	41.15
717.407	41.76
717.59	42.02
717.774	43.32
717.958	43.47
718.142	44.25
718.325	45.08
718.509	46.26
718.693	46.68
718.877	46.69
719.06	47.05
719.244	47.35
719.428	47.35
719.611	48.25
719.795	46.84
719.978	46.4
720.162	45.65
720.345	46.03
720.529	45.03
720.713	45.65
720.896	45.7
721.08	45.7
721.263	47.47
721.446	48.53
721.63	50.09
721.813	51.03
721.997	52.3
722.18	53.69
722.364	53.87
722.547	55.19
722.73	54.04
722.914	56.1
723.097	56.72
723.28	56.95
723.464	57.79
723.647	55.38
723.83	55.51
724.013	54.82
724.197	54.38
724.38	52.71
724.563	51.67
724.746	52.96
724.929	52.32
725.112	53.7
725.296	52.02
725.479	50.43
725.662	50.29
725.845	49.72
726.028	49.75
726.211	49.76
726.394	50.26
726.577	50.53
726.76	49.53
726.943	49.37
727.126	47.83
727.309	46.48
727.492	47.55
727.675	47.93
727.858	47.26
728.041	48.02
728.224	47.07
728.407	46.63
728.589	47.94
728.772	47.48
728.955	47.22
729.138	48.31
729.321	48.43
729.503	48.61
729.686	48.94
729.869	49.37
730.052	48.19
730.234	48.56
730.417	48.26
730.6	47.45
730.782	47.61
730.965	46.62
731.148	44.99
731.33	44.56
731.513	43.68
731.695	43.32
731.878	42.86
732.061	42.8
732.243	42.28
732.426	42.62
732.608	42.86
732.791	42.52
732.973	43.61
733.156	44.17
733.338	46.49
733.52	46.67
733.703	47.14
733.885	47.5
734.068	47.12
734.25	47.74
734.432	48.08
734.615	47.88
734.797	47.62
734.979	47.88
735.162	48.55
735.344	48.28
735.526	48.35
735.708	48.46
735.891	48.25
736.073	49.55
736.255	50.4
736.437	50.46
736.619	51.2
736.802	52.17
736.984	51.69
737.166	51.36
737.348	50.86
737.53	50.59
737.712	50.82
737.894	50.41
738.076	49.96
738.258	49.62
738.44	50.47
738.622	50.09
738.804	50.84
738.986	50.56
739.168	51.31
739.35	50.83
739.532	50.55
739.714	49.86
739.896	50.75
740.078	50.43
740.259	49.94
740.441	50.38
740.623	50.77
740.805	50.47
740.987	51.41
741.168	50.52
741.35	51.93
741.532	52.35
741.714	51.33
741.895	51.78
742.077	50.87
742.259	51.28
742.44	50.23
742.622	50.74
742.804	51.55
742.985	51.6
743.167	52.52
743.348	51.85
743.53	53.98
743.711	56.11
743.893	56.17
744.075	58.43
744.256	58.22
744.438	59.67
744.619	60.18
744.8	59.01
744.982	60.36
745.163	63.65
745.345	62.24
745.526	60.76
745.707	62.09
745.889	61.43
746.07	61.81
746.252	61.33
746.433	59.08
746.614	60.01
746.795	60.62
746.977	60.17
747.158	56.17
747.339	58.13
747.52	57.76
747.702	54.54
747.883	56.39
748.064	55.47
748.245	56.58
748.426	58.01
748.607	54.52
748.788	56.09
748.97	55.58
749.151	56.82
749.332	56.37
749.513	57.2
749.694	58.93
749.875	58.58
750.056	59.12
750.237	59
750.418	61.61
750.599	64.5
750.78	61.75
750.96	61.07
751.141	59.03
751.322	60.18
751.503	57.86
751.684	60.45
751.865	59.96
752.046	59.86
752.226	59.86
752.407	56.9
752.588	55.59
752.769	55.72
752.949	55.45
753.13	57.02
753.311	54.52
753.492	56.27
753.672	55.95
753.853	57.2
754.034	58.19
754.214	55.43
754.395	55.8
754.575	57.37
754.756	57.68
754.937	62.28
755.117	62.65
755.298	64.43
755.478	65.81
755.659	64.93
755.839	64.16
756.02	65.08
756.2	68.28
756.381	67.74
756.561	67.71
756.741	69.77
756.922	65.69
757.102	65.44
757.283	67.17
757.463	63.74
757.643	63.82
757.823	64.22
758.004	62.43
758.184	62.56
758.364	63.33
758.545	63.94
758.725	62.03
758.905	62.09
759.085	60.81
759.265	57.52
759.446	58.4
759.626	58.76
759.806	57.91
759.986	56.48
760.166	57.51
760.346	56.7
760.526	53.28
760.706	54.39
760.886	54
761.066	55.87
761.246	56.72
761.426	56.99
761.606	54.17
761.786	52.56
761.966	53.17
762.146	51.68
762.326	50.75
762.506	50.59
762.686	49.69
762.866	48.94
763.046	47.96
763.225	47.29
763.405	46.31
763.585	45.97
763.765	46.38
763.945	45.58
764.124	45.94
764.304	47.89
764.484	48.75
764.664	47.91
764.843	48.8
765.023	49.32
765.203	49.91
765.382	49.47
765.562	51.8
765.741	51.93
765.921	53.96
766.101	54.64
766.28	53.74
766.46	53.69
766.639	54.77
766.819	55.17
766.998	54.84
767.178	54.74
767.357	57.33
767.537	59.11
767.716	60.69
767.896	60.04
768.075	59.2
768.254	57.25
768.434	57.96
768.613	60.14
768.792	62.48
768.972	62.54
769.151	64.44
769.33	66.5
769.51	64.22
769.689	68.59
769.868	67.13
770.047	67.32
770.226	69.63
770.406	66.81
770.585	64.67
770.764	62.24
770.943	64.97
771.122	65.4
771.301	64.64
771.48	66.06
771.66	64.29
771.839	67.57
772.018	68.58
772.197	71.35
772.376	74.49
772.555	76.73
772.734	76.29
772.913	75.17
773.092	74.23
773.271	73.32
773.449	74.09
773.628	69.46
773.807	70.89
773.986	69.73
774.165	67.06
774.344	71.91
774.523	67.36
774.701	69.36
774.88	71.62
775.059	72.46
775.238	72.84
775.417	70.98
775.595	74.81
775.774	71.8
775.953	74.11
776.131	75.22
776.31	70.39
776.489	73.79
776.667	68.62
776.846	66.84
777.025	67.87
777.203	69.56
777.382	65.85
777.56	64.27
777.739	65.33
777.917	68.01
778.096	68.21
778.274	70.47
778.453	68.23
778.631	76.29
778.81	73.86
778.988	72.66
779.166	70.46
779.345	75.5
779.523	77.44
779.702	80.36
779.88	79.8
780.058	80.03
780.237	79.55
780.415	82.35
780.593	77.74
780.771	82.1
780.95	82.22
781.128	82.68
781.306	80.34
781.484	79.08
781.662	75.92
781.841	72.22
782.019	70.14
782.197	68.35
782.375	67.12
782.553	66.43
782.731	61.62
782.909	61.91
783.087	63.77
783.265	67.54
783.443	68.1
783.621	68.48
783.799	68.81
783.977	72.35
784.155	76.3
784.333	78.5
784.511	79.43
784.689	85.76
784.867	85.84
785.045	88.16
785.223	86.76
785.4	86.64
785.578	87.25
785.756	87.38
785.934	84.42
786.112	81.48
786.289	79.36
786.467	79.87
786.645	77.04
786.823	77.42
787	75.03
787.178	76.74
787.356	74.87
787.533	75.53
787.711	74.18
787.889	73.63
788.066	73.44
788.244	76.15
788.421	76.52
788.599	78.03
788.776	79.74
788.954	79.1
789.131	74.21
789.309	75.27
789.486	73.81
789.664	75.39
789.841	75.1
790.019	76.46
790.196	76.02
790.373	76
790.551	75.53
790.728	76.06
790.906	77.15
791.083	84.91
791.26	84.81
791.437	85.55
791.615	89.89
791.792	91.53
791.969	90.45
792.146	89.01
792.324	89.28
792.501	91.43
792.678	89.27
792.855	89.49
793.032	86.34
793.209	89.53
793.387	88.36
793.564	85.1
793.741	87.41
793.918	92.28
794.095	92.55
794.272	95.27
794.449	93.72
794.626	98.26
794.803	96.33
794.98	88.96
795.157	86.66
795.334	88.73
795.511	86.26
795.688	82.72
795.864	78.88
796.041	79.66
796.218	78.62
796.395	75.18
796.572	74.37
796.749	76.3
796.925	81.05
797.102	78.08
797.279	78.66
797.456	84.47
797.632	89.55
797.809	92.06
797.986	95.85
798.162	97.23
798.339	106.37
798.516	109.09
798.692	108.72
798.869	113.28
799.046	116.2
799.222	109.35
799.399	102.98
799.575	103.79
799.752	101.01
799.928	98.78
800.105	94.74
800.281	89.2
800.458	86.63
800.634	82.84
800.811	80.95
800.987	88.41
801.163	90.7
801.34	91.3
801.516	85.13
801.692	86.86
801.869	83.58
802.045	82.41
802.221	83.83
802.398	83.11
802.574	86
802.75	88.32
802.926	87.89
803.103	90.18
803.279	90.67
803.455	90.48
803.631	99.8
803.807	102.66
803.983	112.17
804.16	117.77
804.336	120.75
804.512	119.28
804.688	122.88
804.864	123.5
805.04	123
805.216	125.85
805.392	132.88
805.568	124.08
805.744	119.11
805.92	112.1
806.096	108.55
806.272	106.25
806.448	105.53
806.623	104.86
806.799	105.73
806.975	103.51
807.151	100.59
807.327	99.26
807.503	97.26
807.678	105.06
807.854	102.29
808.03	102.17
808.206	103.86
808.381	106.34
808.557	98.87
808.733	98.1
808.908	96.75
809.084	96.48
809.26	98.11
809.435	102.61
809.611	101.3
809.787	101.71
809.962	107.38
810.138	107.78
810.313	107.04
810.489	104.11
810.664	100.76
810.84	94.16
811.015	91.9
811.191	90.33
811.366	88.01
811.542	91.34
811.717	91.86
811.892	88.41
812.068	90.85
812.243	91.45
812.419	101.12
812.594	105.19
812.769	112
812.944	121.14
813.12	117.52
813.295	118.45
813.47	114.68
813.645	118.12
813.821	115.17
813.996	117.2
814.171	120.67
814.346	122.61
814.521	118.97
814.697	125.11
814.872	118.42
815.047	122.4
815.222	118.9
815.397	114.38
815.572	115.47
815.747	119.73
815.922	112.09
816.097	111.07
816.272	106.45
816.447	102.66
816.622	100.16
816.797	100.85
816.972	100.54
817.147	95.82
817.322	95.98
817.496	89.98
817.671	87.26
817.846	87.03
818.021	86.13
818.196	82.94
818.371	84.8
818.545	81.63
818.72	81.17
818.895	80.57
819.069	82.51
819.244	86.12
819.419	86.31
819.594	77.03
819.768	72.1
819.943	65.64
820.117	61.98
820.292	58.45
820.467	57.88
820.641	54.2
820.816	50.06
820.99	48.31
821.165	44.43
821.339	42.45
821.514	42.2
821.688	41.89
821.863	41.33
822.037	41.02
822.212	40.05
822.386	39.32
822.56	38.71
822.735	39.35
822.909	39.3
823.084	39.14
823.258	39.97
823.432	40.62
823.606	40.9
823.781	41.95
823.955	42.74
824.129	44.24
824.303	45.22
824.478	47.74
824.652	48.41
824.826	47.63
825	49.89
825.174	48.93
825.348	48.75
825.523	49.01
825.697	48.67
825.871	47.56
826.045	46.74
826.219	48.53
826.393	47.7
826.567	47.44
826.741	51.76
826.915	50.38
827.089	52.81
827.263	53.73
827.437	55.24
827.611	55.83
827.784	59.76
827.958	62.91
828.132	62.77
828.306	63.42
828.48	65.48
828.654	65.52
828.827	67.44
829.001	69.41
829.175	70.99
829.349	75.23
829.522	80.51
829.696	79.57
829.87	80.45
830.044	85.1
830.217	87.09
830.391	88.91
830.565	87.05
830.738	92.92
830.912	92.1
831.085	94.75
831.259	90.6
831.432	90.15
831.606	98.69
831.779	98.21
831.953	88.47
832.126	87.8
832.3	85.75
832.473	82.48
832.647	81.59
832.82	77.8
832.994	76.14
833.167	72.67
833.34	70.21
833.514	64.16
833.687	64.02
833.86	63.98
834.034	65.54
834.207	64.28
834.38	68.23
834.553	66.75
834.727	71.01
834.9	73.58
835.073	78.71
835.246	81.15
835.419	84.29
835.593	84.75
835.766	89.25
835.939	89.79
836.112	97.14
836.285	94.83
836.458	100.51
836.631	97.01
836.804	99.94
836.977	99.01
837.15	102.41
837.323	106.73
837.496	110.49
837.669	117.2
837.842	121.51
838.015	120.38
838.188	126.58
838.361	123.42
838.533	119.07
838.706	120.95
838.879	120.48
839.052	125.87
839.225	134.47
839.398	131.36
839.57	127.65
839.743	123.27
839.916	125.88
840.088	114.97
840.261	118.21
840.434	130.52
840.607	124.76
840.779	134.03
840.952	125.51
841.124	118.02
841.297	127.46
841.47	127.9
841.642	135.76
841.815	145.9
841.987	180.6
842.16	185.85
842.332	202.14
842.505	219.41
842.677	206.39
842.85	243.07
843.022	248.12
843.194	251.09
843.367	257.27
843.539	251.81
843.712	204.42
843.884	178.62
844.056	188.4
844.229	171.13
844.401	176.84
844.573	177.89
844.745	166
844.918	181.39
845.09	178.29
845.262	202.38
845.434	190.75
845.606	221.14
845.779	209.52
845.951	214.41
846.123	191.93
846.295	188.86
846.467	182.35
846.639	184.38
846.811	169.41
846.983	166.16
847.155	161.45
847.327	153.81
847.499	151.9
847.671	189.36
847.843	167.32
848.015	229.55
848.187	209.83
848.359	226.95
848.531	244.21
848.703	252.05
848.875	318.92
849.047	308.31
849.218	394.5
849.39	395.87
849.562	328.2
849.734	333.04
849.905	266.03
850.077	319.29
850.249	454.49
850.421	501.25
850.592	472.27
850.764	388.28
850.936	372.04
851.107	437.52
851.279	489.2
851.451	396.34
851.622	341.51
851.794	301.25
851.965	265.46
852.137	227.67
852.308	220.85
852.48	207.29
852.651	216.06
852.823	206.29
852.994	184.45
853.166	174.95
853.337	183.1
853.509	217.18
853.68	291.18
853.851	294.15
854.023	361.11
854.194	339.48
854.365	396.38
854.537	356.87
854.708	493.18
854.879	845.13
855.05	788.48
855.222	674.7
855.393	404.99
855.564	422.11
855.735	390.07
855.906	306.33
856.078	330.71
856.249	377.6
856.42	373.44
856.591	346.46
856.762	337.52
856.933	408.75
857.104	466.88
857.275	544.96
857.446	333.09
857.617	330.31
857.788	332.79
857.959	293.19
858.13	264.67
858.301	297.16
858.472	340.59
858.643	352.73
858.814	379.08
858.985	339.78
859.155	324.29
859.326	430.93
859.497	424.42
859.668	391.01
859.839	664.44
860.009	431.81
860.18	335.89
860.351	268.63
860.522	285.37
860.692	232.17
860.863	241.12
861.034	235.72
861.204	214.32
861.375	220.56
861.546	218.53
861.716	199.25
861.887	224.28
862.057	290.26
862.228	241.58
862.398	228.41
862.569	226.75
862.739	236.89
862.91	238.51
863.08	302.87
863.251	308
863.421	322.53
863.592	310.66
863.762	309.35
863.932	244.25
864.103	293.13
864.273	253.91
864.443	304.09
864.614	260.71
864.784	277.68
864.954	261.06
865.125	280.88
865.295	294.43
865.465	308.24
865.635	353.62
865.805	344.81
865.976	355.96
866.146	388.07
866.316	422.05
866.486	610.97
866.656	417.95
866.826	426.84
866.996	375.33
867.166	346.59
867.336	318.17
867.506	245.61
867.676	241.6
867.846	219.29
868.016	227.97
868.186	207.65
868.356	196.56
868.526	219.13
868.696	230.42
868.866	245.19
869.036	228.14
869.206	215.25
869.376	266.32
869.545	255.99
869.715	304.15
869.885	317.74
870.055	357.71
870.224	386.69
870.394	589.71
870.564	458.95
870.734	458.93
870.903	433.74
871.073	505.96
871.243	403.17
871.412	414.26
871.582	314.73
871.751	307.61
871.921	286.49
872.091	269.43
872.26	223.83
872.43	165.42
872.599	176.91
872.769	197.71
872.938	194.52
873.108	247.61
873.277	272.48
873.446	332.95
873.616	293.9
873.785	334.84
873.955	460.3
874.124	353.23
874.293	994.36
874.463	1090.42
874.632	1400
874.801	1663.03
874.971	516.07
875.14	527.25
875.309	369.71
875.478	353.27
875.647	339.35
875.817	272.61
875.986	322.65
876.155	318.1
876.324	346.09
876.493	323.56
876.662	277.93
876.831	312.51
877	291.35
877.17	330.87
877.339	435.59
877.508	317.86
877.677	335.17
877.846	351.56
878.015	283.48
878.184	236.23
878.352	228.25
878.521	242.23
878.69	251.48
878.859	229.33
879.028	256.68
879.197	213.55
879.366	245.56
879.534	226.55
879.703	197.18
879.872	187.82
880.041	178.18
880.21	155.33
880.378	144.28
880.547	124.33
880.716	118.59
880.884	101.08
881.053	95.3
881.222	89.01
881.39	84.83
881.559	80.47
881.727	76.37
881.896	74.66
882.065	72.85
882.233	70.6
882.402	70.11
882.57	67.34
882.739	66.45
882.907	67.11
883.076	68.27
883.244	70.67
883.412	70.25
883.581	72.55
883.749	76.41
883.918	78.75
884.086	78.86
884.254	78.05
884.423	79.3
884.591	87.02
884.759	86.14
884.927	81.93
885.096	83.62
885.264	98.8
885.432	102.23
885.6	104.2
885.769	110.28
885.937	116.06
886.105	124.9
886.273	130.67
886.441	130.74
886.609	141.13
886.777	157.69
886.945	182.62
887.113	176.45
887.281	202.5
887.449	200.76
887.617	193.83
887.785	226.59
887.953	229.62
888.121	220.79
888.289	223.73
888.457	274.02
888.625	345.69
888.793	257.14
888.961	269.6
889.129	206.51
889.296	228.41
889.464	254.12
889.632	210.42
889.8	233.89
889.967	264.53
890.135	297.13
