Data from JASIL_2961_Reflection_2.txt Node
Date: Sat Nov 07 21:21:35 EST 2015
User: Geneva
Spectrometer: USB4E03002
Autoset integration time: false
Trigger mode: 4
Integration Time (sec): 1.000000E-1
Scans to average: 10
Electric dark correction enabled: true
Nonlinearity correction enabled: false
Boxcar width: 5
Stray light correction enabled: false
XAxis mode: Wavelengths
Stop averaging: false
Number of Pixels in Spectrum: 3648
>>>>>Begin Spectral Data<<<<<
177.575	-22.4
177.794	-30.33
178.014	-20.41
178.233	-223.44
178.452	-44.8
178.672	123.14
178.891	118.73
179.11	30.37
179.33	44.7
179.549	9.06
179.768	7.4
179.987	-21.15
180.207	-115.57
180.426	278.61
180.645	100.32
180.864	93.73
181.084	77.05
181.303	94.1
181.522	62.65
181.741	78.32
181.96	65.9
182.179	73.53
182.398	73.95
182.618	67.72
182.837	63.56
183.056	66.36
183.275	57.98
183.494	100.63
183.713	102.62
183.932	133.95
184.151	164.19
184.37	69.34
184.589	27.12
184.808	24.98
185.027	41.38
185.246	38.14
185.465	36.13
185.684	38.1
185.903	22.4
186.122	18.23
186.341	19.17
186.56	27.77
186.779	24.03
186.998	31.69
187.216	51.5
187.435	36.59
187.654	28.9
187.873	33.87
188.092	11.91
188.311	3.97
188.53	14.3
188.748	12.13
188.967	-36.93
189.186	-9.15
189.405	-5.09
189.623	-43.77
189.842	4.65
190.061	16.5
190.28	2.61
190.498	1.96
190.717	-40.31
190.936	-150.28
191.154	-242.07
191.373	3222.3
191.592	-519.09
191.81	-761.59
192.029	-192.23
192.248	-486.14
192.466	-400.19
192.685	-139.35
192.904	-53.68
193.122	-24.72
193.341	-20.08
193.559	11.51
193.778	26.73
193.996	41.21
194.215	58.92
194.433	31.84
194.652	55.82
194.87	32.64
195.089	32.78
195.307	43.9
195.526	56.26
195.744	48.95
195.963	37.95
196.181	28.12
196.399	11.94
196.618	10.59
196.836	24.14
197.055	25.4
197.273	36.13
197.491	38.48
197.71	17.45
197.928	-12.06
198.146	-0.05
198.365	-6.75
198.583	-12.17
198.801	5.09
199.019	-14.75
199.238	-17.02
199.456	-51.39
199.674	-52.07
199.892	-58.46
200.111	-78.95
200.329	-18.1
200.547	-31.72
200.765	-25.46
200.983	-18.01
201.202	-10.46
201.42	0.52
201.638	-7.05
201.856	12.12
202.074	15.62
202.292	12.89
202.51	20.79
202.728	3.23
202.946	-10.4
203.165	-19.92
203.383	-37.59
203.601	-42.48
203.819	-31.16
204.037	-22.24
204.255	-2.12
204.473	2.63
204.691	-10.31
204.909	-9.74
205.127	9.49
205.345	18.14
205.562	18.03
205.78	31.73
205.998	42.64
206.216	44.87
206.434	52.2
206.652	29.08
206.87	23.8
207.088	30.54
207.306	23.79
207.523	22.02
207.741	22.41
207.959	30.16
208.177	23.11
208.395	1.45
208.612	-16.52
208.83	-3.43
209.048	-2.1
209.266	-18.35
209.483	-19.63
209.701	-44.41
209.919	-46.79
210.136	-42.92
210.354	-14.4
210.572	0.23
210.79	9.7
211.007	24.26
211.225	17.45
211.442	16.52
211.66	29.79
211.878	24.8
212.095	29.53
212.313	25.35
212.53	24.63
212.748	20.82
212.966	21.72
213.183	24.01
213.401	23.05
213.618	25.55
213.836	29.15
214.053	16.95
214.271	21.61
214.488	23.05
214.705	22.54
214.923	25.14
215.14	23.91
215.358	26.15
215.575	28.62
215.793	29.04
216.01	26.1
216.227	27.61
216.445	27.58
216.662	19.94
216.879	11
217.097	7.1
217.314	5.4
217.531	1.9
217.749	-8.22
217.966	-3.76
218.183	-6.72
218.4	-5.92
218.618	-9.5
218.835	3.29
219.052	12.72
219.269	21.21
219.487	27.76
219.704	19.97
219.921	17.32
220.138	24.83
220.355	22.68
220.572	21.4
220.79	18.92
221.007	19.79
221.224	16.85
221.441	14.07
221.658	13.21
221.875	10.65
222.092	13.89
222.309	13.66
222.526	4.89
222.743	0.92
222.96	-0.1
223.177	2.78
223.394	1.68
223.611	0.98
223.828	-2.04
224.045	-0.75
224.262	0.36
224.479	2.45
224.696	4.12
224.913	9.09
225.13	11.52
225.347	11.6
225.564	10.21
225.781	10.13
225.997	10.04
226.214	10.26
226.431	9.93
226.648	10.17
226.865	9.44
227.082	9.76
227.298	8.5
227.515	7.9
227.732	6.64
227.949	6.55
228.165	6.18
228.382	5.59
228.599	5.8
228.816	5.75
229.032	5.13
229.249	4.76
229.466	4.47
229.682	4.6
229.899	4.85
230.116	5.95
230.332	6.94
230.549	7.89
230.765	9.27
230.982	9.88
231.199	9.08
231.415	9.35
231.632	10.32
231.848	9.81
232.065	10.21
232.281	9.49
232.498	8.5
232.714	7.26
232.931	6.42
233.147	7.05
233.364	7.03
233.58	8.37
233.797	8.5
234.013	7.87
234.23	8.49
234.446	8.93
234.662	10.31
234.879	12.6
235.095	12.92
235.312	13.17
235.528	12.32
235.744	11.4
235.961	10.77
236.177	10.88
236.393	11.26
236.61	10.69
236.826	9.71
237.042	7.89
237.258	7.05
237.475	6.73
237.691	7.4
237.907	6.38
238.123	6.5
238.339	6.85
238.556	6.34
238.772	5.62
238.988	5.86
239.204	6.39
239.42	6.79
239.636	6.94
239.853	7.3
240.069	6.55
240.285	6.9
240.501	6.98
240.717	6.75
240.933	6.95
241.149	7.21
241.365	7.49
241.581	7.18
241.797	7.12
242.013	6.69
242.229	7.12
242.445	7.33
242.661	7.09
242.877	7.34
243.093	7.49
243.309	7.08
243.525	6.7
243.741	6.42
243.957	6.91
244.173	6.98
244.388	7.15
244.604	5.92
244.82	6.3
245.036	6.1
245.252	6.15
245.468	6.1
245.683	6.47
245.899	6.84
246.115	6.64
246.331	6.61
246.547	6.42
246.762	6.5
246.978	6.64
247.194	6.42
247.409	6.7
247.625	6.43
247.841	6.16
248.057	6.03
248.272	5.82
248.488	5.7
248.703	4.97
248.919	5.46
249.135	5.03
249.35	4.74
249.566	4.51
249.782	3.77
249.997	4.3
250.213	4.82
250.428	4.74
250.644	4.48
250.859	4.19
251.075	4.98
251.29	4.48
251.506	4.4
251.721	4.76
251.937	4.75
252.152	5.05
252.368	4.79
252.583	4.67
252.798	4.49
253.014	4.51
253.229	5.02
253.445	4.41
253.66	4.48
253.875	4.63
254.091	3.73
254.306	4.11
254.521	4.15
254.737	4.11
254.952	3.24
255.167	3.18
255.383	3.62
255.598	3.77
255.813	4.12
256.028	4.13
256.244	4.21
256.459	4.51
256.674	3.95
256.889	4.14
257.104	4.2
257.32	4.66
257.535	4.68
257.75	4.4
257.965	4.18
258.18	4.03
258.395	3.98
258.61	3.97
258.826	4.08
259.041	4.11
259.256	4.03
259.471	4.08
259.686	4.17
259.901	4.14
260.116	4.19
260.331	4.38
260.546	4.52
260.761	4.42
260.976	4.42
261.191	4.26
261.406	4.36
261.621	4.25
261.836	3.83
262.05	3.39
262.265	3.17
262.48	3.35
262.695	3.1
262.91	3.07
263.125	3.08
263.34	3.13
263.555	3.49
263.769	3.35
263.984	3.93
264.199	4.34
264.414	4.54
264.629	4.72
264.843	4.33
265.058	3.97
265.273	4.25
265.488	4.66
265.702	4.63
265.917	4.8
266.132	5.07
266.346	4.81
266.561	4.97
266.776	5.19
266.99	5.37
267.205	5.4
267.42	5.6
267.634	5.58
267.849	5.54
268.063	5.31
268.278	4.79
268.492	4.64
268.707	4.78
268.922	4.6
269.136	4.41
269.351	4.34
269.565	4.6
269.78	4.52
269.994	4.15
270.209	4.08
270.423	4.53
270.637	4.59
270.852	4.72
271.066	4.52
271.281	4.61
271.495	4.46
271.709	4.56
271.924	4.32
272.138	4.13
272.353	4.32
272.567	4.14
272.781	3.82
272.996	3.91
273.21	3.56
273.424	3.4
273.638	3.28
273.853	3.34
274.067	2.97
274.281	3.21
274.495	3.66
274.71	3.34
274.924	3.38
275.138	3.49
275.352	3.59
275.566	3.89
275.781	3.89
275.995	3.83
276.209	3.93
276.423	3.93
276.637	3.73
276.851	3.63
277.065	3.85
277.279	3.89
277.493	3.94
277.707	3.81
277.921	3.79
278.135	4.22
278.349	4.18
278.563	4.04
278.777	4.01
278.991	3.93
279.205	3.96
279.419	3.94
279.633	3.94
279.847	3.83
280.061	3.83
280.275	3.66
280.489	3.54
280.703	3.45
280.917	3.39
281.131	3.6
281.344	3.74
281.558	3.52
281.772	3.65
281.986	3.62
282.2	3.76
282.414	3.78
282.627	3.98
282.841	3.99
283.055	4.05
283.269	4.06
283.482	3.81
283.696	3.74
283.91	4
284.123	3.92
284.337	4.06
284.551	3.95
284.764	4.05
284.978	4.08
285.192	4.13
285.405	4.37
285.619	4.53
285.833	4.54
286.046	4.48
286.26	4.44
286.473	4.3
286.687	4.24
286.9	4.4
287.114	4.19
287.327	4.29
287.541	4.2
287.754	3.96
287.968	3.95
288.181	4.2
288.395	4.2
288.608	4.16
288.822	4.33
289.035	4.42
289.248	4.4
289.462	4.7
289.675	4.53
289.889	4.61
290.102	4.85
290.315	4.92
290.529	4.92
290.742	5.05
290.955	5.22
291.169	5.24
291.382	5.17
291.595	5.2
291.808	4.99
292.022	5.36
292.235	5.33
292.448	5.38
292.661	5.17
292.875	5.1
293.088	5.02
293.301	5.05
293.514	5.05
293.727	5.06
293.94	5.19
294.153	5.33
294.367	5.09
294.58	4.98
294.793	4.84
295.006	5
295.219	5.39
295.432	5.48
295.645	5.54
295.858	5.51
296.071	5.58
296.284	5.47
296.497	5.51
296.71	5.6
296.923	5.85
297.136	5.87
297.349	6
297.562	5.73
297.775	5.87
297.988	5.88
298.201	6.04
298.414	6.01
298.626	6.15
298.839	6.1
299.052	6.14
299.265	5.89
299.478	5.82
299.691	5.51
299.903	5.59
300.116	5.46
300.329	5.41
300.542	5.46
300.755	5.65
300.967	5.7
301.18	5.78
301.393	5.69
301.605	5.8
301.818	5.89
302.031	6.06
302.243	6.03
302.456	6.26
302.669	6.3
302.881	6.22
303.094	6.21
303.307	6.27
303.519	6.43
303.732	6.46
303.944	6.43
304.157	6.42
304.37	6.69
304.582	6.87
304.795	6.72
305.007	6.73
305.22	6.87
305.432	6.81
305.645	6.7
305.857	6.7
306.069	6.85
306.282	6.89
306.494	7.19
306.707	6.94
306.919	6.98
307.132	6.93
307.344	6.85
307.556	6.83
307.769	6.93
307.981	6.98
308.193	6.84
308.406	6.59
308.618	6.69
308.83	6.58
309.043	6.73
309.255	6.71
309.467	6.81
309.679	7.03
309.892	6.99
310.104	6.79
310.316	6.75
310.528	6.73
310.74	7.13
310.953	7.27
311.165	7.27
311.377	6.94
311.589	6.89
311.801	6.77
312.013	6.61
312.225	6.67
312.437	6.96
312.649	7.02
312.862	6.99
313.074	6.64
313.286	6.34
313.498	6.28
313.71	6.71
313.922	6.73
314.134	6.91
314.346	6.9
314.558	6.9
314.77	6.8
314.982	6.76
315.193	6.9
315.405	6.8
315.617	6.8
315.829	6.91
316.041	6.82
316.253	6.78
316.465	6.75
316.677	6.64
316.888	6.8
317.1	6.81
317.312	6.86
317.524	6.87
317.736	7.26
317.947	7.34
318.159	7.52
318.371	7.66
318.583	7.84
318.794	7.84
319.006	7.97
319.218	7.98
319.43	7.81
319.641	7.8
319.853	7.76
320.064	7.59
320.276	7.73
320.488	7.35
320.699	7.39
320.911	7.39
321.123	7.89
321.334	8.07
321.546	8
321.757	8.14
321.969	8.18
322.18	8.34
322.392	8.36
322.603	8.48
322.815	8.71
323.026	8.67
323.238	8.62
323.449	8.3
323.661	8.37
323.872	8.49
324.083	8.71
324.295	8.92
324.506	8.83
324.718	8.99
324.929	9.26
325.14	9.51
325.352	9.94
325.563	10.3
325.774	10.6
325.986	10.74
326.197	10.87
326.408	10.96
326.62	11.1
326.831	11.48
327.042	11.85
327.253	12.07
327.464	12.23
327.676	12.02
327.887	12.15
328.098	12.13
328.309	12.35
328.52	12.68
328.732	13.12
328.943	13.34
329.154	13.72
329.365	13.63
329.576	13.76
329.787	13.93
329.998	14.43
330.209	14.46
330.42	14.73
330.631	14.95
330.842	14.94
331.053	14.92
331.264	15.12
331.475	15.04
331.686	15.36
331.897	15.33
332.108	15.38
332.319	15.32
332.53	15.57
332.741	15.69
332.952	15.74
333.163	15.91
333.374	16.16
333.585	16.1
333.795	16.21
334.006	16.07
334.217	16.12
334.428	16.31
334.639	16.46
334.849	16.42
335.06	16.61
335.271	16.75
335.482	16.78
335.692	16.82
335.903	16.76
336.114	16.79
336.325	17.05
336.535	17.14
336.746	16.92
336.957	17.07
337.167	17.39
337.378	17.29
337.589	17.2
337.799	17.39
338.01	17.38
338.22	17.6
338.431	17.69
338.642	17.73
338.852	17.57
339.063	17.84
339.273	17.61
339.484	17.43
339.694	17.7
339.905	17.67
340.115	17.49
340.326	17.5
340.536	17.47
340.746	17.49
340.957	17.42
341.167	17.72
341.378	17.78
341.588	17.94
341.799	17.84
342.009	17.67
342.219	17.84
342.43	17.9
342.64	17.77
342.85	17.96
343.061	17.93
343.271	18.04
343.481	18.03
343.691	17.89
343.902	17.88
344.112	17.76
344.322	17.73
344.532	17.58
344.743	17.49
344.953	17.34
345.163	17.24
345.373	17.23
345.583	17.32
345.793	17.13
346.004	17.24
346.214	17.22
346.424	17.47
346.634	17.51
346.844	17.6
347.054	17.69
347.264	17.93
347.474	17.95
347.684	17.85
347.894	17.71
348.104	17.86
348.314	17.72
348.524	17.78
348.734	17.75
348.944	17.64
349.154	17.71
349.364	17.65
349.574	17.52
349.784	17.45
349.994	17.57
350.204	17.53
350.413	17.23
350.623	17.26
350.833	17.11
351.043	16.94
351.253	17.08
351.463	16.98
351.672	16.85
351.882	16.98
352.092	17.02
352.302	16.98
352.511	16.96
352.721	17.26
352.931	17.22
353.141	17.12
353.35	17.24
353.56	17.09
353.77	17.2
353.979	17.45
354.189	17.43
354.399	17.51
354.608	17.54
354.818	17.48
355.027	17.37
355.237	17.42
355.447	17.53
355.656	17.53
355.866	17.63
356.075	17.56
356.285	17.35
356.494	17.32
356.704	17.36
356.913	17.45
357.123	17.33
357.332	17.35
357.542	17.42
357.751	17.41
357.96	17.45
358.17	17.43
358.379	17.41
358.589	17.55
358.798	17.44
359.007	17.36
359.217	17.19
359.426	17.31
359.635	17.21
359.845	17.1
360.054	17.09
360.263	17.03
360.472	17.02
360.682	17.01
360.891	16.91
361.1	17.01
361.309	17.03
361.519	17.06
361.728	17.12
361.937	17.18
362.146	17.15
362.355	17.1
362.564	16.99
362.774	16.86
362.983	16.72
363.192	16.78
363.401	16.6
363.61	16.43
363.819	16.34
364.028	16.28
364.237	16.27
364.446	16.36
364.655	16.35
364.864	16.32
365.073	16.29
365.282	16.38
365.491	16.25
365.7	16.33
365.909	16.38
366.118	16.44
366.327	16.35
366.536	16.23
366.745	16.14
366.954	16.11
367.162	16.12
367.371	16.12
367.58	16.03
367.789	15.93
367.998	15.79
368.207	15.67
368.415	15.56
368.624	15.46
368.833	15.57
369.042	15.49
369.25	15.44
369.459	15.43
369.668	15.31
369.877	15.26
370.085	15.31
370.294	15.31
370.503	15.4
370.711	15.34
370.92	15.34
371.129	15.11
371.337	14.98
371.546	14.84
371.754	14.63
371.963	14.76
372.171	14.68
372.38	14.53
372.589	14.54
372.797	14.35
373.006	14.29
373.214	14.16
373.423	14.1
373.631	14.13
373.84	14.2
374.048	14.24
374.256	14.04
374.465	14
374.673	14.01
374.882	13.82
375.09	13.75
375.298	13.69
375.507	13.69
375.715	13.65
375.923	13.52
376.132	13.38
376.34	13.3
376.548	13.3
376.757	13.33
376.965	13.35
377.173	13.49
377.381	13.49
377.59	13.5
377.798	13.49
378.006	13.54
378.214	13.56
378.423	13.55
378.631	13.58
378.839	13.54
379.047	13.42
379.255	13.28
379.463	13.17
379.671	13.02
379.879	12.9
380.088	12.83
380.296	12.77
380.504	12.72
380.712	12.8
380.92	12.87
381.128	12.77
381.336	12.83
381.544	12.89
381.752	12.87
381.96	12.89
382.168	12.9
382.376	12.91
382.584	12.82
382.791	12.82
382.999	12.69
383.207	12.44
383.415	12.45
383.623	12.34
383.831	12.18
384.039	12.11
384.247	12.09
384.454	12.1
384.662	12.03
384.87	12.01
385.078	11.9
385.285	11.98
385.493	11.97
385.701	11.92
385.909	11.88
386.116	12.02
386.324	11.88
386.532	11.85
386.739	11.77
386.947	11.72
387.155	11.68
387.362	11.7
387.57	11.68
387.778	11.61
387.985	11.7
388.193	11.75
388.4	11.76
388.608	11.82
388.816	11.79
389.023	11.81
389.231	11.76
389.438	11.79
389.646	11.61
389.853	11.5
390.061	11.51
390.268	11.46
390.475	11.39
390.683	11.22
390.89	11.18
391.098	11.09
391.305	11.05
391.512	10.98
391.72	10.93
391.927	10.95
392.135	10.93
392.342	10.94
392.549	10.87
392.756	10.87
392.964	10.9
393.171	10.88
393.378	10.93
393.586	10.87
393.793	10.94
394	10.87
394.207	10.93
394.414	10.88
394.622	10.85
394.829	10.81
395.036	10.73
395.243	10.67
395.45	10.68
395.657	10.66
395.864	10.64
396.072	10.66
396.279	10.64
396.486	10.53
396.693	10.54
396.9	10.53
397.107	10.47
397.314	10.49
397.521	10.37
397.728	10.26
397.935	10.15
398.142	10.14
398.349	10.01
398.556	9.98
398.763	9.99
398.97	9.83
399.177	9.81
399.383	9.85
399.59	9.77
399.797	9.79
400.004	9.86
400.211	9.93
400.418	9.89
400.625	9.88
400.831	9.86
401.038	9.93
401.245	9.9
401.452	9.82
401.658	9.78
401.865	9.81
402.072	9.82
402.279	9.76
402.485	9.67
402.692	9.71
402.899	9.7
403.105	9.8
403.312	9.72
403.519	9.74
403.725	9.93
403.932	9.95
404.138	9.95
404.345	9.89
404.552	9.9
404.758	9.98
404.965	9.92
405.171	9.84
405.378	9.68
405.584	9.68
405.791	9.68
405.997	9.47
406.204	9.41
406.41	9.33
406.617	9.29
406.823	9.21
407.029	9.17
407.236	9.18
407.442	9.23
407.649	9.45
407.855	9.48
408.061	9.56
408.268	9.58
408.474	9.51
408.68	9.54
408.887	9.58
409.093	9.59
409.299	9.6
409.505	9.55
409.712	9.56
409.918	9.42
410.124	9.36
410.33	9.33
410.537	9.32
410.743	9.3
410.949	9.31
411.155	9.4
411.361	9.44
411.567	9.33
411.773	9.23
411.98	9.25
412.186	9.18
412.392	9.12
412.598	9.06
412.804	9.02
413.01	9.07
413.216	8.98
413.422	8.91
413.628	8.86
413.834	8.87
414.04	8.98
414.246	8.9
414.452	8.9
414.658	8.91
414.864	8.91
415.07	8.91
415.275	8.87
415.481	8.84
415.687	8.76
415.893	8.73
416.099	8.72
416.305	8.69
416.511	8.69
416.716	8.65
416.922	8.68
417.128	8.7
417.334	8.7
417.539	8.69
417.745	8.72
417.951	8.75
418.157	8.8
418.362	8.84
418.568	8.85
418.774	8.84
418.979	8.84
419.185	8.77
419.391	8.75
419.596	8.72
419.802	8.72
420.008	8.7
420.213	8.62
420.419	8.58
420.624	8.59
420.83	8.55
421.035	8.55
421.241	8.57
421.446	8.6
421.652	8.57
421.857	8.56
422.063	8.55
422.268	8.56
422.474	8.61
422.679	8.6
422.885	8.55
423.09	8.55
423.295	8.52
423.501	8.49
423.706	8.47
423.911	8.51
424.117	8.55
424.322	8.55
424.527	8.57
424.733	8.54
424.938	8.54
425.143	8.52
425.349	8.52
425.554	8.54
425.759	8.57
425.964	8.56
426.169	8.51
426.375	8.44
426.58	8.37
426.785	8.35
426.99	8.41
427.195	8.37
427.4	8.39
427.605	8.42
427.811	8.43
428.016	8.41
428.221	8.45
428.426	8.46
428.631	8.46
428.836	8.48
429.041	8.42
429.246	8.4
429.451	8.41
429.656	8.35
429.861	8.27
430.066	8.25
430.271	8.24
430.476	8.19
430.681	8.18
430.886	8.2
431.09	8.25
431.295	8.31
431.5	8.26
431.705	8.27
431.91	8.29
432.115	8.28
432.32	8.28
432.524	8.28
432.729	8.27
432.934	8.25
433.139	8.27
433.343	8.32
433.548	8.29
433.753	8.32
433.958	8.34
434.162	8.35
434.367	8.39
434.572	8.35
434.776	8.33
434.981	8.36
435.186	8.35
435.39	8.32
435.595	8.32
435.799	8.31
436.004	8.32
436.209	8.29
436.413	8.27
436.618	8.22
436.822	8.27
437.027	8.28
437.231	8.28
437.436	8.29
437.64	8.26
437.845	8.21
438.049	8.24
438.253	8.19
438.458	8.16
438.662	8.22
438.867	8.23
439.071	8.22
439.275	8.21
439.48	8.19
439.684	8.15
439.888	8.16
440.093	8.14
440.297	8.13
440.501	8.12
440.706	8.11
440.91	8.11
441.114	8.09
441.318	8.08
441.523	8.09
441.727	8.14
441.931	8.19
442.135	8.19
442.339	8.24
442.543	8.24
442.748	8.25
442.952	8.26
443.156	8.19
443.36	8.23
443.564	8.21
443.768	8.19
443.972	8.12
444.176	8.09
444.38	8.08
444.584	8
444.788	7.99
444.992	8
445.196	8.01
445.4	8.05
445.604	7.99
445.808	8.02
446.012	7.99
446.216	7.98
446.42	7.96
446.624	7.99
446.828	8
447.032	8
447.235	7.99
447.439	8
447.643	8
447.847	8.05
448.051	8
448.254	8.07
448.458	8.06
448.662	8.11
448.866	8.09
449.069	8.13
449.273	8.14
449.477	8.16
449.681	8.16
449.884	8.17
450.088	8.12
450.292	8.19
450.495	8.16
450.699	8.22
450.902	8.21
451.106	8.22
451.31	8.17
451.513	8.17
451.717	8.13
451.92	8.11
452.124	8.01
452.327	8.04
452.531	7.99
452.734	7.98
452.938	7.96
453.141	7.95
453.345	7.93
453.548	7.99
453.752	7.94
453.955	7.97
454.158	7.98
454.362	8.04
454.565	8.03
454.769	8.02
454.972	8.03
455.175	7.99
455.379	7.95
455.582	7.91
455.785	7.86
455.988	7.85
456.192	7.8
456.395	7.75
456.598	7.75
456.801	7.73
457.005	7.71
457.208	7.7
457.411	7.73
457.614	7.77
457.817	7.77
458.021	7.74
458.224	7.74
458.427	7.77
458.63	7.79
458.833	7.8
459.036	7.82
459.239	7.83
459.442	7.81
459.645	7.83
459.848	7.83
460.051	7.85
460.254	7.88
460.457	7.89
460.66	7.87
460.863	7.86
461.066	7.88
461.269	7.86
461.472	7.89
461.675	7.92
461.878	7.92
462.081	7.9
462.284	7.96
462.486	7.99
462.689	8.01
462.892	8.06
463.095	8.1
463.298	8.08
463.5	8.09
463.703	8.06
463.906	8.05
464.109	8.01
464.311	8.05
464.514	8.05
464.717	8.05
464.92	8.07
465.122	8.1
465.325	8.13
465.528	8.11
465.73	8.1
465.933	8.1
466.135	8.17
466.338	8.19
466.541	8.16
466.743	8.12
466.946	8.11
467.148	8.08
467.351	8.02
467.553	7.98
467.756	8.03
467.958	8.08
468.161	8.13
468.363	8.07
468.566	8.05
468.768	7.99
468.971	7.98
469.173	7.96
469.375	7.95
469.578	7.98
469.78	7.94
469.983	7.89
470.185	7.84
470.387	7.84
470.59	7.8
470.792	7.8
470.994	7.88
471.196	7.91
471.399	7.88
471.601	7.85
471.803	7.85
472.005	7.87
472.208	7.89
472.41	7.87
472.612	7.83
472.814	7.86
473.016	7.9
473.218	7.9
473.421	7.89
473.623	7.9
473.825	7.94
474.027	7.91
474.229	7.91
474.431	7.91
474.633	7.9
474.835	7.91
475.037	7.85
475.239	7.87
475.441	7.86
475.643	7.84
475.845	7.88
476.047	7.88
476.249	7.89
476.451	7.9
476.653	7.93
476.855	7.96
477.057	7.92
477.258	7.98
477.46	7.97
477.662	7.95
477.864	7.98
478.066	7.94
478.268	7.98
478.469	7.98
478.671	7.95
478.873	7.88
479.075	7.88
479.276	7.9
479.478	7.89
479.68	7.86
479.882	7.87
480.083	7.91
480.285	7.9
480.487	7.83
480.688	7.82
480.89	7.86
481.091	7.87
481.293	7.86
481.495	7.85
481.696	7.81
481.898	7.8
482.099	7.78
482.301	7.72
482.502	7.7
482.704	7.71
482.905	7.7
483.107	7.69
483.308	7.67
483.51	7.66
483.711	7.66
483.913	7.67
484.114	7.67
484.315	7.67
484.517	7.7
484.718	7.72
484.92	7.74
485.121	7.73
485.322	7.73
485.524	7.75
485.725	7.77
485.926	7.78
486.127	7.77
486.329	7.77
486.53	7.77
486.731	7.75
486.932	7.73
487.134	7.69
487.335	7.67
487.536	7.67
487.737	7.68
487.938	7.67
488.139	7.67
488.341	7.67
488.542	7.69
488.743	7.7
488.944	7.73
489.145	7.76
489.346	7.78
489.547	7.81
489.748	7.81
489.949	7.78
490.15	7.76
490.351	7.77
490.552	7.79
490.753	7.77
490.954	7.75
491.155	7.73
491.356	7.69
491.557	7.7
491.758	7.74
491.959	7.75
492.159	7.76
492.36	7.78
492.561	7.78
492.762	7.79
492.963	7.81
493.164	7.83
493.364	7.87
493.565	7.94
493.766	7.98
493.967	7.95
494.167	7.94
494.368	8
494.569	8
494.769	8
494.97	7.98
495.171	7.98
495.371	7.96
495.572	7.96
495.773	8
495.973	7.99
496.174	8.01
496.375	8.05
496.575	8.03
496.776	8.05
496.976	8.11
497.177	8.14
497.377	8.16
497.578	8.21
497.778	8.19
497.979	8.16
498.179	8.19
498.38	8.19
498.58	8.21
498.78	8.26
498.981	8.26
499.181	8.22
499.382	8.22
499.582	8.31
499.782	8.34
499.983	8.4
500.183	8.44
500.383	8.46
500.584	8.48
500.784	8.52
500.984	8.48
501.184	8.51
501.385	8.56
501.585	8.6
501.785	8.57
501.985	8.59
502.185	8.62
502.386	8.61
502.586	8.63
502.786	8.74
502.986	8.74
503.186	8.78
503.386	8.82
503.586	8.84
503.786	8.81
503.987	8.84
504.187	8.84
504.387	8.87
504.587	8.91
504.787	8.93
504.987	8.9
505.187	8.94
505.387	8.98
505.587	8.98
505.786	9.05
505.986	9.08
506.186	9.11
506.386	9.16
506.586	9.16
506.786	9.2
506.986	9.25
507.186	9.28
507.386	9.3
507.585	9.36
507.785	9.41
507.985	9.42
508.185	9.5
508.384	9.52
508.584	9.56
508.784	9.6
508.984	9.64
509.183	9.7
509.383	9.75
509.583	9.79
509.782	9.87
509.982	9.88
510.182	9.91
510.381	9.93
510.581	10
510.781	10.05
510.98	10.1
511.18	10.13
511.379	10.2
511.579	10.24
511.778	10.28
511.978	10.3
512.177	10.35
512.377	10.44
512.576	10.52
512.776	10.62
512.975	10.67
513.175	10.78
513.374	10.85
513.573	10.84
513.773	10.92
513.972	10.98
514.172	11.08
514.371	11.19
514.57	11.22
514.77	11.28
514.969	11.28
515.168	11.35
515.367	11.41
515.567	11.47
515.766	11.6
515.965	11.65
516.164	11.7
516.364	11.74
516.563	11.81
516.762	11.88
516.961	11.92
517.16	11.99
517.359	12.08
517.559	12.14
517.758	12.23
517.957	12.27
518.156	12.34
518.355	12.42
518.554	12.46
518.753	12.49
518.952	12.57
519.151	12.66
519.35	12.76
519.549	12.79
519.748	12.88
519.947	12.91
520.146	12.98
520.345	13.04
520.544	13.13
520.743	13.25
520.942	13.35
521.141	13.38
521.339	13.4
521.538	13.43
521.737	13.5
521.936	13.56
522.135	13.67
522.333	13.74
522.532	13.84
522.731	13.88
522.93	13.97
523.129	14.02
523.327	14.11
523.526	14.19
523.725	14.27
523.923	14.33
524.122	14.36
524.321	14.43
524.519	14.49
524.718	14.5
524.917	14.57
525.115	14.59
525.314	14.64
525.512	14.69
525.711	14.75
525.909	14.81
526.108	14.85
526.306	14.93
526.505	14.95
526.703	15
526.902	15.06
527.1	15.09
527.299	15.13
527.497	15.19
527.696	15.25
527.894	15.3
528.092	15.34
528.291	15.41
528.489	15.45
528.688	15.51
528.886	15.57
529.084	15.62
529.283	15.69
529.481	15.76
529.679	15.81
529.877	15.88
530.076	15.94
530.274	16.01
530.472	16.09
530.67	16.17
530.869	16.25
531.067	16.31
531.265	16.38
531.463	16.42
531.661	16.47
531.859	16.54
532.057	16.62
532.255	16.67
532.454	16.7
532.652	16.71
532.85	16.72
533.048	16.76
533.246	16.78
533.444	16.83
533.642	16.88
533.84	16.92
534.038	16.94
534.236	16.98
534.434	17
534.632	17.08
534.83	17.14
535.027	17.21
535.225	17.26
535.423	17.35
535.621	17.39
535.819	17.43
536.017	17.47
536.215	17.53
536.412	17.55
536.61	17.6
536.808	17.63
537.006	17.65
537.203	17.68
537.401	17.71
537.599	17.71
537.797	17.74
537.994	17.78
538.192	17.83
538.39	17.9
538.587	17.92
538.785	17.98
538.983	18.02
539.18	18.07
539.378	18.08
539.575	18.14
539.773	18.19
539.97	18.22
540.168	18.23
540.366	18.27
540.563	18.26
540.761	18.28
540.958	18.31
541.155	18.34
541.353	18.36
541.55	18.42
541.748	18.45
541.945	18.51
542.143	18.55
542.34	18.62
542.537	18.66
542.735	18.75
542.932	18.81
543.129	18.88
543.327	18.94
543.524	19
543.721	19.06
543.919	19.12
544.116	19.11
544.313	19.17
544.51	19.22
544.708	19.23
544.905	19.22
545.102	19.22
545.299	19.22
545.496	19.25
545.693	19.24
545.891	19.26
546.088	19.25
546.285	19.29
546.482	19.34
546.679	19.38
546.876	19.43
547.073	19.52
547.27	19.58
547.467	19.63
547.664	19.64
547.861	19.7
548.058	19.74
548.255	19.82
548.452	19.86
548.649	19.89
548.846	19.92
549.043	19.91
549.24	19.88
549.437	19.89
549.633	19.94
549.83	20.02
550.027	20.07
550.224	20.11
550.421	20.07
550.618	20.07
550.814	20.09
551.011	20.1
551.208	20.18
551.405	20.22
551.601	20.27
551.798	20.28
551.995	20.26
552.191	20.28
552.388	20.24
552.585	20.33
552.781	20.33
552.978	20.37
553.175	20.34
553.371	20.32
553.568	20.39
553.764	20.39
553.961	20.48
554.157	20.5
554.354	20.53
554.55	20.63
554.747	20.62
554.943	20.69
555.14	20.7
555.336	20.75
555.533	20.83
555.729	20.83
555.926	20.87
556.122	20.84
556.318	20.84
556.515	20.88
556.711	20.87
556.907	20.89
557.104	20.91
557.3	20.91
557.496	20.97
557.693	20.97
557.889	20.99
558.085	21.02
558.281	21.07
558.478	21.12
558.674	21.17
558.87	21.22
559.066	21.24
559.262	21.26
559.459	21.3
559.655	21.33
559.851	21.36
560.047	21.42
560.243	21.46
560.439	21.43
560.635	21.44
560.831	21.41
561.027	21.46
561.223	21.53
561.419	21.58
561.615	21.59
561.811	21.54
562.007	21.6
562.203	21.57
562.399	21.57
562.595	21.6
562.791	21.64
562.987	21.69
563.183	21.66
563.379	21.68
563.575	21.73
563.771	21.78
563.966	21.87
564.162	21.87
564.358	21.89
564.554	21.88
564.75	21.94
564.945	21.96
565.141	21.97
565.337	21.98
565.533	22.03
565.728	22.04
565.924	22.03
566.12	22.04
566.315	22.04
566.511	22.05
566.707	22.08
566.902	22.08
567.098	22.07
567.293	22.07
567.489	22.07
567.684	21.97
567.88	21.91
568.076	21.93
568.271	21.92
568.467	21.93
568.662	21.94
568.858	21.94
569.053	21.95
569.248	22.03
569.444	22.04
569.639	22.09
569.835	22.14
570.03	22.21
570.225	22.19
570.421	22.29
570.616	22.33
570.812	22.37
571.007	22.4
571.202	22.41
571.397	22.36
571.593	22.4
571.788	22.41
571.983	22.42
572.178	22.4
572.374	22.41
572.569	22.39
572.764	22.35
572.959	22.35
573.154	22.33
573.35	22.32
573.545	22.38
573.74	22.36
573.935	22.32
574.13	22.34
574.325	22.38
574.52	22.42
574.715	22.37
574.91	22.42
575.105	22.44
575.3	22.52
575.495	22.55
575.69	22.58
575.885	22.64
576.08	22.67
576.275	22.68
576.47	22.68
576.665	22.71
576.86	22.75
577.055	22.77
577.25	22.81
577.444	22.86
577.639	22.85
577.834	22.81
578.029	22.8
578.224	22.89
578.418	22.93
578.613	22.98
578.808	22.98
579.003	22.99
579.197	22.99
579.392	22.94
579.587	22.89
579.781	22.94
579.976	22.95
580.171	22.9
580.365	22.89
580.56	22.91
580.755	22.91
580.949	22.94
581.144	22.94
581.338	22.91
581.533	22.98
581.727	23.01
581.922	23.07
582.116	23.17
582.311	23.25
582.505	23.22
582.7	23.27
582.894	23.31
583.089	23.34
583.283	23.31
583.478	23.34
583.672	23.39
583.866	23.37
584.061	23.31
584.255	23.3
584.449	23.32
584.644	23.38
584.838	23.35
585.032	23.3
585.226	23.28
585.421	23.32
585.615	23.32
585.809	23.29
586.003	23.29
586.198	23.32
586.392	23.27
586.586	23.3
586.78	23.31
586.974	23.37
587.168	23.49
587.363	23.46
587.557	23.53
587.751	23.6
587.945	23.61
588.139	23.6
588.333	23.57
588.527	23.58
588.721	23.59
588.915	23.62
589.109	23.54
589.303	23.42
589.497	23.47
589.691	23.46
589.885	23.43
590.079	23.41
590.273	23.47
590.466	23.53
590.66	23.55
590.854	23.58
591.048	23.5
591.242	23.56
591.436	23.62
591.629	23.62
591.823	23.67
592.017	23.7
592.211	23.73
592.404	23.74
592.598	23.74
592.792	23.78
592.986	23.8
593.179	23.89
593.373	23.85
593.567	23.84
593.76	23.86
593.954	23.78
594.147	23.8
594.341	23.85
594.535	23.88
594.728	23.87
594.922	23.85
595.115	23.83
595.309	23.82
595.502	23.82
595.696	23.79
595.889	23.82
596.083	23.87
596.276	23.82
596.47	23.79
596.663	23.76
596.856	23.75
597.05	23.79
597.243	23.74
597.437	23.72
597.63	23.77
597.823	23.85
598.017	23.83
598.21	23.81
598.403	23.9
598.596	23.93
598.79	23.94
598.983	24
599.176	23.94
599.369	24
599.563	24.03
599.756	24.02
599.949	23.97
600.142	23.93
600.335	23.94
600.528	23.92
600.722	23.96
600.915	23.96
601.108	23.96
601.301	24.03
601.494	24.05
601.687	24.07
601.88	24.1
602.073	24.14
602.266	24.17
602.459	24.19
602.652	24.18
602.845	24.2
603.038	24.22
603.231	24.19
603.424	24.2
603.617	24.19
603.809	24.14
604.002	24.17
604.195	24.11
604.388	24.12
604.581	24.09
604.774	24.06
604.966	24.01
605.159	23.97
605.352	23.98
605.545	23.98
605.737	23.97
605.93	23.99
606.123	23.92
606.316	24.05
606.508	24.08
606.701	24.15
606.894	24.2
607.086	24.23
607.279	24.25
607.471	24.3
607.664	24.28
607.857	24.31
608.049	24.36
608.242	24.46
608.434	24.4
608.627	24.48
608.819	24.41
609.012	24.52
609.204	24.52
609.397	24.59
609.589	24.64
609.782	24.69
609.974	24.69
610.166	24.73
610.359	24.73
610.551	24.79
610.743	24.77
610.936	24.88
611.128	24.82
611.32	24.82
611.513	24.83
611.705	24.78
611.897	24.73
612.09	24.8
612.282	24.74
612.474	24.73
612.666	24.76
612.858	24.7
613.051	24.62
613.243	24.59
613.435	24.6
613.627	24.57
613.819	24.6
614.011	24.66
614.203	24.55
614.395	24.61
614.588	24.52
614.78	24.51
614.972	24.51
615.164	24.52
615.356	24.48
615.548	24.49
615.74	24.55
615.932	24.47
616.124	24.47
616.315	24.54
616.507	24.38
616.699	24.48
616.891	24.53
617.083	24.57
617.275	24.6
617.467	24.58
617.659	24.57
617.85	24.49
618.042	24.61
618.234	24.49
618.426	24.44
618.618	24.56
618.809	24.51
619.001	24.35
619.193	24.29
619.384	24.36
619.576	24.44
619.768	24.43
619.959	24.42
620.151	24.36
620.343	24.35
620.534	24.42
620.726	24.46
620.917	24.5
621.109	24.55
621.301	24.59
621.492	24.49
621.684	24.42
621.875	24.43
622.067	24.46
622.258	24.42
622.45	24.39
622.641	24.36
622.832	24.36
623.024	24.37
623.215	24.38
623.407	24.35
623.598	24.38
623.789	24.42
623.981	24.44
624.172	24.49
624.363	24.53
624.555	24.58
624.746	24.64
624.937	24.64
625.129	24.58
625.32	24.51
625.511	24.55
625.702	24.46
625.893	24.42
626.085	24.42
626.276	24.43
626.467	24.4
626.658	24.46
626.849	24.38
627.04	24.38
627.231	24.39
627.422	24.49
627.614	24.54
627.805	24.66
627.996	24.7
628.187	24.63
628.378	24.56
628.569	24.61
628.76	24.56
628.951	24.57
629.142	24.52
629.332	24.51
629.523	24.55
629.714	24.49
629.905	24.46
630.096	24.46
630.287	24.52
630.478	24.6
630.669	24.62
630.859	24.62
631.05	24.66
631.241	24.67
631.432	24.68
631.623	24.6
631.813	24.6
632.004	24.55
632.195	24.59
632.385	24.55
632.576	24.51
632.767	24.43
632.957	24.46
633.148	24.48
633.339	24.47
633.529	24.5
633.72	24.51
633.91	24.42
634.101	24.48
634.292	24.38
634.482	24.35
634.673	24.4
634.863	24.48
635.054	24.48
635.244	24.46
635.435	24.49
635.625	24.38
635.815	24.36
636.006	24.46
636.196	24.4
636.387	24.48
636.577	24.57
636.767	24.57
636.958	24.5
637.148	24.41
637.338	24.42
637.529	24.46
637.719	24.6
637.909	24.61
638.099	24.64
638.29	24.63
638.48	24.69
638.67	24.68
638.86	24.64
639.05	24.65
639.241	24.74
639.431	24.75
639.621	24.74
639.811	24.71
640.001	24.56
640.191	24.51
640.381	24.42
640.571	24.39
640.761	24.32
640.951	24.27
641.141	24.27
641.331	24.17
641.521	24.16
641.711	24.14
641.901	24.14
642.091	24.32
642.281	24.3
642.471	24.41
642.661	24.43
642.851	24.51
643.041	24.52
643.231	24.55
643.42	24.66
643.61	24.52
643.8	24.41
643.99	24.35
644.18	24.23
644.369	24.23
644.559	24.3
644.749	24.19
644.939	24.18
645.128	24.12
645.318	24.09
645.508	24.08
645.697	24.18
645.887	24.28
646.076	24.34
646.266	24.4
646.456	24.46
646.645	24.42
646.835	24.44
647.024	24.37
647.214	24.46
647.403	24.44
647.593	24.45
647.782	24.44
647.972	24.42
648.161	24.29
648.351	24.34
648.54	24.33
648.73	24.28
648.919	24.39
649.108	24.47
649.298	24.45
649.487	24.44
649.677	24.42
649.866	24.42
650.055	24.42
650.244	24.48
650.434	24.4
650.623	24.3
650.812	24.45
651.002	24.37
651.191	24.37
651.38	24.4
651.569	24.51
651.758	24.47
651.947	24.47
652.137	24.47
652.326	24.48
652.515	24.52
652.704	24.65
652.893	24.51
653.082	24.46
653.271	24.47
653.46	24.36
653.649	24.31
653.838	24.24
654.027	24.35
654.216	24.34
654.405	24.43
654.594	24.48
654.783	24.45
654.972	24.51
655.161	24.5
655.35	24.48
655.539	24.59
655.728	24.5
655.916	24.56
656.105	24.53
656.294	24.48
656.483	24.39
656.672	24.39
656.86	24.41
657.049	24.38
657.238	24.38
657.427	24.25
657.615	24.27
657.804	24.33
657.993	24.34
658.181	24.27
658.37	24.31
658.559	24.34
658.747	24.37
658.936	24.31
659.125	24.24
659.313	24.32
659.502	24.44
659.69	24.44
659.879	24.39
660.067	24.33
660.256	24.41
660.444	24.47
660.633	24.5
660.821	24.41
661.01	24.51
661.198	24.63
661.387	24.6
661.575	24.66
661.763	24.65
661.952	24.74
662.14	24.88
662.328	24.89
662.517	24.77
662.705	24.75
662.893	24.92
663.082	24.86
663.27	24.69
663.458	24.64
663.646	24.56
663.834	24.64
664.023	24.62
664.211	24.5
664.399	24.37
664.587	24.46
664.775	24.38
664.963	24.16
665.152	24.08
665.34	24.21
665.528	24.22
665.716	24.17
665.904	24.06
666.092	24
666.28	24.01
666.468	24
666.656	23.97
666.844	24.05
667.032	24.11
667.22	24.19
667.408	24.12
667.596	24.19
667.784	24.2
667.971	24.28
668.159	24.31
668.347	24.36
668.535	24.44
668.723	24.49
668.911	24.49
669.098	24.45
669.286	24.38
669.474	24.57
669.662	24.48
669.849	24.52
670.037	24.41
670.225	24.51
670.413	24.45
670.6	24.51
670.788	24.44
670.976	24.42
671.163	24.43
671.351	24.33
671.538	24.23
671.726	24.39
671.913	24.36
672.101	24.31
672.289	24.31
672.476	24.37
672.664	24.31
672.851	24.23
673.039	24.18
673.226	24.21
673.413	24.34
673.601	24.23
673.788	24.1
673.976	24.1
674.163	24.14
674.35	24.03
674.538	23.96
674.725	23.91
674.912	24.1
675.1	24.1
675.287	24.09
675.474	24.1
675.662	24.29
675.849	24.24
676.036	24.19
676.223	24.25
676.411	24.26
676.598	24.31
676.785	24.4
676.972	24.29
677.159	24.42
677.346	24.4
677.533	24.46
677.721	24.47
677.908	24.6
678.095	24.67
678.282	24.72
678.469	24.75
678.656	24.77
678.843	24.81
679.03	24.86
679.217	24.8
679.404	24.81
679.591	24.79
679.778	24.75
679.964	24.68
680.151	24.7
680.338	24.62
680.525	24.62
680.712	24.64
680.899	24.6
681.086	24.53
681.272	24.45
681.459	24.56
681.646	24.56
681.833	24.58
682.02	24.54
682.206	24.48
682.393	24.42
682.58	24.36
682.766	24.34
682.953	24.31
683.14	24.38
683.326	24.6
683.513	24.49
683.7	24.49
683.886	24.58
684.073	24.56
684.259	24.56
684.446	24.64
684.632	24.63
684.819	24.59
685.005	24.56
685.192	24.6
685.378	24.44
685.565	24.48
685.751	24.35
685.938	24.12
686.124	24.17
686.31	24.28
686.497	24.26
686.683	24.36
686.87	24.46
687.056	24.41
687.242	24.36
687.429	24.39
687.615	24.33
687.801	24.45
687.987	24.49
688.174	24.53
688.36	24.6
688.546	24.72
688.732	24.69
688.918	24.59
689.105	24.61
689.291	24.55
689.477	24.58
689.663	24.65
689.849	24.63
690.035	24.72
690.221	24.64
690.407	24.49
690.593	24.41
690.779	24.55
690.965	24.64
691.151	24.69
691.337	24.79
691.523	24.84
691.709	24.8
691.895	24.84
692.081	24.73
692.267	24.9
692.453	24.92
692.639	24.97
692.825	24.83
693.011	24.68
693.196	24.65
693.382	24.66
693.568	24.54
693.754	24.48
693.94	24.39
694.125	24.44
694.311	24.49
694.497	24.5
694.682	24.33
694.868	24.3
695.054	24.34
695.239	24.35
695.425	24.21
695.611	24.32
695.796	24.39
695.982	24.42
696.168	24.39
696.353	24.24
696.539	24.28
696.724	24.31
696.91	24.41
697.095	24.42
697.281	24.46
697.466	24.49
697.652	24.43
697.837	24.4
698.023	24.38
698.208	24.37
698.393	24.41
698.579	24.32
698.764	24.45
698.949	24.35
699.135	24.33
699.32	24.27
699.505	24.23
699.691	24.12
699.876	24.22
700.061	24.28
700.246	24.35
700.432	24.21
700.617	24.35
700.802	24.35
700.987	24.44
701.172	24.49
701.358	24.47
701.543	24.73
701.728	24.86
701.913	24.82
702.098	24.78
702.283	24.82
702.468	24.91
702.653	24.66
702.838	24.64
703.023	24.57
703.208	24.57
703.393	24.61
703.578	24.5
703.763	24.47
703.948	24.49
704.133	24.41
704.318	24.28
704.503	24.39
704.688	24.53
704.873	24.35
705.057	24.31
705.242	24.24
705.427	24.4
705.612	24.28
705.797	24.47
705.981	24.41
706.166	24.59
706.351	24.49
706.536	24.49
706.72	24.38
706.905	24.41
707.09	24.55
707.274	24.6
707.459	24.51
707.644	24.59
707.828	24.51
708.013	24.46
708.197	24.48
708.382	24.6
708.567	24.6
708.751	24.64
708.936	24.59
709.12	24.51
709.305	24.46
709.489	24.47
709.673	24.43
709.858	24.61
710.042	24.73
710.227	24.6
710.411	24.59
710.596	24.72
710.78	24.78
710.964	24.97
711.149	24.82
711.333	24.97
711.517	24.86
711.702	24.86
711.886	24.76
712.07	24.63
712.254	24.83
712.438	24.79
712.623	24.8
712.807	24.88
712.991	24.83
713.175	24.98
713.359	24.86
713.544	25.02
713.728	25.03
713.912	24.93
714.096	25.08
714.28	24.85
714.464	24.87
714.648	24.61
714.832	24.49
715.016	24.46
715.2	24.46
715.384	24.5
715.568	24.38
715.752	24.38
715.936	24.4
716.12	24.33
716.304	24.38
716.488	24.43
716.671	24.44
716.855	24.55
717.039	24.53
717.223	24.42
717.407	24.32
717.59	24.15
717.774	24.05
717.958	24.04
718.142	24.04
718.325	23.98
718.509	23.89
718.693	24
718.877	23.8
719.06	23.79
719.244	23.8
719.428	23.83
719.611	24.06
719.795	24.07
719.978	23.97
720.162	23.9
720.345	23.99
720.529	23.99
720.713	24.02
720.896	24.1
721.08	24.07
721.263	24.06
721.446	24.11
721.63	24.09
721.813	24.13
721.997	24.2
722.18	24.15
722.364	24.15
722.547	24.12
722.73	23.97
722.914	24
723.097	24.14
723.28	24.21
723.464	24.11
723.647	24.13
723.83	24.17
724.013	24.15
724.197	24.21
724.38	24.17
724.563	24.18
724.746	24.39
724.929	24.46
725.112	24.41
725.296	24.49
725.479	24.45
725.662	24.38
725.845	24.4
726.028	24.17
726.211	24.16
726.394	24.18
726.577	24.14
726.76	24.01
726.943	23.82
727.126	23.68
727.309	23.75
727.492	23.82
727.675	23.79
727.858	23.58
728.041	23.87
728.224	23.85
728.407	23.74
728.589	23.71
728.772	23.79
728.955	24.04
729.138	24.26
729.321	24.15
729.503	24.34
729.686	24.4
729.869	24.55
730.052	24.52
730.234	24.49
730.417	24.63
730.6	24.73
730.782	24.58
730.965	24.43
731.148	24.23
731.33	24.16
731.513	23.99
731.695	23.98
731.878	24.05
732.061	23.94
732.243	23.97
732.426	23.95
732.608	24.02
732.791	24.05
732.973	23.92
733.156	24.25
733.338	24.26
733.52	24.21
733.703	24.11
733.885	24.11
734.068	23.93
734.25	23.94
734.432	23.96
734.615	23.89
734.797	23.84
734.979	23.92
735.162	23.52
735.344	23.49
735.526	23.55
735.708	23.43
735.891	23.51
736.073	23.94
736.255	23.84
736.437	23.65
736.619	23.7
736.802	23.78
736.984	23.84
737.166	23.89
737.348	23.98
737.53	23.67
737.712	24.01
737.894	23.7
738.076	23.41
738.258	23.32
738.44	23.57
738.622	23.42
738.804	23.38
738.986	23.57
739.168	23.69
739.35	23.58
739.532	23.87
739.714	23.73
739.896	23.94
740.078	24.11
740.259	24.32
740.441	24.15
740.623	24.41
740.805	24.44
740.987	24.17
741.168	24
741.35	24.11
741.532	24.07
741.714	24.11
741.895	24.1
742.077	24.04
742.259	24.12
742.44	24.08
742.622	23.81
742.804	23.86
742.985	23.93
743.167	24.08
743.348	24.02
743.53	24.17
743.711	24.01
743.893	23.66
744.075	23.59
744.256	23.22
744.438	23.13
744.619	23.23
744.8	23.18
744.982	22.84
745.163	23.01
745.345	23.01
745.526	23.02
745.707	23.04
745.889	23.23
746.07	23.37
746.252	23.56
746.433	23.54
746.614	23.36
746.795	23.35
746.977	23.76
747.158	23.57
747.339	23.32
747.52	22.99
747.702	23.34
747.883	23.24
748.064	23.05
748.245	23.01
748.426	22.9
748.607	22.92
748.788	22.82
748.97	22.54
749.151	22.52
749.332	22.95
749.513	23.02
749.694	22.79
749.875	22.79
750.056	23.03
750.237	22.96
750.418	23.14
750.599	22.89
750.78	22.98
750.96	23.3
751.141	23.28
751.322	23.27
751.503	23.26
751.684	23.21
751.865	23.35
752.046	23.4
752.226	23.4
752.407	23.17
752.588	23.28
752.769	23.35
752.949	23.26
753.13	23.01
753.311	23.03
753.492	23.12
753.672	23.02
753.853	22.99
754.034	22.83
754.214	22.9
754.395	23.2
754.575	23.47
754.756	23.29
754.937	22.78
755.117	22.84
755.298	22.65
755.478	22.84
755.659	23.1
755.839	23.12
756.02	23.22
756.2	23.1
756.381	22.74
756.561	22.65
756.741	22.96
756.922	23.45
757.102	23.67
757.283	23.63
757.463	23.51
757.643	23.25
757.823	23.23
758.004	23
758.184	23.49
758.364	23.9
758.545	23.88
758.725	23.88
758.905	23.8
759.085	23.92
759.265	23.64
759.446	23.66
759.626	23.96
759.806	24.21
759.986	24.28
760.166	23.83
760.346	23.77
760.526	23.88
760.706	23.78
760.886	23.67
761.066	23.54
761.246	24.03
761.426	24.05
761.606	23.77
761.786	23.53
761.966	23.83
762.146	23.87
762.326	23.8
762.506	23.63
762.686	23.78
762.866	23.89
763.046	23.9
763.225	23.87
763.405	23.96
763.585	24.24
763.765	24.28
763.945	23.98
764.124	24.21
764.304	24.35
764.484	24.67
764.664	24.6
764.843	24.71
765.023	24.55
765.203	24.5
765.382	24.32
765.562	24.35
765.741	24.6
765.921	24.77
766.101	24.55
766.28	24.37
766.46	24.03
766.639	23.9
766.819	23.83
766.998	24.14
767.178	23.91
767.357	24.01
767.537	23.31
767.716	23.14
767.896	23.2
768.075	23.14
768.254	23.27
768.434	23.52
768.613	23.07
768.792	23.02
768.972	22.87
769.151	22.67
769.33	22.63
769.51	23.18
769.689	23.13
769.868	22.96
770.047	23.28
770.226	23.3
770.406	23.35
770.585	23.93
770.764	23.53
770.943	23.34
771.122	23.66
771.301	23.45
771.48	23.66
771.66	23.55
771.839	23.53
772.018	23.46
772.197	23.33
772.376	23.13
772.555	22.94
772.734	23.37
772.913	23.48
773.092	23.15
773.271	23.18
773.449	22.87
773.628	23.04
773.807	23.07
773.986	22.69
774.165	22.71
774.344	22.74
774.523	22.79
774.701	22.48
774.88	22.6
775.059	22.94
775.238	23.16
775.417	22.59
775.595	22.56
775.774	22.79
775.953	23.24
776.131	22.84
776.31	22.99
776.489	23
776.667	23.27
776.846	23.24
777.025	23.01
777.203	22.95
777.382	23.45
777.56	23.14
777.739	22.91
777.917	22.71
778.096	23.38
778.274	23.44
778.453	23.39
778.631	23.23
778.81	23.22
778.988	23.11
779.166	23.37
779.345	23.31
779.523	23.27
779.702	23.29
779.88	23.34
780.058	23.23
780.237	23.26
780.415	23.53
780.593	23.71
780.771	23.69
780.95	23.89
781.128	23.4
781.306	23.43
781.484	24
781.662	23.65
781.841	23.55
782.019	23.25
782.197	23.1
782.375	23.07
782.553	23.24
782.731	23.76
782.909	23.82
783.087	24.02
783.265	24.24
783.443	23.89
783.621	23.75
783.799	23.69
783.977	23.71
784.155	23.36
784.333	23.07
784.511	22.86
784.689	22.37
784.867	22.68
785.045	22.12
785.223	21.79
785.4	21.32
785.578	21.4
785.756	21.4
785.934	21.43
786.112	21.53
786.289	21.74
786.467	21.58
786.645	21.87
786.823	21.38
787	21.92
787.178	21.85
787.356	22.46
787.533	22.96
787.711	22.84
787.889	23.23
788.066	23.53
788.244	23.34
788.421	23.57
788.599	23.27
788.776	23.26
788.954	23.12
789.131	23.09
789.309	22.78
789.486	22.87
789.664	23.43
789.841	22.88
790.019	22.52
790.196	22.29
790.373	21.78
790.551	21.74
790.728	22.03
790.906	22.09
791.083	21.21
791.26	21.38
791.437	20.94
791.615	20.69
791.792	21
791.969	21.02
792.146	21.02
792.324	21.85
792.501	22.18
792.678	22.55
792.855	22.4
793.032	23.65
793.209	23.98
793.387	24.32
793.564	23.8
793.741	23.36
793.918	23.55
794.095	23.91
794.272	23.79
794.449	23.81
794.626	23.52
794.803	23.64
794.98	23.38
795.157	22.86
795.334	22.72
795.511	22.46
795.688	23.07
795.864	22.89
796.041	23.41
796.218	22.92
796.395	23.05
796.572	23.5
796.749	23.47
796.925	23.85
797.102	24.05
797.279	24.24
797.456	25.01
797.632	24.91
797.809	24.82
797.986	24.05
798.162	24.88
798.339	24.51
798.516	23.48
798.692	23.49
798.869	23.55
799.046	23.16
799.222	22.97
799.399	23.02
799.575	23.05
799.752	23.23
799.928	23
800.105	22.12
800.281	21.92
800.458	23.01
800.634	23.19
800.811	22.66
800.987	23.18
801.163	22.51
801.34	21.95
801.516	21.73
801.692	22
801.869	22.64
802.045	22.69
802.221	22.75
802.398	22.08
802.574	21.8
802.75	21.64
802.926	22.02
803.103	22.33
803.279	22.63
803.455	22.68
803.631	22.94
803.807	22.32
803.983	22.63
804.16	22.66
804.336	22.5
804.512	22.37
804.688	23.12
804.864	22.38
805.04	22.93
805.216	22.77
805.392	22.47
805.568	22.14
805.744	22.68
805.92	23.04
806.096	22.71
806.272	23.06
806.448	23.15
806.623	22.92
806.799	23.13
806.975	22.6
807.151	23.06
807.327	22.64
807.503	22.99
807.678	22.59
807.854	22.59
808.03	23.05
808.206	22.48
808.381	22.82
808.557	23.09
808.733	22.34
808.908	22.52
809.084	21.83
809.26	21.8
809.435	21.18
809.611	21.75
809.787	21.23
809.962	20.17
810.138	20.98
810.313	20.92
810.489	19.88
810.664	20.58
810.84	20.4
811.015	21.34
811.191	21.56
811.366	21.2
811.542	20.74
811.717	20.72
811.892	21.95
812.068	21.77
812.243	21.57
812.419	22.11
812.594	22.28
812.769	22.31
812.944	21.89
813.12	21.65
813.295	22.12
813.47	22.41
813.645	22.39
813.821	22.49
813.996	22.38
814.171	22.44
814.346	22.2
814.521	22.52
814.697	22.68
814.872	23.22
815.047	23.71
815.222	23.06
815.397	22.65
815.572	23.49
815.747	23.28
815.922	23.17
816.097	23.31
816.272	23.06
816.447	22.72
816.622	23.06
816.797	21.78
816.972	21.85
817.147	22.2
817.322	21.93
817.496	21.08
817.671	21.21
817.846	21.14
818.021	21.17
818.196	21.7
818.371	21.53
818.545	21.6
818.72	22.36
818.895	22.76
819.069	23.14
819.244	23.73
819.419	24.18
819.594	24.25
819.768	24.31
819.943	24.48
820.117	24.55
820.292	24.92
820.467	24.98
820.641	25.11
820.816	25.19
820.99	25.12
821.165	25.18
821.339	25.07
821.514	25.04
821.688	24.99
821.863	24.89
822.037	24.96
822.212	24.88
822.386	24.78
822.56	24.65
822.735	24.63
822.909	24.7
823.084	24.5
823.258	24.58
823.432	24.62
823.606	24.55
823.781	24.5
823.955	24.31
824.129	24.24
824.303	24.13
824.478	24
824.652	23.8
824.826	23.49
825	23.72
825.174	23.25
825.348	22.88
825.523	23.05
825.697	22.82
825.871	22.97
826.045	22.98
826.219	23.16
826.393	23.28
826.567	23.32
826.741	23.56
826.915	23.54
827.089	23.75
827.263	24.08
827.437	24.29
827.611	24.88
827.784	24.6
827.958	24.61
828.132	24.8
828.306	24.75
828.48	24.59
828.654	24.39
828.827	24.09
829.001	24.04
829.175	23.98
829.349	23.77
829.522	23.22
829.696	23.69
829.87	23.73
830.044	23.33
830.217	23.33
830.391	23.24
830.565	23.66
830.738	23.63
830.912	23.59
831.085	23.46
831.259	23.83
831.432	23.64
831.606	23.2
831.779	23.2
831.953	22.86
832.126	22.8
832.3	22.91
832.473	22.58
832.647	22.82
832.82	23.12
832.994	22.84
833.167	22.42
833.34	22.44
833.514	22.52
833.687	22.62
833.86	22.55
834.034	22.87
834.207	22.96
834.38	22.82
834.553	22.66
834.727	22.43
834.9	22.47
835.073	22.24
835.246	22.17
835.419	22.39
835.593	22.17
835.766	22.76
835.939	22.21
836.112	22.11
836.285	21.56
836.458	21.32
836.631	21.38
836.804	20.81
836.977	20.72
837.15	21.12
837.323	20.53
837.496	20.11
837.669	19.44
837.842	19.5
838.015	18.78
838.188	18.8
838.361	19.89
838.533	20.03
838.706	19.57
838.879	19.45
839.052	19.06
839.225	19.78
839.398	19.54
839.57	19.64
839.743	19.38
839.916	19.37
840.088	20.31
840.261	20.27
840.434	20.27
840.607	20.63
840.779	21.53
840.952	21.38
841.124	21.25
841.297	21.7
841.47	21.83
841.642	22.8
841.815	23.14
841.987	23.01
842.16	22.29
842.332	21.91
842.505	22.79
842.677	22.31
842.85	22.96
843.022	22.54
843.194	23.47
843.367	24.49
843.539	24.23
843.712	24.65
843.884	23.92
844.056	23.61
844.229	22.87
844.401	22.63
844.573	24.81
844.745	25.38
844.918	25.6
845.09	24.95
845.262	22.52
845.434	22.94
845.606	22.69
845.779	23.38
845.951	24.51
846.123	26.92
846.295	26.75
846.467	24.13
846.639	24.45
846.811	24.07
846.983	23.29
847.155	23.58
847.327	23.27
847.499	21.98
847.671	21.11
847.843	19.16
848.015	15.93
848.187	17.24
848.359	16.96
848.531	16.18
848.703	16.71
848.875	18.52
849.047	19.64
849.218	20.44
849.39	22.58
849.562	23.8
849.734	23.19
849.905	24.38
850.077	23.92
850.249	24.1
850.421	23.73
850.592	24.38
850.764	22.38
850.936	21.26
851.107	19.13
851.279	18.71
851.451	17.6
851.622	19.55
851.794	21.71
851.965	21.71
852.137	22.49
852.308	21.44
852.48	19.75
852.651	18.42
852.823	19.13
852.994	20.73
853.166	20.67
853.337	23.96
853.509	21.85
853.68	20.8
853.851	21.8
854.023	20.97
854.194	21.01
854.365	21.59
854.537	23.31
854.708	22.28
854.879	20.27
855.05	20.94
855.222	18.88
855.393	19.48
855.564	17.72
855.735	14.64
855.906	15.71
856.078	17.02
856.249	20.48
856.42	18.51
856.591	19.55
856.762	23.4
856.933	21.13
857.104	19.34
857.275	20.94
857.446	21.34
857.617	22.81
857.788	23.13
857.959	19.71
858.13	16.08
858.301	17.15
858.472	14.93
858.643	10.66
858.814	12.93
858.985	13.48
859.155	12.88
859.326	16.48
859.497	18.67
859.668	17.58
859.839	21.16
860.009	21.29
860.18	19.75
860.351	22.05
860.522	22.86
860.692	22.47
860.863	23.9
861.034	25.01
861.204	22.04
861.375	18.55
861.546	18.38
861.716	17.92
861.887	17.13
862.057	19.72
862.228	18.35
862.398	18.72
862.569	20.46
862.739	20
862.91	17.96
863.08	17.81
863.251	15.81
863.421	14.16
863.592	12.87
863.762	14.84
863.932	13.54
864.103	15.62
864.273	13.48
864.443	11.38
864.614	10.46
864.784	9.71
864.954	10.1
865.125	12.31
865.295	16.91
865.465	18.35
865.635	15.86
865.805	17.15
865.976	14.11
866.146	17.61
866.316	17.14
866.486	17.89
866.656	19.06
866.826	18.81
866.996	21
867.166	19.25
867.336	18.26
867.506	22.4
867.676	21.88
867.846	24.04
868.016	21.97
868.186	20.12
868.356	20.3
868.526	18.72
868.696	17.64
868.866	18.03
869.036	13.3
869.206	13.99
869.376	11.04
869.545	9.63
869.715	8.93
869.885	8.33
870.055	8.34
870.224	9.28
870.394	12.05
870.564	16.58
870.734	12.65
870.903	17.51
871.073	18.25
871.243	18.95
871.412	21.23
871.582	22.49
871.751	24.9
871.921	26.69
872.091	23.86
872.26	22.08
872.43	15.98
872.599	18.53
872.769	18
872.938	18.89
873.108	17.77
873.277	16.89
873.446	18.13
873.616	15.42
873.785	17.28
873.955	20.49
874.124	22.64
874.293	23.5
874.463	22.9
874.632	21.55
874.801	19.03
874.971	19.69
875.14	21.26
875.309	18.99
875.478	19.88
875.647	20.32
875.817	18.08
875.986	14.44
876.155	16.14
876.324	15.95
876.493	19.66
876.662	20.03
876.831	21.05
877	19.57
877.17	23.13
877.339	25.55
877.508	26.05
877.677	28.23
877.846	31.6
878.015	33.29
878.184	32.11
878.352	30.13
878.521	31.17
878.69	29.21
878.859	30.14
879.028	28.08
879.197	27.26
879.366	25.55
879.534	25.27
879.703	23.77
879.872	23.82
880.041	24.67
880.21	24.12
880.378	23.42
880.547	24.54
880.716	23.96
880.884	23.09
881.053	23.34
881.222	23.13
881.39	23.07
881.559	23.77
881.727	23.53
881.896	23.49
882.065	23.51
882.233	23.95
882.402	23.52
882.57	23.3
882.739	23.6
882.907	23.58
883.076	23.72
883.244	23.69
883.412	23.1
883.581	22.81
883.749	22.38
883.918	22.31
884.086	22.26
884.254	22.29
884.423	22.88
884.591	23.46
884.759	21.39
884.927	21.5
885.096	20.47
885.264	20.46
885.432	20.58
885.6	20.51
885.769	20.57
885.937	20
886.105	19.7
886.273	19.24
886.441	18.77
886.609	20.49
886.777	19.43
886.945	19.22
887.113	18.13
887.281	17.69
887.449	18.54
887.617	18.72
887.785	18.26
887.953	18
888.121	15.47
888.289	15.45
888.457	17.14
888.625	17.33
888.793	19.49
888.961	18.37
889.129	16.02
889.296	16.95
889.464	16.45
889.632	15.02
889.8	13.95
889.967	16.25
890.135	15.63
