Data from JASIL_3302_Reflection_1.txt Node
Date: Tue Nov 17 19:44:35 EST 2015
User: Geneva
Spectrometer: USB4E03002
Autoset integration time: false
Trigger mode: 4
Integration Time (sec): 1.000000E-1
Scans to average: 10
Electric dark correction enabled: false
Nonlinearity correction enabled: false
Boxcar width: 5
Stray light correction enabled: false
XAxis mode: Wavelengths
Stop averaging: false
Number of Pixels in Spectrum: 3648
>>>>>Begin Spectral Data<<<<<
177.575	-72.28
177.794	-188.04
178.014	-186.52
178.233	-264.15
178.452	-215
178.672	-119.69
178.891	-400
179.11	2470
179.33	886.96
179.549	960.78
179.768	-4836.36
179.987	459.85
180.207	250.41
180.426	444.52
180.645	667.2
180.864	4758.82
181.084	548.19
181.303	459.82
181.522	599.43
181.741	488.76
181.96	697.98
182.179	3476.47
182.398	-789.61
182.618	-265.67
182.837	-242.38
183.056	-192.9
183.275	-143.89
183.494	-1.8
183.713	26.08
183.932	22.36
184.151	27.99
184.37	13.71
184.589	-8.72
184.808	15.37
185.027	27.05
185.246	23.15
185.465	34.22
185.684	8.62
185.903	-65.7
186.122	-90.42
186.341	-253.1
186.56	-282.74
186.779	-1951.85
186.998	-128.04
187.216	-120.56
187.435	-39.39
187.654	-30.3
187.873	-85.71
188.092	-69.87
188.311	-115
188.53	-96.2
188.748	-32.88
188.967	32.32
189.186	47.49
189.405	-56.87
189.623	-18.44
189.842	-96.65
190.061	-56.76
190.28	-29.23
190.498	-62.86
190.717	-31.42
190.936	-26.07
191.154	-135.16
191.373	-408.05
191.592	1004.65
191.81	233.98
192.029	381.05
192.248	190.69
192.466	353.04
192.685	126.11
192.904	224.26
193.122	153.11
193.341	256.3
193.559	272.32
193.778	295.58
193.996	226.07
194.215	749.28
194.433	397.86
194.652	394.41
194.87	239.37
195.089	376.15
195.307	678.95
195.526	-539.8
195.744	-318.71
195.963	-374
196.181	-473.55
196.399	-724.14
196.618	713.16
196.836	309.93
197.055	368.24
197.273	331.34
197.491	353.15
197.71	256.35
197.928	177.15
198.146	171.23
198.365	697.62
198.583	500
198.801	-217.74
199.019	-90.12
199.238	-82.05
199.456	-33.85
199.674	-91.72
199.892	-49.02
200.111	-46.48
200.329	-68.82
200.547	-77.56
200.765	915.69
200.983	-378.63
201.202	886.84
201.42	267.86
201.638	204.47
201.856	335.47
202.074	458
202.292	301.79
202.51	242.64
202.728	273.12
202.946	1928.57
203.165	894.23
203.383	224.19
203.601	242.64
203.819	526.36
204.037	-1681.82
204.255	-2262.96
204.473	-362.24
204.691	-314.71
204.909	-188.05
205.127	-1154.17
205.345	460.61
205.562	-579.07
205.78	-88.65
205.998	-73.2
206.216	-9.38
206.434	-35.86
206.652	-23.24
206.87	-81.44
207.088	-27.62
207.306	-156.65
207.523	-78.28
207.741	-38.34
207.959	-34.23
208.177	-70.98
208.395	-115.69
208.612	-209.26
208.83	-98.14
209.048	-120.41
209.266	-105.8
209.483	-57.96
209.701	-50.59
209.919	-63.06
210.136	-54.94
210.354	-59.2
210.572	-104.97
210.79	-116.33
211.007	-239.44
211.225	-3746.67
211.442	722.03
211.66	2160
211.878	289.04
212.095	900.52
212.313	1291.53
212.53	740.76
212.748	667.33
212.966	478.55
213.183	617.51
213.401	-8188.89
213.618	-493.25
213.836	-425.94
214.053	-544.04
214.271	-318.59
214.488	-39.29
214.705	-25.52
214.923	-19.58
215.14	-0.83
215.358	9.15
215.575	15.77
215.793	12.65
216.01	-41.71
216.227	-97.41
216.445	-190.97
216.662	-60.78
216.879	-100.43
217.097	-60.47
217.314	-154.86
217.531	4300
217.749	382.18
217.966	201.65
218.183	163.32
218.4	168.39
218.618	192.76
218.835	124.9
219.052	120.96
219.269	105.05
219.487	82.45
219.704	74.42
219.921	107.96
220.138	173.33
220.355	163.14
220.572	147.56
220.79	147.01
221.007	208.29
221.224	301.52
221.441	297.35
221.658	305.98
221.875	-1594.29
222.092	-447.73
222.309	1060.61
222.526	158.18
222.743	160.39
222.96	189.21
223.177	555.81
223.394	326.32
223.611	109.79
223.828	114.8
224.045	74.59
224.262	48.62
224.479	55.97
224.696	67.31
224.913	192.56
225.13	-22.64
225.347	-18.62
225.564	17.52
225.781	8.43
225.997	17.87
226.214	7.63
226.431	12.63
226.648	14.78
226.865	5.27
227.082	0.74
227.298	5.68
227.515	5.85
227.732	7.88
227.949	3.26
228.165	0.73
228.382	1.24
228.599	4.54
228.816	5.76
229.032	4.84
229.249	17.71
229.466	23.88
229.682	17.03
229.899	19.38
230.116	33.35
230.332	47.07
230.549	47.46
230.765	39.01
230.982	29.07
231.199	35.92
231.415	34.29
231.632	36.41
231.848	22.42
232.065	27.79
232.281	43.14
232.498	37.89
232.714	27.24
232.931	29.65
233.147	36.98
233.364	49.87
233.58	44.55
233.797	52.05
234.013	43.78
234.23	59.04
234.446	64.21
234.662	62.91
234.879	42.79
235.095	39.25
235.312	52.2
235.528	76.7
235.744	81.27
235.961	126.26
236.177	88.94
236.393	102.27
236.61	84.85
236.826	62.74
237.042	47.53
237.258	72.24
237.475	81.66
237.691	115.19
237.907	67.41
238.123	54.45
238.339	41.3
238.556	47.02
238.772	44.32
238.988	37.6
239.204	40.97
239.42	50.24
239.636	35.73
239.853	31.58
240.069	27.95
240.285	26.66
240.501	27.75
240.717	26.1
240.933	27.1
241.149	27.82
241.365	29.21
241.581	26.73
241.797	24.47
242.013	24.61
242.229	22.61
242.445	18.12
242.661	17.77
242.877	16.98
243.093	15.76
243.309	15.67
243.525	12.42
243.741	12.4
243.957	11.94
244.173	7.98
244.388	14.7
244.604	19.88
244.82	19.72
245.036	19.15
245.252	19.58
245.468	19.45
245.683	16.37
245.899	14.06
246.115	14.81
246.331	13.07
246.547	16.61
246.762	13.08
246.978	9.55
247.194	9.8
247.409	8.77
247.625	5.52
247.841	4.26
248.057	6.44
248.272	8.71
248.488	7.5
248.703	9.39
248.919	8.85
249.135	11.97
249.35	13.31
249.566	16.61
249.782	21.72
249.997	25.98
250.213	28.93
250.428	28.22
250.644	27.44
250.859	25.82
251.075	24.5
251.29	16.65
251.506	15.75
251.721	18.64
251.937	14.88
252.152	10.44
252.368	10.62
252.583	8.99
252.798	6.42
253.014	3.81
253.229	1.41
253.445	8.71
253.66	14.59
253.875	13.64
254.091	5.04
254.306	8.67
254.521	4.47
254.737	-0.15
254.952	7.27
255.167	7.88
255.383	8.45
255.598	12.11
255.813	2.94
256.028	4.14
256.244	6.25
256.459	13.96
256.674	16.83
256.889	17.86
257.104	16.6
257.32	12.99
257.535	11.25
257.75	12.94
257.965	12.32
258.18	12.47
258.395	10.86
258.61	10.31
258.826	8.98
259.041	8.12
259.256	7.9
259.471	6.35
259.686	6.51
259.901	9.05
260.116	8.77
260.331	8.99
260.546	10.2
260.761	13.25
260.976	13.08
261.191	12.69
261.406	13.25
261.621	11.55
261.836	17.06
262.05	16.25
262.265	14.52
262.48	11.79
262.695	11.5
262.91	5.47
263.125	2.53
263.34	2.95
263.555	5.97
263.769	-1.04
263.984	1.61
264.199	1.41
264.414	5.88
264.629	3.49
264.843	9.4
265.058	8.11
265.273	8.16
265.488	9.88
265.702	10.94
265.917	13.75
266.132	15.63
266.346	18.35
266.561	17.92
266.776	16.8
266.99	16.47
267.205	14.53
267.42	13.06
267.634	14.32
267.849	11.93
268.063	10.1
268.278	5.71
268.492	6.18
268.707	3.61
268.922	3.25
269.136	3.51
269.351	4.09
269.565	4.98
269.78	4.63
269.994	6.75
270.209	7.33
270.423	5.91
270.637	5.58
270.852	6.22
271.066	8.77
271.281	10.28
271.495	10.83
271.709	11.86
271.924	10.24
272.138	11.96
272.353	12.6
272.567	11.64
272.781	11.37
272.996	12.11
273.21	10.3
273.424	6.79
273.638	3.68
273.853	4
274.067	3.72
274.281	2.69
274.495	4.1
274.71	3.78
274.924	3.83
275.138	5.82
275.352	6.51
275.566	9.98
275.781	11.82
275.995	13.9
276.209	11.1
276.423	10.61
276.637	11.13
276.851	10.02
277.065	8.54
277.279	7.37
277.493	7.93
277.707	9.1
277.921	4.8
278.135	7.78
278.349	6.3
278.563	7.39
278.777	6.09
278.991	5.57
279.205	4.58
279.419	5.05
279.633	6.43
279.847	7.12
280.061	5.1
280.275	7.16
280.489	2.83
280.703	3.1
280.917	2.83
281.131	3.12
281.344	6.61
281.558	7.8
281.772	7.14
281.986	8.11
282.2	7.33
282.414	7.41
282.627	6.56
282.841	9.34
283.055	7.44
283.269	8.35
283.482	9.98
283.696	7.7
283.91	7.05
284.123	5.45
284.337	5.81
284.551	4.56
284.764	5.75
284.978	6.87
285.192	5.64
285.405	7.08
285.619	6.94
285.833	6.36
286.046	7.27
286.26	8.14
286.473	10.17
286.687	10.17
286.9	12.53
287.114	12.58
287.327	11.7
287.541	11.85
287.754	12.79
287.968	13.44
288.181	11.03
288.395	11.4
288.608	9.43
288.822	7.84
289.035	6.27
289.248	5.5
289.462	4.5
289.675	4.62
289.889	4.64
290.102	3.63
290.315	3.79
290.529	5.87
290.742	5.51
290.955	7.96
291.169	10.18
291.382	9.96
291.595	11.47
291.808	10.43
292.022	11.02
292.235	11.19
292.448	10.75
292.661	10.84
292.875	11.17
293.088	10.84
293.301	9.64
293.514	6.51
293.727	8.14
293.94	6.17
294.153	7.9
294.367	8.55
294.58	7.84
294.793	8.02
295.006	6.2
295.219	5.7
295.432	4.08
295.645	5.62
295.858	8.33
296.071	7.92
296.284	7.52
296.497	6.59
296.71	7.27
296.923	7.63
297.136	7.62
297.349	8.66
297.562	7.66
297.775	8.89
297.988	7.05
298.201	6.68
298.414	7.24
298.626	7.05
298.839	7.41
299.052	6.22
299.265	6.33
299.478	7.55
299.691	7.54
299.903	8.04
300.116	6.64
300.329	4.25
300.542	4.41
300.755	4.05
300.967	5.78
301.18	7.06
301.393	5.66
301.605	5.39
301.818	3.57
302.031	2.32
302.243	3.68
302.456	4.92
302.669	7.22
302.881	6.27
303.094	7.65
303.307	6.47
303.519	5.73
303.732	7.5
303.944	6.7
304.157	9.38
304.37	10.9
304.582	11.44
304.795	11.78
305.007	12.41
305.22	11.92
305.432	10.46
305.645	12.06
305.857	12.32
306.069	11.12
306.282	12.8
306.494	10.29
306.707	9.69
306.919	8.32
307.132	7.39
307.344	6.93
307.556	5.84
307.769	4.1
307.981	4.18
308.193	3.56
308.406	3.8
308.618	2.6
308.83	2.48
309.043	1.96
309.255	3.13
309.467	3.18
309.679	2.44
309.892	3.31
310.104	5.11
310.316	5.33
310.528	6.54
310.74	5.88
310.953	6.48
311.165	7.06
311.377	8.48
311.589	8.44
311.801	8.62
312.013	9.05
312.225	9.94
312.437	9.05
312.649	6.52
312.862	7.12
313.074	8
313.286	8.67
313.498	9.49
313.71	7.64
313.922	5.11
314.134	5.12
314.346	5.98
314.558	5.1
314.77	6.46
314.982	9.94
315.193	7.94
315.405	7.05
315.617	5.48
315.829	5.72
316.041	7.45
316.253	8.4
316.465	9.74
316.677	11.42
316.888	13.58
317.1	12.92
317.312	13.08
317.524	15.28
317.736	16.79
317.947	19.08
318.159	18.25
318.371	18.12
318.583	17.98
318.794	17.07
319.006	16.19
319.218	14.88
319.43	13.86
319.641	14.14
319.853	12.79
320.064	11.82
320.276	11.65
320.488	11.66
320.699	11.21
320.911	11.71
321.123	12.75
321.334	12.5
321.546	11.67
321.757	13.3
321.969	11.52
322.18	10.79
322.392	9.22
322.603	7.39
322.815	8.16
323.026	8.55
323.238	7.65
323.449	7.11
323.661	7.41
323.872	5.37
324.083	5
324.295	5.19
324.506	5.9
324.718	7.33
324.929	9.88
325.14	9.91
325.352	9.39
325.563	12.02
325.774	11.23
325.986	10.45
326.197	13.11
326.408	13.51
326.62	14.11
326.831	14.98
327.042	16.59
327.253	16.3
327.464	15.96
327.676	14.67
327.887	12.59
328.098	14.09
328.309	14.67
328.52	15.14
328.732	14.9
328.943	15.25
329.154	14.45
329.365	14.06
329.576	12.57
329.787	12.61
329.998	14.11
330.209	15.46
330.42	14.42
330.631	15.29
330.842	15.88
331.053	15.88
331.264	16.36
331.475	16.09
331.686	16.64
331.897	17.54
332.108	18.62
332.319	17.6
332.53	16.79
332.741	17.24
332.952	16.58
333.163	15.38
333.374	16.15
333.585	16.54
333.795	16.68
334.006	15.81
334.217	15.69
334.428	14.81
334.639	15.57
334.849	16.9
335.06	17.2
335.271	18.12
335.482	19
335.692	19.1
335.903	15.98
336.114	16.92
336.325	16.84
336.535	15.94
336.746	16.14
336.957	15.65
337.167	14.36
337.378	15.22
337.589	14.28
337.799	11.96
338.01	11.61
338.22	13.47
338.431	12.83
338.642	13.35
338.852	15.92
339.063	15.41
339.273	17.54
339.484	18.19
339.694	17.03
339.905	17.15
340.115	19.15
340.326	18.78
340.536	19.05
340.746	18.62
340.957	17.39
341.167	17.81
341.378	18.5
341.588	16.43
341.799	16.97
342.009	15.89
342.219	15.74
342.43	14.86
342.64	13.9
342.85	13.58
343.061	13.63
343.271	14.89
343.481	13.04
343.691	11.9
343.902	14.18
344.112	13.89
344.322	15.59
344.532	14.84
344.743	16.26
344.953	17.35
345.163	16.49
345.373	16.55
345.583	15.9
345.793	16.47
346.004	17.78
346.214	16.98
346.424	16.88
346.634	16.05
346.844	17.74
347.054	16.89
347.264	16.99
347.474	16.79
347.684	17.24
347.894	17.14
348.104	15.98
348.314	15.6
348.524	14.04
348.734	14.04
348.944	14.51
349.154	14.16
349.364	13.75
349.574	12.32
349.784	13.48
349.994	12.36
350.204	11.39
350.413	10.74
350.623	9.75
350.833	11.97
351.043	13.1
351.253	13.35
351.463	11.99
351.672	13.25
351.882	13.82
352.092	13.6
352.302	15.02
352.511	15.76
352.721	16.77
352.931	16.7
353.141	15.72
353.35	14.83
353.56	13.68
353.77	12.83
353.979	11.96
354.189	10.72
354.399	11.58
354.608	9.95
354.818	9.9
355.027	10.16
355.237	11.23
355.447	10.4
355.656	10.33
355.866	10.7
356.075	11.7
356.285	12.17
356.494	13.61
356.704	13.29
356.913	14.1
357.123	13.88
357.332	14.39
357.542	13.85
357.751	14.87
357.96	13.62
358.17	13.92
358.379	12.96
358.589	13.13
358.798	13.42
359.007	13.72
359.217	14.14
359.426	13.82
359.635	13.41
359.845	13.64
360.054	12.4
360.263	12.92
360.472	12.86
360.682	14.1
360.891	13.35
361.1	12.73
361.309	12.66
361.519	12.19
361.728	12.41
361.937	12.55
362.146	12.8
362.355	13.33
362.564	12.95
362.774	13.1
362.983	12.6
363.192	12.8
363.401	14.15
363.61	13.6
363.819	13.95
364.028	15.06
364.237	14.43
364.446	14.64
364.655	15.15
364.864	16.48
365.073	15.96
365.282	15.12
365.491	16.1
365.7	15.81
365.909	15.2
366.118	15
366.327	14.9
366.536	13.72
366.745	13.47
366.954	12.94
367.162	12.89
367.371	13.39
367.58	14.53
367.789	14.1
367.998	13.49
368.207	14.28
368.415	14.7
368.624	14.49
368.833	15.09
369.042	14.34
369.25	14.64
369.459	13.8
369.668	13.92
369.877	14.55
370.085	13.87
370.294	13.37
370.503	13.27
370.711	12.35
370.92	11.8
371.129	12.53
371.337	12.55
371.546	11.78
371.754	11.8
371.963	11.41
372.171	9.66
372.38	10.19
372.589	10.87
372.797	10.86
373.006	11.81
373.214	11.18
373.423	10.46
373.631	10.38
373.84	9.67
374.048	9.51
374.256	9.5
374.465	11.72
374.673	11.65
374.882	10.33
375.09	10.11
375.298	9.46
375.507	9.22
375.715	9.28
375.923	9.82
376.132	11.45
376.34	10.38
376.548	11.25
376.757	10.21
376.965	10.02
377.173	11.41
377.381	11.85
377.59	11.06
377.798	12.11
378.006	12.22
378.214	12.54
378.423	12.14
378.631	13.08
378.839	12.53
379.047	13.21
379.255	14.01
379.463	13.71
379.671	14.17
379.879	14.61
380.088	14.54
380.296	15.01
380.504	14.5
380.712	14.66
380.92	14.71
381.128	14.45
381.336	13.13
381.544	12.19
381.752	11.82
381.96	11.24
382.168	10.73
382.376	11.03
382.584	11.51
382.791	11.27
382.999	10.75
383.207	10.55
383.415	10.97
383.623	11.38
383.831	10.92
384.039	11.18
384.247	11.06
384.454	11.37
384.662	10.83
384.87	10.54
385.078	9.95
385.285	9.15
385.493	9.9
385.701	9.2
385.909	9.8
386.116	10.16
386.324	9.2
386.532	8.84
386.739	9.25
386.947	8.59
387.155	8.11
387.362	8.7
387.57	8.68
387.778	8.13
387.985	6.88
388.193	6.04
388.4	6.62
388.608	7.72
388.816	8.37
389.023	8.81
389.231	9.73
389.438	10.24
389.646	10.67
389.853	11.51
390.061	11.82
390.268	12.84
390.475	12.45
390.683	11.17
390.89	10.76
391.098	10.96
391.305	10.52
391.512	10.54
391.72	10.07
391.927	10.01
392.135	9.72
392.342	9.55
392.549	8.94
392.756	8.86
392.964	8.91
393.171	10.02
393.378	9.02
393.586	8.87
393.793	8.47
394	8.43
394.207	7.67
394.414	8.22
394.622	8.23
394.829	8.89
395.036	9.58
395.243	10.41
395.45	9.38
395.657	9
395.864	9
396.072	9.64
396.279	9.63
396.486	10.06
396.693	9.47
396.9	8.85
397.107	9.08
397.314	9.27
397.521	9.07
397.728	8.99
397.935	9.68
398.142	10.15
398.349	9.05
398.556	9.25
398.763	9.11
398.97	9.53
399.177	10.08
399.383	10.4
399.59	10.27
399.797	9.91
400.004	10.39
400.211	10.34
400.418	9.2
400.625	9.91
400.831	10.11
401.038	9.75
401.245	9.77
401.452	8.93
401.658	8.92
401.865	8.92
402.072	9.18
402.279	8.71
402.485	9.14
402.692	9.85
402.899	9.53
403.105	9.5
403.312	10.11
403.519	10.27
403.725	10.61
403.932	10.06
404.138	10.36
404.345	10.14
404.552	10.51
404.758	10.58
404.965	10.17
405.171	10.68
405.378	10.49
405.584	10.69
405.791	9.88
405.997	9.98
406.204	10.73
406.41	10.26
406.617	10.33
406.823	9.62
407.029	8.64
407.236	9.11
407.442	8.44
407.649	7.85
407.855	7.2
408.061	7.82
408.268	7.81
408.474	7.56
408.68	7.29
408.887	7.16
409.093	7.77
409.299	8.57
409.505	8.46
409.712	8.75
409.918	8.91
410.124	8.76
410.33	8.52
410.537	8.85
410.743	8.3
410.949	9.27
411.155	9.13
411.361	9.03
411.567	8.33
411.773	8.4
411.98	8.63
412.186	9.45
412.392	9.72
412.598	9.43
412.804	9.05
413.01	9.05
413.216	8.68
413.422	9.19
413.628	9.1
413.834	8.95
414.04	8.54
414.246	7.8
414.452	7.23
414.658	6.48
414.864	7.19
415.07	7.2
415.275	7.02
415.481	6.99
415.687	6.93
415.893	6.71
416.099	7.23
416.305	7.53
416.511	7.61
416.716	7.62
416.922	8.57
417.128	8.09
417.334	7.95
417.539	8.25
417.745	8.61
417.951	8.41
418.157	9.04
418.362	9.35
418.568	9.34
418.774	9.66
418.979	9.93
419.185	9.68
419.391	9.68
419.596	10.07
419.802	10.22
420.008	9.71
420.213	10.15
420.419	9.68
420.624	9.68
420.83	10.06
421.035	10.17
421.241	10.13
421.446	10.22
421.652	10.56
421.857	10.3
422.063	10.24
422.268	10.52
422.474	10.07
422.679	10.07
422.885	9.7
423.09	9.26
423.295	9.08
423.501	9.03
423.706	8.97
423.911	8.81
424.117	8.84
424.322	8.71
424.527	8.36
424.733	8.5
424.938	8.52
425.143	8.49
425.349	8.3
425.554	8.23
425.759	8.11
425.964	8.21
426.169	8.19
426.375	8.37
426.58	8.34
426.785	8.26
426.99	8.32
427.195	8.39
427.4	8.61
427.605	9.1
427.811	9.31
428.016	9.17
428.221	8.83
428.426	9.09
428.631	8.79
428.836	9.04
429.041	9.67
429.246	9.88
429.451	9.74
429.656	9.86
429.861	9.75
430.066	9.65
430.271	9.76
430.476	9.8
430.681	9.31
430.886	9.64
431.09	9.43
431.295	9.27
431.5	9.4
431.705	9.49
431.91	9.38
432.115	9.07
432.32	8.93
432.524	8.93
432.729	9.03
432.934	9.34
433.139	9.13
433.343	8.78
433.548	8.63
433.753	8.2
433.958	8.16
434.162	8.17
434.367	8.74
434.572	8.34
434.776	8.4
434.981	8.35
435.186	8.06
435.39	8.13
435.595	8.38
435.799	8.59
436.004	8.29
436.209	8.68
436.413	8.74
436.618	8.23
436.822	8.86
437.027	8.88
437.231	8.71
437.436	8.7
437.64	8.69
437.845	8.74
438.049	8.42
438.253	8.76
438.458	8.32
438.662	8.47
438.867	8.7
439.071	8.55
439.275	8.66
439.48	8.78
439.684	9.35
439.888	9.24
440.093	9.15
440.297	9.26
440.501	9.45
440.706	9.56
440.91	9.49
441.114	9.44
441.318	9.66
441.523	9.53
441.727	9.54
441.931	9.26
442.135	9.2
442.339	9.38
442.543	9.49
442.748	9.3
442.952	9.25
443.156	8.9
443.36	9.04
443.564	8.71
443.768	8.92
443.972	9.07
444.176	9.08
444.38	9.09
444.584	9.13
444.788	9.11
444.992	9.08
445.196	9.18
445.4	9.39
445.604	9.08
445.808	9.04
446.012	8.95
446.216	8.8
446.42	8.57
446.624	8.73
446.828	8.85
447.032	8.76
447.235	8.78
447.439	8.56
447.643	8.57
447.847	8.71
448.051	9.01
448.254	9.04
448.458	9.11
448.662	9.08
448.866	9.35
449.069	9.01
449.273	9.05
449.477	9.18
449.681	9.27
449.884	8.97
450.088	8.88
450.292	8.64
450.495	8.42
450.699	8.41
450.902	8.4
451.106	8.09
451.31	8.22
451.513	8.35
451.717	7.92
451.92	7.95
452.124	8.25
452.327	8.44
452.531	8.9
452.734	8.84
452.938	8.75
453.141	8.94
453.345	8.58
453.548	8.62
453.752	8.55
453.955	8.78
454.158	8.54
454.362	8.42
454.565	8.33
454.769	8.36
454.972	8.97
455.175	9.31
455.379	9.69
455.582	10.45
455.785	10.34
455.988	10.1
456.192	9.68
456.395	10.07
456.598	10.07
456.801	10.49
457.005	9.89
457.208	9.35
457.411	8.92
457.614	8.62
457.817	8.21
458.021	8.25
458.224	8.11
458.427	8.33
458.63	8.2
458.833	8.46
459.036	8.46
459.239	8.49
459.442	8.27
459.645	8.41
459.848	8.22
460.051	8.16
460.254	8.24
460.457	8.49
460.66	8.69
460.863	8.57
461.066	8.44
461.269	7.98
461.472	8.27
461.675	8.5
461.878	8.37
462.081	8.42
462.284	8.43
462.486	7.87
462.689	7.71
462.892	7.67
463.095	8.08
463.298	7.73
463.5	8.38
463.703	8.33
463.906	8.36
464.109	8.36
464.311	8.65
464.514	8.55
464.717	8.87
464.92	9.01
465.122	9.16
465.325	9.19
465.528	9.31
465.73	8.52
465.933	8.45
466.135	8.73
466.338	8.69
466.541	8.63
466.743	8.59
466.946	8.55
467.148	8.62
467.351	8.6
467.553	8.68
467.756	8.64
467.958	9.03
468.161	8.9
468.363	8.67
468.566	8.92
468.768	8.86
468.971	8.95
469.173	9.66
469.375	9.51
469.578	8.83
469.78	8.28
469.983	8.59
470.185	8.26
470.387	8.3
470.59	8.59
470.792	8.18
470.994	7.99
471.196	7.88
471.399	7.18
471.601	7.52
471.803	7.71
472.005	7.89
472.208	8.04
472.41	8.16
472.612	8.14
472.814	8.08
473.016	8.19
473.218	8.22
473.421	8.08
473.623	8.29
473.825	8.07
474.027	8.42
474.229	8.66
474.431	8
474.633	8
474.835	8.03
475.037	7.87
475.239	8.14
475.441	8.36
475.643	8.92
475.845	8.75
476.047	8.84
476.249	8.53
476.451	8.33
476.653	8.57
476.855	8.69
477.057	8.76
477.258	8.39
477.46	8.45
477.662	8.52
477.864	8.5
478.066	8.6
478.268	8.63
478.469	8.94
478.671	8.91
478.873	8.81
479.075	8.58
479.276	8.79
479.478	9.06
479.68	9.35
479.882	8.92
480.083	9.18
480.285	9.24
480.487	9.19
480.688	9.19
480.89	9.34
481.091	9.44
481.293	9.38
481.495	9
481.696	8.94
481.898	8.65
482.099	8.81
482.301	8.55
482.502	8.44
482.704	8.43
482.905	8.27
483.107	8.2
483.308	7.98
483.51	8.02
483.711	8.06
483.913	8.06
484.114	8.02
484.315	7.9
484.517	7.91
484.718	7.88
484.92	7.88
485.121	7.96
485.322	7.99
485.524	8.14
485.725	8.23
485.926	8.41
486.127	8.51
486.329	8.54
486.53	8.54
486.731	8.47
486.932	8.38
487.134	8.36
487.335	8.41
487.536	8.31
487.737	8.36
487.938	8.4
488.139	8.2
488.341	8.06
488.542	8.06
488.743	8.18
488.944	8.3
489.145	8.46
489.346	8.54
489.547	8.54
489.748	8.73
489.949	8.69
490.15	8.6
490.351	8.71
490.552	8.7
490.753	8.71
490.954	8.66
491.155	8.55
491.356	8.54
491.557	8.4
491.758	8.54
491.959	8.53
492.159	8.48
492.36	8.5
492.561	8.55
492.762	8.47
492.963	8.46
493.164	8.53
493.364	8.84
493.565	8.9
493.766	8.86
493.967	8.58
494.167	8.27
494.368	8.3
494.569	8.04
494.769	8.07
494.97	8.28
495.171	8.44
495.371	8.15
495.572	8.03
495.773	8.13
495.973	8.16
496.174	8.28
496.375	8.72
496.575	8.84
496.776	8.98
496.976	8.63
497.177	8.79
497.377	8.48
497.578	8.58
497.778	8.51
497.979	8.48
498.179	8.43
498.38	8.25
498.58	8.01
498.78	8.05
498.981	8.37
499.181	8.42
499.382	8.17
499.582	8.37
499.782	8.75
499.983	8.83
500.183	8.94
500.383	9.09
500.584	9.15
500.784	9.19
500.984	9.01
501.184	8.62
501.385	8.64
501.585	8.7
501.785	8.54
501.985	8.3
502.185	8.45
502.386	8.25
502.586	8.31
502.786	8.48
502.986	8.14
503.186	8.34
503.386	8.54
503.586	8.89
503.786	9.07
503.987	9.26
504.187	9.23
504.387	9.41
504.587	9.42
504.787	9.39
504.987	9.37
505.187	9.53
505.387	9.63
505.587	9.74
505.786	9.79
505.986	9.86
506.186	10
506.386	10.11
506.586	10.13
506.786	10.54
506.986	10.39
507.186	10.42
507.386	10.68
507.585	10.85
507.785	10.75
507.985	10.81
508.185	10.63
508.384	10.73
508.584	10.84
508.784	10.68
508.984	10.65
509.183	10.98
509.383	10.9
509.583	11.07
509.782	10.91
509.982	11.21
510.182	11.08
510.381	11.06
510.581	10.9
510.781	10.9
510.98	10.94
511.18	10.86
511.379	10.64
511.579	10.58
511.778	10.55
511.978	10.38
512.177	10.19
512.377	10.16
512.576	10.33
512.776	10.18
512.975	10.15
513.175	10.21
513.374	10.3
513.573	10.65
513.773	10.84
513.972	10.66
514.172	11.17
514.371	11.17
514.57	11.37
514.77	11.29
514.969	11.42
515.168	11.66
515.367	11.72
515.567	11.48
515.766	11.38
515.965	11.28
516.164	11.27
516.364	11.05
516.563	11.1
516.762	10.99
516.961	11.25
517.16	11.32
517.359	11.09
517.559	10.98
517.758	11.16
517.957	11.21
518.156	11.54
518.355	11.64
518.554	11.85
518.753	11.8
518.952	11.83
519.151	11.65
519.35	11.86
519.549	12.14
519.748	12.42
519.947	12.51
520.146	12.61
520.345	12.58
520.544	12.46
520.743	12.38
520.942	12.38
521.141	12.73
521.339	13.02
521.538	13.26
521.737	13.38
521.936	13.25
522.135	13.17
522.333	13.39
522.532	13.53
522.731	13.92
522.93	14.2
523.129	14.42
523.327	14.34
523.526	14.38
523.725	14.37
523.923	14.39
524.122	14.46
524.321	14.68
524.519	14.67
524.718	14.69
524.917	14.72
525.115	14.72
525.314	14.75
525.512	14.8
525.711	14.91
525.909	14.77
526.108	14.81
526.306	14.88
526.505	14.94
526.703	14.96
526.902	14.97
527.1	14.99
527.299	14.83
527.497	14.85
527.696	14.95
527.894	14.89
528.092	15.03
528.291	14.99
528.489	14.97
528.688	14.99
528.886	14.89
529.084	14.95
529.283	15.08
529.481	15.28
529.679	15.39
529.877	15.56
530.076	15.74
530.274	15.97
530.472	16.15
530.67	16.53
530.869	16.74
531.067	17.01
531.265	17.05
531.463	17.05
531.661	17.14
531.859	17.37
532.057	17.24
532.255	17.38
532.454	17.17
532.652	17.1
532.85	16.98
533.048	17.04
533.246	17.19
533.444	17.22
533.642	17.36
533.84	17.6
534.038	17.68
534.236	17.67
534.434	17.72
534.632	17.97
534.83	18.33
535.027	18.6
535.225	18.69
535.423	18.79
535.621	18.99
535.819	19.11
536.017	19.06
536.215	18.98
536.412	19.14
536.61	19.15
536.808	19.24
537.006	19.27
537.203	19.25
537.401	19.3
537.599	19.23
537.797	19.22
537.994	19.42
538.192	19.59
538.39	19.72
538.587	20.06
538.785	20.1
538.983	20.14
539.18	20.35
539.378	20.58
539.575	20.55
539.773	20.45
539.97	20.67
540.168	20.81
540.366	20.79
540.563	20.72
540.761	20.65
540.958	20.78
541.155	20.79
541.353	20.82
541.55	20.96
541.748	20.93
541.945	21.24
542.143	21.05
542.34	21.07
542.537	21.26
542.735	21.54
542.932	21.65
543.129	21.62
543.327	21.87
543.524	21.76
543.721	21.45
543.919	21.62
544.116	21.66
544.313	21.96
544.51	21.73
544.708	21.88
544.905	21.78
545.102	21.85
545.299	22.01
545.496	22
545.693	22.17
545.891	22.25
546.088	22.29
546.285	22.3
546.482	22.42
546.679	22.3
546.876	22.22
547.073	22.6
547.27	22.6
547.467	22.68
547.664	22.71
547.861	22.77
548.058	23.3
548.255	23.73
548.452	24.06
548.649	24.06
548.846	24.67
549.043	24.61
549.24	24.39
549.437	24.45
549.633	24.4
549.83	24.57
550.027	24.62
550.224	24.57
550.421	24.35
550.618	24.2
550.814	24.13
551.011	24.09
551.208	24.25
551.405	24.33
551.601	24.47
551.798	24.67
551.995	24.61
552.191	24.73
552.388	24.78
552.585	25.1
552.781	24.92
552.978	25.28
553.175	25.22
553.371	24.75
553.568	24.66
553.764	25.11
553.961	25.06
554.157	25.43
554.354	25.17
554.55	25.02
554.747	24.8
554.943	25.37
555.14	25.35
555.336	25.59
555.533	26.1
555.729	26.62
555.926	26.26
556.122	26.41
556.318	26.36
556.515	26.91
556.711	27.42
556.907	27.44
557.104	27.36
557.3	27.34
557.496	27.25
557.693	27.33
557.889	27.44
558.085	27.46
558.281	27.48
558.478	26.98
558.674	27.07
558.87	26.84
559.066	26.82
559.262	26.54
559.459	26.18
559.655	26.21
559.851	25.88
560.047	25.82
560.243	25.9
560.439	25.98
560.635	26.71
560.831	26.65
561.027	26.32
561.223	26.52
561.419	26.58
561.615	26.94
561.811	26.73
562.007	27.65
562.203	27.36
562.399	27.66
562.595	27.52
562.791	27.27
562.987	27.19
563.183	27.28
563.379	27.03
563.575	27.34
563.771	27.45
563.966	27.88
564.162	27.33
564.358	27.53
564.554	26.96
564.75	27.01
564.945	27.11
565.141	27.42
565.337	27.45
565.533	27.67
565.728	27.53
565.924	27.75
566.12	27.85
566.315	27.92
566.511	27.77
566.707	28.26
566.902	28.52
567.098	28.16
567.293	27.74
567.489	27.8
567.684	28.11
567.88	28.27
568.076	28.02
568.271	27.8
568.467	27.79
568.662	27.59
568.858	27.55
569.053	27.61
569.248	28.07
569.444	28.22
569.639	28.36
569.835	28.01
570.03	27.82
570.225	27.69
570.421	27.69
570.616	28.21
570.812	28.46
571.007	28.4
571.202	28.27
571.397	28.39
571.593	28.31
571.788	28.06
571.983	28.06
572.178	28.4
572.374	28.26
572.569	28.16
572.764	27.42
572.959	27.57
573.154	27.77
573.35	28.16
573.545	28.01
573.74	27.89
573.935	27.78
574.13	27.85
574.325	27.67
574.52	27.83
574.715	27.97
574.91	28.63
575.105	28.41
575.3	28.48
575.495	28.23
575.69	28.33
575.885	28.49
576.08	28.47
576.275	28.73
576.47	29.16
576.665	29.67
576.86	29.51
577.055	29.35
577.25	29.38
577.444	29.02
577.639	28.59
577.834	28.85
578.029	29.14
578.224	29.24
578.418	28.86
578.613	28.45
578.808	27.96
579.003	27.87
579.197	27.82
579.392	27.61
579.587	27.8
579.781	28.13
579.976	27.85
580.171	28.28
580.365	28.48
580.56	28.38
580.755	28.35
580.949	28.44
581.144	28.55
581.338	28.24
581.533	28.17
581.727	28.47
581.922	28.29
582.116	27.95
582.311	27.51
582.505	27.79
582.7	27.88
582.894	28.06
583.089	28.17
583.283	28.3
583.478	28.65
583.672	29.38
583.866	28.83
584.061	28.9
584.255	29.49
584.449	29.63
584.644	29.43
584.838	30.12
585.032	30.03
585.226	30.18
585.421	30.5
585.615	30.48
585.809	30.19
586.003	30.24
586.198	31.15
586.392	30.43
586.586	30.77
586.78	31
586.974	30.67
587.168	30.58
587.363	30.86
587.557	30.57
587.751	30.74
587.945	30.85
588.139	31.27
588.333	30.63
588.527	30.86
588.721	30.08
588.915	29.6
589.109	29.54
589.303	29.72
589.497	29.59
589.691	29.85
589.885	29.51
590.079	29.43
590.273	29.49
590.466	29.44
590.66	30
590.854	30.6
591.048	31.07
591.242	31.34
591.436	31.15
591.629	31.23
591.823	30.98
592.017	31.26
592.211	31.3
592.404	31.36
592.598	31.32
592.792	31.19
592.986	31.28
593.179	31.53
593.373	31.29
593.567	31.21
593.76	30.73
593.954	30.86
594.147	30.69
594.341	30.66
594.535	30.77
594.728	30.8
594.922	30.69
595.115	30.46
595.309	30.48
595.502	30.54
595.696	30.89
595.889	31.11
596.083	31.03
596.276	31.11
596.47	31.33
596.663	30.89
596.856	31.01
597.05	31.38
597.243	31.24
597.437	31.05
597.63	31.02
597.823	30.62
598.017	31.02
598.21	31.11
598.403	31.3
598.596	30.56
598.79	30.72
598.983	30.82
599.176	30.11
599.369	30.33
599.563	30.48
599.756	30.73
599.949	31.09
600.142	30.97
600.335	31.31
600.528	31
600.722	31.55
600.915	31.82
601.108	31.92
601.301	32.24
601.494	31.89
601.687	31.75
601.88	31.57
602.073	31.15
602.266	31.28
602.459	31.3
602.652	31.52
602.845	31.8
603.038	31.76
603.231	31.68
603.424	31.6
603.617	31.93
603.809	31.87
604.002	32.07
604.195	32.19
604.388	31.67
604.581	31.6
604.774	31.74
604.966	31.23
605.159	31.15
605.352	30.95
605.545	30.97
605.737	31.14
605.93	31.54
606.123	31.28
606.316	31.56
606.508	31.44
606.701	30.78
606.894	30.54
607.086	30.99
607.279	30.94
607.471	30.71
607.664	30.75
607.857	30.83
608.049	30.38
608.242	30.28
608.434	30.37
608.627	31.49
608.819	31.97
609.012	32.59
609.204	32.19
609.397	32.5
609.589	33.06
609.782	33.03
609.974	32.9
610.166	33
610.359	33.03
610.551	33.6
610.743	33.16
610.936	33.58
611.128	33.67
611.32	34.34
611.513	34.31
611.705	34.06
611.897	34.52
612.09	34.75
612.282	35.74
612.474	36.72
612.666	36.53
612.858	36.03
613.051	35.41
613.243	34.45
613.435	34.61
613.627	34.04
613.819	34.18
614.011	33.23
614.203	33.46
614.395	33.32
614.588	33.31
614.78	33.5
614.972	34.38
615.164	34.72
615.356	35.74
615.548	36.14
615.74	36.69
615.932	36.4
616.124	37.26
616.315	37.35
616.507	37.21
616.699	37.1
616.891	36.65
617.083	37.04
617.275	37.37
617.467	36.45
617.659	35.89
617.85	35.86
618.042	36.58
618.234	36.13
618.426	35.51
618.618	34.8
618.809	34.62
619.001	34.36
619.193	33.88
619.384	34.03
619.576	34.94
619.768	35.46
619.959	35.7
620.151	35.19
620.343	35.39
620.534	35.73
620.726	36.63
620.917	36.83
621.109	37.06
621.301	37.13
621.492	36.74
621.684	36.03
621.875	36.08
622.067	35.86
622.258	36.25
622.45	36.58
622.641	37.01
622.832	37.35
623.024	36.66
623.215	36.77
623.407	36.08
623.598	36.6
623.789	36.92
623.981	36.92
624.172	37.07
624.363	36.83
624.555	36.77
624.746	35.86
624.937	35.33
625.129	35.69
625.32	35.64
625.511	36.29
625.702	35.93
625.893	36.11
626.085	35.43
626.276	35.28
626.467	35.34
626.658	34.84
626.849	35.45
627.04	35.48
627.231	35.64
627.422	35.69
627.614	35.42
627.805	35.27
627.996	34.9
628.187	35.29
628.378	35.73
628.569	36.21
628.76	36.53
628.951	35.97
629.142	36.16
629.332	35.51
629.523	35.26
629.714	35.25
629.905	35.97
630.096	36.34
630.287	36.23
630.478	35.45
630.669	35.5
630.859	35.43
631.05	36.21
631.241	35.59
631.432	35.95
631.623	35.99
631.813	35.39
632.004	34.59
632.195	34.42
632.385	34.02
632.576	34.31
632.767	34.28
632.957	34.73
633.148	34.19
633.339	34.43
633.529	34.59
633.72	33.85
633.91	34.28
634.101	34.65
634.292	34.53
634.482	35.26
634.673	35.89
634.863	34.73
635.054	34.04
635.244	35.17
635.435	35.12
635.625	35.25
635.815	36.45
636.006	36.17
636.196	36.42
636.387	36.55
636.577	36.62
636.767	36.67
636.958	37.06
637.148	37.49
637.338	36.84
637.529	37.35
637.719	37.44
637.909	37.63
638.099	38.48
638.29	38.02
638.48	37.91
638.67	37.78
638.86	37.1
639.05	37.68
639.241	37.71
639.431	36.77
639.621	37.1
639.811	36.57
640.001	36.74
640.191	36.31
640.381	36.08
640.571	36.12
640.761	36.53
640.951	37.31
641.141	37.35
641.331	37.59
641.521	38.32
641.711	37.72
641.901	38.14
642.091	38.07
642.281	38.09
642.471	38.79
642.661	39.42
642.851	38.69
643.041	38.82
643.231	38.66
643.42	38.69
643.61	38.9
643.8	38.78
643.99	38.4
644.18	37.51
644.369	38.23
644.559	37.47
644.749	36.97
644.939	37.39
645.128	36.44
645.318	37.28
645.508	38.01
645.697	37.57
645.887	38.48
646.076	39.32
646.266	40.5
646.456	39.54
646.645	39.74
646.835	40.19
647.024	40.2
647.214	40.94
647.403	40.34
647.593	38.87
647.782	39.25
647.972	38.82
648.161	38.8
648.351	38.61
648.54	39.13
648.73	39.89
648.919	39.59
649.108	39.05
649.298	39.19
649.487	40.11
649.677	40.8
649.866	41.11
650.055	40.72
650.244	41.3
650.434	41.17
650.623	40.72
650.812	40.45
651.002	40.33
651.191	40.55
651.38	40.24
651.569	39.84
651.758	40.15
651.947	39.41
652.137	39.41
652.326	38.21
652.515	37.96
652.704	38.34
652.893	37.6
653.082	37.64
653.271	38.02
653.46	37.38
653.649	36.34
653.838	35.65
654.027	36.44
654.216	37.05
654.405	37.89
654.594	38.09
654.783	38.16
654.972	38.59
655.161	38.25
655.35	38.13
655.539	38.77
655.728	39.35
655.916	39.23
656.105	39.17
656.294	39.04
656.483	38.25
656.672	37.55
656.86	37.3
657.049	37.59
657.238	37.9
657.427	37.89
657.615	38.13
657.804	38.1
657.993	38.15
658.181	38.35
658.37	37.84
658.559	37.88
658.747	38.29
658.936	38.35
659.125	37.01
659.313	36.57
659.502	36.53
659.69	36.31
659.879	36.3
660.067	36.2
660.256	35.52
660.444	36.48
660.633	36.52
660.821	36.39
661.01	36.76
661.198	38.09
661.387	38.83
661.575	39.43
661.763	39.8
661.952	39.94
662.14	40.52
662.328	40.49
662.517	40.27
662.705	40.93
662.893	41.33
663.082	40.94
663.27	41.09
663.458	40.79
663.646	39.9
663.834	38.05
664.023	38.11
664.211	37.69
664.399	38.55
664.587	38.12
664.775	37.47
664.963	37.71
665.152	37.98
665.34	38.12
665.528	38.84
665.716	39.55
665.904	41
666.092	40.83
666.28	41.62
666.468	41.43
666.656	41.94
666.844	42.01
667.032	41.27
667.22	41.61
667.408	40.9
667.596	40.93
667.784	40.8
667.971	41.48
668.159	41.18
668.347	40.95
668.535	40.95
668.723	39.67
668.911	39.19
669.098	39.1
669.286	38.19
669.474	38.9
669.662	38.59
669.849	37.76
670.037	37.89
670.225	38.23
670.413	38.39
670.6	37.93
670.788	38.58
670.976	38.86
671.163	39.14
671.351	39.38
671.538	39.43
671.726	39.05
671.913	39.84
672.101	39.39
672.289	39.27
672.476	39.73
672.664	40.25
672.851	39.86
673.039	40.24
673.226	41.26
673.413	41.1
673.601	41.71
673.788	42.44
673.976	41.91
674.163	41.84
674.35	41.61
674.538	41.17
674.725	40.19
674.912	41.02
675.1	41.28
675.287	40.37
675.474	41.29
675.662	40.57
675.849	40.2
676.036	40.3
676.223	39.87
676.411	40.12
676.598	39.8
676.785	41.46
676.972	41.46
677.159	41.7
677.346	41.48
677.533	42.04
677.721	41
677.908	40.56
678.095	40.55
678.282	40.26
678.469	39.87
678.656	39.91
678.843	39.08
679.03	39.04
679.217	38.29
679.404	38.62
679.591	38.27
679.778	39.84
679.964	40.39
680.151	39.82
680.338	40.4
680.525	40.81
680.712	40.66
680.899	40.28
681.086	39.97
681.272	41.29
681.459	41.53
681.646	40.65
681.833	39.5
682.02	39.2
682.206	40.1
682.393	40.4
682.58	40.31
682.766	42.98
682.953	43.69
683.14	44.34
683.326	44.14
683.513	44.69
683.7	46.53
683.886	47.89
684.073	48.28
684.259	47.78
684.446	47.34
684.632	47.84
684.819	45.01
685.005	43.92
685.192	43.21
685.378	42.57
685.565	41
685.751	39.15
685.938	38.34
686.124	37.95
686.31	38.39
686.497	38.68
686.683	39.09
686.87	39.43
687.056	40.29
687.242	39.93
687.429	39.79
687.615	40.62
687.801	41.59
687.987	42.01
688.174	42.14
688.36	42.32
688.546	41.79
688.732	41.66
688.918	40.96
689.105	40.65
689.291	41.22
689.477	41.34
689.663	40.84
689.849	41.27
690.035	40.67
690.221	40.27
690.407	40.12
690.593	40.79
690.779	39.75
690.965	41.06
691.151	41.05
691.337	42.58
691.523	42.9
691.709	43.26
691.895	43.15
692.081	43.99
692.267	44.92
692.453	45.34
692.639	45.66
692.825	46.07
693.011	45.42
693.196	46.18
693.382	44.49
693.568	44.49
693.754	44.58
693.94	42.97
694.125	42.33
694.311	42.76
694.497	43.24
694.682	42.68
694.868	42.86
695.054	41.96
695.239	42.15
695.425	43.07
695.611	42.45
695.796	42.46
695.982	43.55
696.168	44.05
696.353	43.3
696.539	43.13
696.724	42.04
696.91	41.38
697.095	41.42
697.281	41.81
697.466	41.69
697.652	42.38
697.837	41.37
698.023	41.28
698.208	40.36
698.393	40.19
698.579	40.07
698.764	40.61
698.949	41.25
699.135	42.25
699.32	41.56
699.505	41.04
699.691	40.87
699.876	42.09
700.061	42.35
700.246	42.97
700.432	43.44
700.617	43.51
700.802	42.96
700.987	42.89
701.172	43.55
701.358	43.99
701.543	45.14
701.728	46.32
701.913	47.42
702.098	47.94
702.283	49.36
702.468	49.17
702.653	49.56
702.838	50.75
703.023	50.96
703.208	50.1
703.393	50.32
703.578	50.06
703.763	49.78
703.948	47.69
704.133	48.07
704.318	47.64
704.503	48.11
704.688	47.87
704.873	47.05
705.057	47.77
705.242	48.08
705.427	47.8
705.612	47.75
705.797	47.2
705.981	49.79
706.166	48.95
706.351	48.5
706.536	49.08
706.72	49.32
706.905	49.88
707.09	49.5
707.274	49.62
707.459	49.23
707.644	48.26
707.828	47.12
708.013	45.96
708.197	45.99
708.382	45.44
708.567	44.75
708.751	44.42
708.936	45
709.12	45.06
709.305	44.79
709.489	43.48
709.673	43.93
709.858	44.45
710.042	43.54
710.227	43.44
710.411	43.61
710.596	43.77
710.78	44.32
710.964	44.88
711.149	43.46
711.333	43.37
711.517	45.42
711.702	46.42
711.886	46.8
712.07	48
712.254	48.02
712.438	48.5
712.623	48.21
712.807	47.53
712.991	47.08
713.175	48.34
713.359	48.66
713.544	48.61
713.728	48.63
713.912	48.57
714.096	48.63
714.28	47.23
714.464	47.02
714.648	47.06
714.832	47.14
715.016	45.75
715.2	46.38
715.384	46.26
715.568	45.8
715.752	44.22
715.936	44
716.12	43.49
716.304	44.43
716.488	45.41
716.671	46.84
716.855	47.53
717.039	49.3
717.223	50.24
717.407	50.35
717.59	49.55
717.774	50.95
717.958	50.88
718.142	51.41
718.325	53.33
718.509	51.79
718.693	51.29
718.877	50.38
719.06	50.83
719.244	47.9
719.428	47.41
719.611	49.15
719.795	48.65
719.978	49.45
720.162	48.16
720.345	46.25
720.529	47.83
720.713	47.34
720.896	48.58
721.08	50.05
721.263	51.94
721.446	52.45
721.63	51.51
721.813	51.66
721.997	51.89
722.18	51.59
722.364	52.67
722.547	53.47
722.73	54.03
722.914	52.51
723.097	51.28
723.28	51.61
723.464	50.69
723.647	51.73
723.83	51.62
724.013	51.59
724.197	52.23
724.38	53.34
724.563	51.8
724.746	51.64
724.929	53.36
725.112	53.51
725.296	52.16
725.479	51.86
725.662	50.66
725.845	51.19
726.028	51.21
726.211	50.79
726.394	49.94
726.577	51.04
726.76	49.9
726.943	48.7
727.126	47.65
727.309	46.93
727.492	47.49
727.675	47.96
727.858	47.14
728.041	46.21
728.224	47.84
728.407	46.55
728.589	45.41
728.772	45.3
728.955	45.47
729.138	45.64
729.321	45.9
729.503	46.53
729.686	45.5
729.869	45.64
730.052	46.5
730.234	45.71
730.417	45.37
730.6	45.26
730.782	46.86
730.965	47.2
731.148	46.9
731.33	48.12
731.513	47.27
731.695	47.22
731.878	47.52
732.061	47.23
732.243	47.65
732.426	48.37
732.608	46.96
732.791	46.53
732.973	46.16
733.156	47.12
733.338	49.31
733.52	49.57
733.703	51.09
733.885	53.72
734.068	54.01
734.25	54.89
734.432	55.21
734.615	56.96
734.797	57.45
734.979	57.04
735.162	57.53
735.344	54.71
735.526	55.92
735.708	55.18
735.891	51.59
736.073	50.97
736.255	49.62
736.437	49.78
736.619	48.77
736.802	49.05
736.984	51.31
737.166	48.79
737.348	48.28
737.53	48.1
737.712	48
737.894	48.67
738.076	49.31
738.258	50.14
738.44	49.54
738.622	49.58
738.804	49.96
738.986	48.3
739.168	48.42
739.35	48.94
739.532	48.11
739.714	49.51
739.896	50.68
740.078	50.12
740.259	49.92
740.441	49.19
740.623	51.37
740.805	49.11
740.987	48.84
741.168	50.21
741.35	49.33
741.532	51.81
741.714	50.69
741.895	49.53
742.077	48.59
742.259	51.25
742.44	53.07
742.622	52.4
742.804	51.22
742.985	52.55
743.167	52.68
743.348	54.33
743.53	51.21
743.711	51.55
743.893	51.97
744.075	55.71
744.256	53.72
744.438	51.54
744.619	52.48
744.8	54.2
744.982	54.32
745.163	55.74
745.345	55.67
745.526	56.59
745.707	56.12
745.889	57.27
746.07	57.47
746.252	56.64
746.433	58.69
746.614	58.52
746.795	61.95
746.977	62.55
747.158	62.56
747.339	60.8
747.52	60.68
747.702	60.28
747.883	60.33
748.064	60.5
748.245	59.6
748.426	61.4
748.607	60.41
748.788	58.89
748.97	57.95
749.151	56.03
749.332	59.17
749.513	59.08
749.694	61.21
749.875	60.6
750.056	59.11
750.237	59.18
750.418	56
750.599	56.9
750.78	53.52
750.96	53.73
751.141	54.39
751.322	51.25
751.503	50.74
751.684	50.87
751.865	49.07
752.046	48.59
752.226	47.4
752.407	47.39
752.588	47.37
752.769	48.96
752.949	49.14
753.13	48.03
753.311	48.34
753.492	48.14
753.672	45.91
753.853	50.04
754.034	46.08
754.214	48.54
754.395	49.29
754.575	48.86
754.756	48.37
754.937	46.2
755.117	47.59
755.298	50.09
755.478	50.64
755.659	50.36
755.839	48.14
756.02	50.24
756.2	49.37
756.381	50.68
756.561	49.97
756.741	51.47
756.922	52.82
757.102	51
757.283	50.86
757.463	50.92
757.643	54.21
757.823	54.5
758.004	56.01
758.184	56.43
758.364	55.17
758.545	57.29
758.725	56.78
758.905	56.06
759.085	58.88
759.265	56.95
759.446	58.01
759.626	56.85
759.806	57.82
759.986	56.32
760.166	57.03
760.346	58.93
760.526	57.4
760.706	57.61
760.886	57.94
761.066	56.7
761.246	55.64
761.426	54.21
761.606	52.6
761.786	50.92
761.966	49.44
762.146	46.85
762.326	45.44
762.506	45
762.686	44.53
762.866	44.74
763.046	43.18
763.225	44.69
763.405	43.96
763.585	43.38
763.765	45.35
763.945	47.7
764.124	48.47
764.304	49.14
764.484	50.35
764.664	49.8
764.843	50.73
765.023	52.23
765.203	50.21
765.382	53.33
765.562	55.65
765.741	55.04
765.921	53.99
766.101	56.8
766.28	56.41
766.46	57.09
766.639	57.64
766.819	57.1
766.998	59.9
767.178	62.16
767.357	60.14
767.537	59.92
767.716	58.67
767.896	59.38
768.075	60.28
768.254	60.84
768.434	58.2
768.613	60.09
768.792	61.84
768.972	58.26
769.151	58.03
769.33	58.39
769.51	58.08
769.689	59.32
769.868	59.49
770.047	58.51
770.226	60.01
770.406	62.74
770.585	62.33
770.764	59.7
770.943	60.71
771.122	63.07
771.301	63.38
771.48	63.71
771.66	64.37
771.839	64.8
772.018	64.7
772.197	62.88
772.376	64.47
772.555	64.95
772.734	64.94
772.913	65.38
773.092	63.68
773.271	63.32
773.449	65.57
773.628	63.9
773.807	66.53
773.986	64.89
774.165	64.3
774.344	65.73
774.523	63.47
774.701	65.84
774.88	66.46
775.059	65.98
775.238	68.72
775.417	67.09
775.595	68.21
775.774	65.73
775.953	63.99
776.131	63.63
776.31	58.25
776.489	58.8
776.667	57.28
776.846	59.81
777.025	60.13
777.203	61.05
777.382	59.41
777.56	57.75
777.739	57.45
777.917	59.91
778.096	63.96
778.274	65.81
778.453	64.47
778.631	63.76
778.81	62.61
778.988	64.96
779.166	64.35
779.345	65.64
779.523	66.4
779.702	68.93
779.88	65.55
780.058	59.52
780.237	57.02
780.415	62.67
780.593	64.76
780.771	66.09
780.95	60.26
781.128	60.24
781.306	62.57
781.484	65.91
781.662	66.3
781.841	64.91
782.019	68.94
782.197	70.17
782.375	68.9
782.553	70.29
782.731	69.13
782.909	73.09
783.087	70.52
783.265	68.17
783.443	61.86
783.621	61.13
783.799	66.5
783.977	66.91
784.155	68.28
784.333	66.45
784.511	66.7
784.689	64.28
784.867	64.74
785.045	67.01
785.223	66.11
785.4	69.71
785.578	70.13
785.756	70.71
785.934	65.92
786.112	66.42
786.289	67.62
786.467	61.81
786.645	62.26
786.823	61.04
787	57.04
787.178	55.56
787.356	52.73
787.533	51.61
787.711	50.3
787.889	53.15
788.066	50.76
788.244	49.96
788.421	52.89
788.599	52.59
788.776	52.87
788.954	56.01
789.131	58.44
789.309	59.95
789.486	58.68
789.664	56.49
789.841	57.13
790.019	59.32
790.196	59.42
790.373	60.17
790.551	59.59
790.728	61.92
790.906	60.35
791.083	58.37
791.26	58.22
791.437	61.18
791.615	67.12
791.792	69.53
791.969	68.92
792.146	70.09
792.324	67.54
792.501	68.93
792.678	70.13
792.855	68.67
793.032	70.54
793.209	70.66
793.387	69.84
793.564	67.23
793.741	63.91
793.918	64.8
794.095	64.92
794.272	66.71
794.449	66.06
794.626	63.65
794.803	66.74
794.98	63.71
795.157	64.87
795.334	64.66
795.511	64.61
795.688	63.38
795.864	62.19
796.041	63.15
796.218	63.89
796.395	66.25
796.572	67.11
796.749	68.56
796.925	70.92
797.102	68.62
797.279	67.57
797.456	67.34
797.632	68.96
797.809	68.41
797.986	62.6
798.162	63.08
798.339	62.15
798.516	59.47
798.692	55.26
798.869	56.99
799.046	59.53
799.222	57.64
799.399	54.07
799.575	52.5
799.752	52.84
799.928	56.94
800.105	55.97
800.281	54.17
800.458	55.91
800.634	58.76
800.811	56.06
800.987	56.83
801.163	58.53
801.34	64.56
801.516	67.14
801.692	69.72
801.869	70.58
802.045	70.33
802.221	72.08
802.398	73.38
802.574	73.29
802.75	72.24
802.926	68.14
803.103	67.67
803.279	65.11
803.455	66.03
803.631	63.76
803.807	64.36
803.983	61.51
804.16	61.7
804.336	60.13
804.512	60.19
804.688	62.78
804.864	63.15
805.04	63.16
805.216	62.92
805.392	58.57
805.568	58.33
805.744	58.07
805.92	55.37
806.096	52.67
806.272	53.64
806.448	53.64
806.623	52.6
806.799	49.71
806.975	48.93
807.151	51.16
807.327	53.52
807.503	54.94
807.678	50.89
807.854	55.18
808.03	59.26
808.206	61.47
808.381	59.82
808.557	60.34
808.733	63.19
808.908	68.46
809.084	68.95
809.26	70.27
809.435	66.57
809.611	70.05
809.787	68.9
809.962	65.62
810.138	65.95
810.313	65.58
810.489	70.43
810.664	72.16
810.84	67.05
811.015	66.52
811.191	65.9
811.366	69.34
811.542	73.74
811.717	73.2
811.892	75.88
812.068	71.42
812.243	73.73
812.419	68.96
812.594	72.03
812.769	75.53
812.944	79.49
813.12	86.18
813.295	93.34
813.47	90.86
813.645	100.11
813.821	95.42
813.996	96.39
814.171	94.1
814.346	93.15
814.521	87.44
814.697	84.96
814.872	80.9
815.047	76.96
815.222	65.18
815.397	60.07
815.572	54.85
815.747	59
815.922	56.05
816.097	52.54
816.272	51.92
816.447	58.09
816.622	55.05
816.797	60.66
816.972	60.7
817.147	66.26
817.322	69.18
817.496	70.33
817.671	73.91
817.846	76.35
818.021	75.11
818.196	79.24
818.371	72.06
818.545	71.14
818.72	67.36
818.895	67.61
819.069	64.63
819.244	59.45
819.419	53.12
819.594	47.01
819.768	42.51
819.943	41.1
820.117	38.87
820.292	37.67
820.467	37.37
820.641	36.24
820.816	34.68
820.99	34.1
821.165	33.85
821.339	34.42
821.514	34.13
821.688	34.05
821.863	34.47
822.037	33.59
822.212	34.2
822.386	34.14
822.56	33.4
822.735	33.61
822.909	34.23
823.084	34.19
823.258	34.07
823.432	33.65
823.606	34.32
823.781	33.58
823.955	33.42
824.129	33.35
824.303	32.82
824.478	33.67
824.652	34.68
824.826	34.71
825	36.6
825.174	36.13
825.348	36.82
825.523	37.27
825.697	37.45
825.871	38.42
826.045	38.27
826.219	38.5
826.393	39.25
826.567	37.31
826.741	37
826.915	35.3
827.089	35.59
827.263	35.27
827.437	34.89
827.611	34.8
827.784	35.24
827.958	36.43
828.132	34.62
828.306	35.3
828.48	36.83
828.654	36.7
828.827	38.93
829.001	41.68
829.175	45.02
829.349	49.37
829.522	51.3
829.696	51.39
829.87	51.09
830.044	57.13
830.217	57.98
830.391	63.13
830.565	65.93
830.738	65.01
830.912	64.65
831.085	66.13
831.259	63.64
831.432	65.5
831.606	63.67
831.779	60.57
831.953	56.86
832.126	55.87
832.3	53.95
832.473	53.81
832.647	52.34
832.82	49.17
832.994	45.17
833.167	43.14
833.34	41.9
833.514	40.98
833.687	38.69
833.86	41.14
834.034	39.17
834.207	36.55
834.38	33.78
834.553	32.75
834.727	35.38
834.9	37.36
835.073	37.74
835.246	37.94
835.419	39.38
835.593	41.13
835.766	40.15
835.939	43.52
836.112	44.47
836.285	50.98
836.458	52.43
836.631	54.77
836.804	54.38
836.977	55.32
837.15	54.16
837.323	62.2
837.496	65.1
837.669	63.86
837.842	63.28
838.015	67.05
838.188	63.46
838.361	61.56
838.533	62.48
838.706	64.38
838.879	63.94
839.052	63.44
839.225	60.95
839.398	67.66
839.57	73.49
839.743	71.8
839.916	70.37
840.088	65.74
840.261	72.24
840.434	69.9
840.607	74.64
840.779	74.39
840.952	82.41
841.124	89.1
841.297	81.92
841.47	83.77
841.642	82.72
841.815	83.2
841.987	87.01
842.16	87.9
842.332	86.59
842.505	79.68
842.677	78.04
842.85	80.62
843.022	81.65
843.194	84.83
843.367	83.22
843.539	90.91
843.712	100.1
843.884	108.03
844.056	102.37
844.229	110.82
844.401	118.97
844.573	126.82
844.745	112.97
844.918	115.03
845.09	106.22
845.262	110.23
845.434	125.35
845.606	107.19
845.779	101.04
845.951	91.98
846.123	89.03
846.295	89.7
846.467	103.4
846.639	109.64
846.811	90.74
846.983	104
847.155	103.61
847.327	93.21
847.499	112.89
847.671	128.33
847.843	138.86
848.015	136.07
848.187	124.73
848.359	127.39
848.531	140.32
848.703	133.59
848.875	151.03
849.047	140.23
849.218	131.4
849.39	119.03
849.562	122.55
849.734	129.31
849.905	105.09
850.077	123.54
850.249	97.67
850.421	81.23
850.592	87.85
850.764	83.51
850.936	79.97
851.107	90.38
851.279	92.92
851.451	69.41
851.622	73.85
851.794	83.35
851.965	86.8
852.137	97.08
852.308	99.8
852.48	104.65
852.651	115.75
852.823	127.52
852.994	121.55
853.166	124.57
853.337	151.36
853.509	156.53
853.68	154.72
853.851	151.75
854.023	135.95
854.194	132.77
854.365	145.47
854.537	130.72
854.708	125.71
854.879	124.02
855.05	123.08
855.222	109.66
855.393	111.86
855.564	112.57
855.735	112.5
855.906	122.37
856.078	113.43
856.249	91.3
856.42	83.33
856.591	82.34
856.762	75.46
856.933	76.5
857.104	76.68
857.275	64.64
857.446	71.47
857.617	70.1
857.788	62.19
857.959	64.53
858.13	60.45
858.301	67.38
858.472	66.69
858.643	71.24
858.814	74.37
858.985	73.79
859.155	104.69
859.326	97.97
859.497	105.36
859.668	187.35
859.839	167.96
860.009	151.83
860.18	182.99
860.351	163.38
860.522	130.5
860.692	121.53
860.863	106.85
861.034	96.53
861.204	91.33
861.375	77.68
861.546	77.66
861.716	79.02
861.887	81.34
862.057	80.88
862.228	97.41
862.398	97.33
862.569	114.51
862.739	131.26
862.91	117.26
863.08	124.76
863.251	149.28
863.421	146.97
863.592	182.1
863.762	164.18
863.932	140.43
864.103	136.65
864.273	141.71
864.443	109.77
864.614	107.09
864.784	107.98
864.954	104.17
865.125	98.64
865.295	87.64
865.465	88.16
865.635	86.69
865.805	72.9
865.976	68.91
866.146	74.75
866.316	89.82
866.486	94.64
866.656	90.69
866.826	95.58
866.996	108.23
867.166	118.7
867.336	99.08
867.506	80.79
867.676	87.46
867.846	76.2
868.016	87.67
868.186	82.64
868.356	73.72
868.526	67.6
868.696	59.16
868.866	51.86
869.036	62.24
869.206	54.39
869.376	54.27
869.545	52.81
869.715	68.07
869.885	62.94
870.055	69.07
870.224	67.01
870.394	70.12
870.564	86.87
870.734	93.93
870.903	85.84
871.073	102.39
871.243	121.53
871.412	139.45
871.582	123.09
871.751	117.81
871.921	113.65
872.091	152.2
872.26	135.51
872.43	114.56
872.599	117.48
872.769	119.12
872.938	122.77
873.108	91.97
873.277	73.05
873.446	70.85
873.616	85.86
873.785	91.49
873.955	84.79
874.124	75.75
874.293	85.01
874.463	66.09
874.632	63.29
874.801	65.13
874.971	83.07
875.14	115.17
875.309	120.09
875.478	87.07
875.647	71.87
875.817	65.47
875.986	72.86
876.155	70.66
876.324	74.02
876.493	60.98
876.662	57.99
876.831	51.07
877	39.87
877.17	37.48
877.339	43.44
877.508	49.17
877.677	61.58
877.846	67.4
878.015	65.88
878.184	69.11
878.352	77.17
878.521	83.7
878.69	84.55
878.859	77.65
879.028	76.31
879.197	70.95
879.366	66.46
879.534	54.31
879.703	45.44
879.872	43.72
880.041	39.44
880.21	35.3
880.378	31.01
880.547	27.11
880.716	29.84
880.884	30.93
881.053	29.56
881.222	28.48
881.39	31.08
881.559	30.13
881.727	30.2
881.896	29.67
882.065	29.86
882.233	29.98
882.402	31.33
882.57	32.38
882.739	29.39
882.907	30.46
883.076	28.89
883.244	26.4
883.412	26.39
883.581	27.23
883.749	26.89
883.918	27.78
884.086	28.07
884.254	29.1
884.423	30.35
884.591	34.87
884.759	33.7
884.927	40.18
885.096	42.56
885.264	48.62
885.432	49.29
885.6	48.37
885.769	50.49
885.937	57.54
886.105	64.33
886.273	63.12
886.441	66.43
886.609	78.38
886.777	73.04
886.945	77.47
887.113	72.46
887.281	73.4
887.449	83.21
887.617	80.09
887.785	70.55
887.953	67.95
888.121	73.48
888.289	66.96
888.457	63.42
888.625	60.96
888.793	51.49
888.961	55.56
889.129	56.37
889.296	55.55
889.464	64.27
889.632	73.2
889.8	65.72
889.967	54.37
890.135	63.57
