Data from JASIL_3052_Reflection_01.txt Node
Date: Mon Nov 09 11:21:09 EST 2015
User: Geneva
Spectrometer: USB4E03002
Autoset integration time: false
Trigger mode: 4
Integration Time (sec): 1.000000E-1
Scans to average: 10
Electric dark correction enabled: false
Nonlinearity correction enabled: false
Boxcar width: 5
Stray light correction enabled: false
XAxis mode: Wavelengths
Stop averaging: false
Number of Pixels in Spectrum: 3648
>>>>>Begin Spectral Data<<<<<
177.575	445.45
177.794	6366.67
178.014	-74100
178.233	-1475.47
178.452	-988.31
178.672	-5200
178.891	2336.11
179.11	1121.92
179.33	1196.87
179.549	-5100
179.768	-2534.37
179.987	-475.61
180.207	-12871.43
180.426	2455.88
180.645	525.86
180.864	717.24
181.084	777.21
181.303	-97100
181.522	-895.19
181.741	-1157.89
181.96	-622.84
182.179	-274.75
182.398	-295.93
182.618	-166.83
182.837	-169.97
183.056	-121.91
183.275	-107.59
183.494	-82.62
183.713	-105.58
183.932	-85.21
184.151	-65.29
184.37	-70.2
184.589	849.15
184.808	551.82
185.027	875.28
185.246	967.42
185.465	899.07
185.684	-1063.24
185.903	-998.48
186.122	-203.57
186.341	-376.65
186.56	-277.34
186.779	-195.08
186.998	-92.01
187.216	-75.4
187.435	-66.14
187.654	-23.38
187.873	-6.69
188.092	-30.5
188.311	-41.58
188.53	-106.14
188.748	-50
188.967	-47.61
189.186	-116.57
189.405	-89.82
189.623	-214.92
189.842	-103.9
190.061	-123.62
190.28	-211.11
190.498	-231.97
190.717	-208.68
190.936	-124
191.154	-200.57
191.373	-10700
191.592	27900
191.81	-740
192.029	-526.92
192.248	270.33
192.466	495.12
192.685	13.64
192.904	1273.68
193.122	501.82
193.341	628.81
193.559	-1584.21
193.778	-600
193.996	-8160
194.215	396.55
194.433	2561.9
194.652	2357.14
194.87	706.02
195.089	833.33
195.307	1014.52
195.526	10028.57
195.744	813.64
195.963	-18175
196.181	-889.87
196.399	-507.69
196.618	-524.24
196.836	-301.69
197.055	-162.01
197.273	-291.58
197.491	-233.03
197.71	-203.78
197.928	-301.79
198.146	-226.26
198.365	-150.22
198.583	-223.36
198.801	-481.03
199.019	-79.9
199.238	-124.89
199.456	-112.18
199.674	-87.36
199.892	-147.64
200.111	-805.36
200.329	-214.36
200.547	-874.47
200.765	-738.33
200.983	719.48
201.202	-808.33
201.42	1011.32
201.638	335.42
201.856	229.45
202.074	186.52
202.292	177.84
202.51	270.26
202.728	218.51
202.946	296.46
203.165	251.82
203.383	570.83
203.601	606.25
203.819	473.57
204.037	308.22
204.255	284.29
204.473	768.67
204.691	1726.83
204.909	-2371.88
205.127	1344.83
205.345	1050
205.562	513.43
205.78	2129.63
205.998	-3142.11
206.216	-1324.39
206.434	-397.62
206.652	-443.7
206.87	-332.5
207.088	-376.39
207.306	-2175
207.523	-89.79
207.741	-70.4
207.959	-137.25
208.177	-111.24
208.395	-3515.38
208.612	318.4
208.83	526.76
209.048	315.52
209.266	260.32
209.483	352.46
209.701	-320.59
209.919	175.17
210.136	71.72
210.354	141.77
210.572	197.14
210.79	93.86
211.007	-202.44
211.225	332.97
211.442	175.78
211.66	103.58
211.878	137.32
212.095	518.92
212.313	1598.63
212.53	782.05
212.748	926.47
212.966	1124.53
213.183	-939.37
213.401	3137.84
213.618	-833.82
213.836	-314.74
214.053	-235.75
214.271	-290.14
214.488	-100
214.705	-180
214.923	-150
215.14	-43.02
215.358	-7.1
215.575	-10.71
215.793	-21.62
216.01	-19.25
216.227	-4.34
216.445	-75.54
216.662	-196.06
216.879	-467.74
217.097	-434.71
217.314	-377.01
217.531	1314
217.749	903.7
217.966	293.61
218.183	487.89
218.4	1157.75
218.618	-30100
218.835	-855.7
219.052	-1233.33
219.269	-1149.18
219.487	-307.69
219.704	-758.25
219.921	-621.43
220.138	987.95
220.355	-9837.5
220.572	-9783.33
220.79	-698.8
221.007	885.07
221.224	474.45
221.441	784
221.658	502.9
221.875	132.14
222.092	177.85
222.309	170.69
222.526	3111.11
222.743	721.21
222.96	-108.7
223.177	168.75
223.394	146.15
223.611	-45.35
223.828	-160.67
224.045	-298.95
224.262	-331.25
224.479	549.06
224.696	-1242.11
224.913	120.06
225.13	83.44
225.347	91.23
225.564	117.5
225.781	119.82
225.997	86.09
226.214	62
226.431	36.26
226.648	23.96
226.865	19.96
227.082	8.89
227.298	6.58
227.515	7.74
227.732	-5.68
227.949	-1.26
228.165	5.53
228.382	4.04
228.599	3.45
228.816	10.4
229.032	16.6
229.249	19.42
229.466	31.14
229.682	27.93
229.899	23.37
230.116	29.1
230.332	6.94
230.549	-21.33
230.765	-3.41
230.982	10.21
231.199	-9.65
231.415	-14.86
231.632	-21.95
231.848	-20.83
232.065	-15.12
232.281	-10.71
232.498	4.11
232.714	30.84
232.931	42.47
233.147	23.07
233.364	16.82
233.58	15.49
233.797	25.7
234.013	21.58
234.23	21.95
234.446	26.43
234.662	47.43
234.879	43.68
235.095	60.93
235.312	59.42
235.528	63.09
235.744	72.62
235.961	82.01
236.177	89.57
236.393	83.06
236.61	95.42
236.826	87.65
237.042	88.84
237.258	85.7
237.475	68.56
237.691	73.22
237.907	85.79
238.123	84.7
238.339	70.07
238.556	64.22
238.772	55.59
238.988	45.65
239.204	35.63
239.42	34.1
239.636	22.52
239.853	21.45
240.069	17.61
240.285	19.07
240.501	12.95
240.717	11.91
240.933	4.66
241.149	3.5
241.365	1.74
241.581	4.81
241.797	-0.8
242.013	1.81
242.229	5.38
242.445	9.62
242.661	11.07
242.877	18.43
243.093	16.7
243.309	18.68
243.525	24.45
243.741	28.93
243.957	28.05
244.173	28.74
244.388	26.57
244.604	16.59
244.82	9.43
245.036	6.03
245.252	3.24
245.468	2.5
245.683	3.65
245.899	3.74
246.115	3.97
246.331	4.75
246.547	5.88
246.762	6.72
246.978	9.35
247.194	12.41
247.409	14.11
247.625	18.54
247.841	19.34
248.057	20.43
248.272	23.24
248.488	23.37
248.703	22.44
248.919	16.87
249.135	12.76
249.35	11.83
249.566	9.47
249.782	5.45
249.997	3.06
250.213	8.44
250.428	8.47
250.644	9.4
250.859	10.98
251.075	10.64
251.29	13.99
251.506	12.3
251.721	14.46
251.937	11.75
252.152	15.96
252.368	13.98
252.583	8.67
252.798	10.39
253.014	18.24
253.229	19.88
253.445	25.89
253.66	28.45
253.875	37.06
254.091	38.01
254.306	36.69
254.521	26.93
254.737	28.84
254.952	33.88
255.167	26.81
255.383	2.69
255.598	-3.56
255.813	-9.54
256.028	-3.77
256.244	-5.39
256.459	-2.03
256.674	2.38
256.889	4.43
257.104	0.47
257.32	1.58
257.535	1.05
257.75	7.16
257.965	8.23
258.18	9.35
258.395	8.02
258.61	9.71
258.826	8.76
259.041	9.5
259.256	9.15
259.471	11.92
259.686	10.67
259.901	13.81
260.116	12.01
260.331	12.49
260.546	11.32
260.761	13.73
260.976	12.4
261.191	11.36
261.406	14.12
261.621	15.2
261.836	11.8
262.05	15.31
262.265	15.27
262.48	19.58
262.695	17.09
262.91	19.66
263.125	20.81
263.34	21.17
263.555	28.25
263.769	21.53
263.984	19.7
264.199	17.9
264.414	13.18
264.629	9.43
264.843	8.34
265.058	13.75
265.273	12.07
265.488	10.64
265.702	6.59
265.917	3.67
266.132	9.73
266.346	9.37
266.561	13.53
266.776	14.79
266.99	14.45
267.205	12.04
267.42	6.95
267.634	4.7
267.849	1.11
268.063	6.29
268.278	5.36
268.492	0.53
268.707	-0.16
268.922	1.13
269.136	2.5
269.351	1.9
269.565	3.27
269.78	6.44
269.994	8.44
270.209	12.66
270.423	10.46
270.637	10.5
270.852	9.54
271.066	11.52
271.281	10.67
271.495	12.49
271.709	13.26
271.924	15.42
272.138	14.96
272.353	12.02
272.567	9.47
272.781	12.15
272.996	14.84
273.21	15.07
273.424	17.53
273.638	16.99
273.853	12.87
274.067	15.96
274.281	17.71
274.495	17.2
274.71	19.93
274.924	24.84
275.138	23.24
275.352	19.91
275.566	21.12
275.781	18.8
275.995	18.18
276.209	20.32
276.423	17.31
276.637	16.55
276.851	18.19
277.065	20.8
277.279	15.29
277.493	13.96
277.707	12.77
277.921	9.2
278.135	8.59
278.349	12.52
278.563	9.93
278.777	12.97
278.991	12.87
279.205	11.46
279.419	8.77
279.633	10.78
279.847	13.09
280.061	15.4
280.275	18.2
280.489	15.39
280.703	14.01
280.917	14.24
281.131	15.2
281.344	11.96
281.558	10.97
281.772	10.14
281.986	9.95
282.2	8.42
282.414	6.94
282.627	5.84
282.841	7.31
283.055	8.36
283.269	8.85
283.482	6
283.696	5.06
283.91	5.18
284.123	7.03
284.337	6.2
284.551	5.65
284.764	4.96
284.978	3.74
285.192	5.76
285.405	0.93
285.619	3.03
285.833	3.18
286.046	5.37
286.26	6.31
286.473	4.37
286.687	3.01
286.9	2.24
287.114	3.84
287.327	4.32
287.541	4.71
287.754	6.78
287.968	4.3
288.181	4.99
288.395	5.6
288.608	7.69
288.822	10.18
289.035	15.59
289.248	15.16
289.462	15.72
289.675	16.43
289.889	15.03
290.102	13.32
290.315	14.46
290.529	15.92
290.742	13.83
290.955	10.28
291.169	7.48
291.382	3.38
291.595	7.43
291.808	8.1
292.022	6.98
292.235	6.24
292.448	5.55
292.661	5.63
292.875	3.96
293.088	7.35
293.301	7.11
293.514	9.63
293.727	10.6
293.94	11.1
294.153	7.6
294.367	9.59
294.58	8.43
294.793	9.02
295.006	9.33
295.219	8.07
295.432	6.2
295.645	7.17
295.858	6.38
296.071	8.17
296.284	7.53
296.497	7.65
296.71	6.69
296.923	8.07
297.136	7.65
297.349	7.66
297.562	5.65
297.775	5.7
297.988	7.03
298.201	6.95
298.414	2.93
298.626	-0.46
298.839	1.91
299.052	2.12
299.265	1.52
299.478	4.09
299.691	1.84
299.903	5.6
300.116	7.33
300.329	6.52
300.542	6.64
300.755	5.25
300.967	7.62
301.18	7.06
301.393	7.73
301.605	9.09
301.818	10.65
302.031	8.7
302.243	11.04
302.456	10.87
302.669	9.89
302.881	9.79
303.094	14.39
303.307	15.4
303.519	16.52
303.732	15.17
303.944	14.45
304.157	13.21
304.37	15.81
304.582	16.8
304.795	14.78
305.007	15.48
305.22	14.51
305.432	9.46
305.645	9.85
305.857	7.07
306.069	8.89
306.282	10.42
306.494	10.71
306.707	8.15
306.919	5.16
307.132	5.85
307.344	10.99
307.556	12.68
307.769	12.94
307.981	11.32
308.193	12.62
308.406	11.59
308.618	11.9
308.83	9.37
309.043	12.07
309.255	14.13
309.467	17.24
309.679	10.4
309.892	11.29
310.104	10.69
310.316	10.42
310.528	9.16
310.74	10.87
310.953	10.38
311.165	12.31
311.377	10.18
311.589	9.84
311.801	7.65
312.013	11.79
312.225	9.35
312.437	12.18
312.649	12.97
312.862	15.83
313.074	16.33
313.286	15.83
313.498	17.8
313.71	22.54
313.922	19.1
314.134	16.1
314.346	14.86
314.558	12.95
314.77	12.94
314.982	12.24
315.193	12.68
315.405	9.48
315.617	8.63
315.829	8.1
316.041	5.55
316.253	9.52
316.465	10.69
316.677	12.03
316.888	15.75
317.1	12.98
317.312	16.05
317.524	13.41
317.736	17.01
317.947	16.37
318.159	17.32
318.371	17.24
318.583	15.6
318.794	17.25
319.006	12.11
319.218	11.98
319.43	13.96
319.641	8.5
319.853	8.24
320.064	5.32
320.276	3.59
320.488	-1.22
320.699	-1
320.911	-1.51
321.123	-0.54
321.334	4.65
321.546	5.87
321.757	4.91
321.969	7.82
322.18	6.47
322.392	7.18
322.603	9.82
322.815	10.6
323.026	10.45
323.238	9.47
323.449	9.62
323.661	9.17
323.872	8.54
324.083	11.05
324.295	10.98
324.506	15.05
324.718	13.45
324.929	11.62
325.14	14.48
325.352	15.76
325.563	15.1
325.774	12.3
325.986	12.72
326.197	11.72
326.408	9.95
326.62	10.36
326.831	10.12
327.042	13.52
327.253	13.16
327.464	12.81
327.676	13.77
327.887	16.47
328.098	16.42
328.309	15.13
328.52	16.44
328.732	15.3
328.943	16.2
329.154	13.33
329.365	9.98
329.576	10.71
329.787	10.25
329.998	8.86
330.209	10.46
330.42	10.82
330.631	10.1
330.842	10.91
331.053	11.42
331.264	9.21
331.475	9.57
331.686	14.96
331.897	17.46
332.108	17.01
332.319	15.06
332.53	14.59
332.741	15.28
332.952	16.12
333.163	17.4
333.374	18.8
333.585	20.2
333.795	20.17
334.006	16.05
334.217	14.52
334.428	16.55
334.639	17.5
334.849	18.1
335.06	20.49
335.271	20.05
335.482	17.11
335.692	15.79
335.903	15.65
336.114	15.39
336.325	17.58
336.535	19.65
336.746	18.47
336.957	19.71
337.167	17.99
337.378	16.96
337.589	17.49
337.799	21.23
338.01	21.89
338.22	20.56
338.431	19.68
338.642	17.93
338.852	18.2
339.063	19.8
339.273	18.73
339.484	20.54
339.694	22.83
339.905	25.52
340.115	24.22
340.326	22.2
340.536	25.53
340.746	26.87
340.957	29
341.167	29.47
341.378	28.75
341.588	30.55
341.799	28.07
342.009	27.05
342.219	25.98
342.43	24.84
342.64	25.97
342.85	23.87
343.061	20.89
343.271	21.31
343.481	20.51
343.691	19.49
343.902	17.39
344.112	19.54
344.322	20
344.532	18.41
344.743	17.1
344.953	16.86
345.163	15.31
345.373	17.57
345.583	16.11
345.793	14.49
346.004	13.67
346.214	15.11
346.424	10.55
346.634	8.06
346.844	10.29
347.054	12.59
347.264	14.73
347.474	19.64
347.684	20.9
347.894	19.03
348.104	20.72
348.314	18.77
348.524	17.85
348.734	19.59
348.944	20.62
349.154	21.12
349.364	17.89
349.574	18.22
349.784	17.3
349.994	16.15
350.204	14.58
350.413	13.34
350.623	14.97
350.833	13.45
351.043	15.06
351.253	16.61
351.463	14.48
351.672	17.22
351.882	16.39
352.092	13.8
352.302	13.11
352.511	16.78
352.721	15.88
352.931	14.32
353.141	15.99
353.35	13.89
353.56	11.76
353.77	11.56
353.979	12.08
354.189	9.8
354.399	10.63
354.608	11.99
354.818	11.83
355.027	12.5
355.237	14.52
355.447	15.1
355.656	17.54
355.866	18.35
356.075	18.78
356.285	19.15
356.494	21.41
356.704	22.31
356.913	20.87
357.123	19.98
357.332	20.14
357.542	20.96
357.751	21.2
357.96	20.07
358.17	17.27
358.379	16.37
358.589	14.33
358.798	13.18
359.007	13.14
359.217	13.37
359.426	13.56
359.635	15.18
359.845	13.61
360.054	13.47
360.263	13.27
360.472	15.59
360.682	17.05
360.891	17.23
361.1	18.74
361.309	18.7
361.519	18.66
361.728	18.55
361.937	17.59
362.146	18.04
362.355	16.63
362.564	17.29
362.774	16.93
362.983	17.65
363.192	18.18
363.401	15.79
363.61	14.55
363.819	14.51
364.028	14.92
364.237	14.39
364.446	13.94
364.655	14.95
364.864	14.94
365.073	13.78
365.282	11.72
365.491	9.97
365.7	10.93
365.909	12.22
366.118	13.57
366.327	12.66
366.536	11.66
366.745	11.53
366.954	11.99
367.162	11.55
367.371	12.44
367.58	13.55
367.789	14.84
367.998	14.16
368.207	13.27
368.415	12.97
368.624	12.84
368.833	14.59
369.042	15.63
369.25	16.46
369.459	15.34
369.668	16.74
369.877	15.77
370.085	16.22
370.294	15.46
370.503	14.79
370.711	15.07
370.92	14.78
371.129	14.79
371.337	14.68
371.546	12.29
371.754	13.52
371.963	12.94
372.171	13.4
372.38	13.04
372.589	13.02
372.797	14.57
373.006	15.06
373.214	17.02
373.423	16.76
373.631	17.14
373.84	17.34
374.048	16.7
374.256	17.29
374.465	17.09
374.673	17.84
374.882	18.5
375.09	17.45
375.298	16.16
375.507	16.62
375.715	17.19
375.923	16.33
376.132	16.6
376.34	16.86
376.548	15.4
376.757	16.26
376.965	14.67
377.173	13.8
377.381	12.78
377.59	13.57
377.798	12.48
378.006	10.44
378.214	10.25
378.423	12.16
378.631	10.62
378.839	9.59
379.047	8.64
379.255	9.8
379.463	11.3
379.671	11.74
379.879	10.07
380.088	10.83
380.296	11.92
380.504	13.08
380.712	12.51
380.92	13.73
381.128	14.26
381.336	15.24
381.544	15.66
381.752	16.35
381.96	18.12
382.168	18.66
382.376	17.56
382.584	17.23
382.791	16.32
382.999	14.36
383.207	14.04
383.415	13.29
383.623	11.42
383.831	10.73
384.039	10.99
384.247	9.7
384.454	10.24
384.662	9.42
384.87	9.9
385.078	10.14
385.285	10.78
385.493	11.69
385.701	13.34
385.909	12.98
386.116	12.29
386.324	10.21
386.532	8.88
386.739	8.82
386.947	9.31
387.155	9.31
387.362	9.72
387.57	10.38
387.778	10.3
387.985	10.15
388.193	11.37
388.4	12.35
388.608	13.15
388.816	14.63
389.023	13.93
389.231	14.11
389.438	14.14
389.646	13.76
389.853	13.67
390.061	13.14
390.268	13.4
390.475	12.92
390.683	12.74
390.89	11.98
391.098	11.73
391.305	12.2
391.512	11.8
391.72	12.36
391.927	11.81
392.135	11.23
392.342	10.36
392.549	10.36
392.756	10.38
392.964	10.58
393.171	11.05
393.378	9.77
393.586	8.97
393.793	10.5
394	9.94
394.207	10.38
394.414	10.03
394.622	11.14
394.829	11.59
395.036	12.31
395.243	12.36
395.45	12.16
395.657	13.11
395.864	13.19
396.072	11.77
396.279	11.23
396.486	12.29
396.693	14
396.9	13.46
397.107	12.29
397.314	11.79
397.521	12.7
397.728	13.63
397.935	14.46
398.142	14.66
398.349	14.6
398.556	15.13
398.763	14.36
398.97	13.67
399.177	13.5
399.383	13.24
399.59	12.13
399.797	10.89
400.004	10.33
400.211	9.46
400.418	10.4
400.625	12.18
400.831	12.53
401.038	12.93
401.245	12.43
401.452	12.43
401.658	12.48
401.865	15.06
402.072	15.57
402.279	15.12
402.485	15.71
402.692	15.36
402.899	13.36
403.105	11.96
403.312	11.22
403.519	12.21
403.725	12.07
403.932	12.52
404.138	11.42
404.345	10.84
404.552	11.08
404.758	11
404.965	11.6
405.171	12.45
405.378	12.76
405.584	13.06
405.791	11.85
405.997	13.22
406.204	12.97
406.41	13
406.617	12.41
406.823	13.04
407.029	12.3
407.236	12.12
407.442	11.43
407.649	12.14
407.855	11.37
408.061	12.24
408.268	11.13
408.474	11.28
408.68	11.52
408.887	11.61
409.093	11.08
409.299	12.59
409.505	12.89
409.712	13.8
409.918	13.51
410.124	13.92
410.33	13.09
410.537	13.15
410.743	14.13
410.949	13.96
411.155	14.87
411.361	14.27
411.567	13.49
411.773	12.29
411.98	11.11
412.186	11.49
412.392	12.12
412.598	12.66
412.804	13.89
413.01	13.06
413.216	13.02
413.422	13.09
413.628	13.61
413.834	14.53
414.04	15.23
414.246	15.51
414.452	15.45
414.658	14.93
414.864	14.78
415.07	13.98
415.275	13.81
415.481	13.83
415.687	12.65
415.893	12.55
416.099	12.07
416.305	11.83
416.511	11.28
416.716	11.4
416.922	11.47
417.128	11.14
417.334	10.88
417.539	10.57
417.745	10.33
417.951	11.49
418.157	11.34
418.362	11.05
418.568	10.97
418.774	11.26
418.979	10.99
419.185	10.34
419.391	10.42
419.596	10.36
419.802	10.7
420.008	10.91
420.213	6.78
420.419	7.24
420.624	7.41
420.83	7
421.035	7.56
421.241	7.4
421.446	7.68
421.652	8.22
421.857	8.25
422.063	7.81
422.268	7.77
422.474	11.52
422.679	11.19
422.885	10.43
423.09	10.63
423.295	10.73
423.501	10.83
423.706	11.51
423.911	11.18
424.117	11.48
424.322	11.9
424.527	12.23
424.733	12.29
424.938	12.39
425.143	13.38
425.349	13.35
425.554	12.51
425.759	12.2
425.964	11.44
426.169	11.91
426.375	11.63
426.58	12.09
426.785	11.3
426.99	10.63
427.195	10.55
427.4	9.38
427.605	9.78
427.811	10.17
428.016	10.27
428.221	10.45
428.426	9.7
428.631	10.39
428.836	9.19
429.041	9.59
429.246	10.62
429.451	10.59
429.656	10.97
429.861	10.95
430.066	11.25
430.271	11.52
430.476	11.42
430.681	11.76
430.886	11.34
431.09	11.62
431.295	11.78
431.5	11.1
431.705	11.38
431.91	11.09
432.115	10.14
432.32	10.09
432.524	9.91
432.729	9.82
432.934	9.86
433.139	9.78
433.343	9.68
433.548	9.18
433.753	9.54
433.958	9.49
434.162	10.36
434.367	11.34
434.572	11.18
434.776	11.23
434.981	11
435.186	11.05
435.39	11.24
435.595	11.64
435.799	12.25
436.004	12.16
436.209	12.25
436.413	12.38
436.618	11.89
436.822	12.49
437.027	12.65
437.231	13.02
437.436	12.18
437.64	12.18
437.845	11.6
438.049	10.81
438.253	10.7
438.458	10.77
438.662	10.06
438.867	9.99
439.071	9.09
439.275	8.89
439.48	9.09
439.684	9.24
439.888	9.12
440.093	9.58
440.297	9.84
440.501	10.3
440.706	9.79
440.91	9.67
441.114	10.23
441.318	10.58
441.523	10.91
441.727	10.51
441.931	9.97
442.135	9.92
442.339	9.57
442.543	9.56
442.748	9.09
442.952	9.89
443.156	10.08
443.36	10.2
443.564	10.05
443.768	10.1
443.972	10.21
444.176	10.88
444.38	10.65
444.584	10.71
444.788	10.19
444.992	10.77
445.196	10.57
445.4	10.95
445.604	10.43
445.808	10.14
446.012	9.92
446.216	10.19
446.42	10.4
446.624	10.65
446.828	10.48
447.032	11.42
447.235	10.56
447.439	10.18
447.643	9.87
447.847	10.5
448.051	10.68
448.254	10.93
448.458	11.09
448.662	10.92
448.866	11.22
449.069	11.57
449.273	10.87
449.477	11.65
449.681	12.07
449.884	12.25
450.088	11.37
450.292	12.04
450.495	12.03
450.699	11.06
450.902	10.93
451.106	10.39
451.31	10.78
451.513	12.05
451.717	11.73
451.92	11.36
452.124	11.42
452.327	11.6
452.531	11.13
452.734	10.84
452.938	11.77
453.141	11.75
453.345	11.92
453.548	11.2
453.752	9.88
453.955	9.95
454.158	10.23
454.362	9.97
454.565	10.76
454.769	11.95
454.972	12.2
455.175	11.53
455.379	12.05
455.582	12.42
455.785	12.84
455.988	12.8
456.192	12.53
456.395	12.51
456.598	12.66
456.801	12.4
457.005	11.77
457.208	11.42
457.411	11.46
457.614	11.14
457.817	11.01
458.021	11.44
458.224	11.47
458.427	11.63
458.63	11.33
458.833	10.99
459.036	11.2
459.239	10.9
459.442	11.18
459.645	11.41
459.848	11.41
460.051	11.35
460.254	10.71
460.457	10.72
460.66	10.78
460.863	10.88
461.066	11.33
461.269	11.03
461.472	11.09
461.675	10.75
461.878	10.64
462.081	11.16
462.284	11.02
462.486	11.01
462.689	11.74
462.892	11.61
463.095	10.94
463.298	10.64
463.5	10.77
463.703	11.49
463.906	12.55
464.109	12.31
464.311	11.26
464.514	11.83
464.717	12.08
464.92	11.72
465.122	11.53
465.325	12.49
465.528	11.91
465.73	12.04
465.933	11.47
466.135	10.66
466.338	10.52
466.541	10.79
466.743	10.13
466.946	9.66
467.148	9.26
467.351	9.71
467.553	8.66
467.756	8.85
467.958	8.49
468.161	8.46
468.363	7.67
468.566	7.86
468.768	8.04
468.971	7.98
469.173	8.17
469.375	8.55
469.578	7.81
469.78	8.63
469.983	9.86
470.185	9.14
470.387	9.26
470.59	10.33
470.792	10.28
470.994	9.98
471.196	10.45
471.399	11.08
471.601	10.67
471.803	11.62
472.005	11.84
472.208	11.37
472.41	11.5
472.612	11.32
472.814	11.3
473.016	12.05
473.218	12.44
473.421	11.23
473.623	10.57
473.825	10.66
474.027	9.64
474.229	9.15
474.431	8.82
474.633	9.6
474.835	9.44
475.037	9.73
475.239	9.27
475.441	8.63
475.643	9.63
475.845	10.25
476.047	10.28
476.249	10.72
476.451	11.68
476.653	12.09
476.855	11.38
477.057	11.63
477.258	10.92
477.46	11.4
477.662	12.54
477.864	12.67
478.066	12.29
478.268	12.67
478.469	12.89
478.671	12.31
478.873	12.18
479.075	12.6
479.276	12.75
479.478	13.27
479.68	12.77
479.882	12.04
480.083	12.18
480.285	12.06
480.487	11.56
480.688	11.55
480.89	11.39
481.091	11.42
481.293	11.38
481.495	11.17
481.696	10.83
481.898	10.67
482.099	10.53
482.301	10.22
482.502	10.34
482.704	10.48
482.905	10.46
483.107	10.56
483.308	10.65
483.51	10.69
483.711	10.74
483.913	10.8
484.114	10.89
484.315	11.1
484.517	11.3
484.718	11.36
484.92	11.32
485.121	11.2
485.322	11.17
485.524	10.99
485.725	10.68
485.926	10.73
486.127	10.53
486.329	10.68
486.53	10.64
486.731	10.75
486.932	10.69
487.134	10.79
487.335	10.81
487.536	11.05
487.737	10.98
487.938	11.1
488.139	11.07
488.341	11.29
488.542	11.37
488.743	11.38
488.944	11.42
489.145	11.42
489.346	11.18
489.547	11.28
489.748	11.05
489.949	11.36
490.15	11.41
490.351	11.49
490.552	11.54
490.753	11.55
490.954	11.42
491.155	11.22
491.356	11.06
491.557	11.48
491.758	11.63
491.959	11.59
492.159	11.06
492.36	11.17
492.561	10.9
492.762	11.05
492.963	10.63
493.164	11.28
493.364	11.29
493.565	11.51
493.766	11.06
493.967	10.66
494.167	10.62
494.368	11.38
494.569	11.57
494.769	11.68
494.97	11.48
495.171	11.54
495.371	11.66
495.572	11.18
495.773	11.56
495.973	11.6
496.174	11.84
496.375	11.97
496.575	11.61
496.776	11.15
496.976	11.35
497.177	11.15
497.377	11.77
497.578	11.7
497.778	11.98
497.979	11.9
498.179	11.62
498.38	11.42
498.58	11.46
498.78	11.08
498.981	11.34
499.181	11.14
499.382	11.64
499.582	11.53
499.782	10.83
499.983	11.41
500.183	11.16
500.383	11.21
500.584	11.06
500.784	10.64
500.984	11.39
501.184	11.54
501.385	11.3
501.585	11.74
501.785	11.11
501.985	11.41
502.185	11.71
502.386	11.61
502.586	11.76
502.786	12.29
502.986	12.31
503.186	12.03
503.386	11.22
503.586	11.29
503.786	10.55
503.987	10.66
504.187	10.51
504.387	10.13
504.587	10.68
504.787	10.59
504.987	10.4
505.187	10.91
505.387	11.3
505.587	12.42
505.786	12.41
505.986	12.36
506.186	12.7
506.386	12.64
506.586	12.87
506.786	12.81
506.986	12.66
507.186	12.26
507.386	12.25
507.585	11.66
507.785	11.51
507.985	11.98
508.185	11.82
508.384	11.34
508.584	11.58
508.784	11.6
508.984	11.03
509.183	11.59
509.383	12
509.583	11.79
509.782	12.26
509.982	11.89
510.182	11.59
510.381	11.77
510.581	12.58
510.781	12.49
510.98	12.13
511.18	12.44
511.379	12.24
511.579	12.1
511.778	12.21
511.978	12.6
512.177	12.87
512.377	13.22
512.576	13.76
512.776	13.08
512.975	13.35
513.175	13.6
513.374	14.08
513.573	14.22
513.773	14.44
513.972	14.47
514.172	13.89
514.371	13.93
514.57	13.48
514.77	13.19
514.969	13.69
515.168	13.57
515.367	13.88
515.567	13.54
515.766	13.47
515.965	13.27
516.164	13.32
516.364	13.32
516.563	13.7
516.762	13.81
516.961	14
517.16	13.89
517.359	14.21
517.559	14.33
517.758	14.46
517.957	14.61
518.156	14.95
518.355	15.17
518.554	15.54
518.753	15.36
518.952	15.64
519.151	15.59
519.35	15.44
519.549	15.11
519.748	14.72
519.947	14.49
520.146	14.72
520.345	14.64
520.544	14.68
520.743	14.61
520.942	14.71
521.141	15.01
521.339	14.89
521.538	15.11
521.737	15.17
521.936	15.14
522.135	15.02
522.333	15.29
522.532	15.07
522.731	14.8
522.93	14.3
523.129	14.41
523.327	14.39
523.526	15.02
523.725	14.82
523.923	14.98
524.122	15.35
524.321	15.66
524.519	15.47
524.718	15.61
524.917	15.77
525.115	16.18
525.314	16.13
525.512	16.12
525.711	15.99
525.909	16.34
526.108	16.31
526.306	16.29
526.505	16.52
526.703	16.56
526.902	16.62
527.1	16.73
527.299	16.86
527.497	16.96
527.696	16.82
527.894	16.85
528.092	16.89
528.291	16.74
528.489	16.84
528.688	16.8
528.886	16.93
529.084	16.94
529.283	16.71
529.481	16.73
529.679	16.91
529.877	17.04
530.076	17.04
530.274	16.92
530.472	17.63
530.67	17.57
530.869	17.7
531.067	17.5
531.265	17.57
531.463	17.97
531.661	17.92
531.859	17.83
532.057	18.1
532.255	18.18
532.454	18.22
532.652	18.09
532.85	18.08
533.048	18
533.246	18.13
533.444	18.47
533.642	18.5
533.84	18.81
534.038	18.93
534.236	18.75
534.434	18.87
534.632	19.09
534.83	19.16
535.027	19.4
535.225	19.6
535.423	19.88
535.621	19.75
535.819	19.63
536.017	19.28
536.215	18.69
536.412	18.99
536.61	18.71
536.808	18.6
537.006	18.33
537.203	17.9
537.401	17.91
537.599	18.15
537.797	18.15
537.994	18.33
538.192	18.6
538.39	19.15
538.587	18.84
538.785	18.7
538.983	18.95
539.18	19.23
539.378	19.56
539.575	19.56
539.773	19.43
539.97	19.69
540.168	19.51
540.366	19.61
540.563	19.49
540.761	19.58
540.958	19.84
541.155	19.91
541.353	19.92
541.55	20.01
541.748	19.9
541.945	19.73
542.143	19.69
542.34	20.16
542.537	20.29
542.735	20.88
542.932	20.69
543.129	20.67
543.327	20.6
543.524	20.84
543.721	20.95
543.919	20.92
544.116	21.07
544.313	20.86
544.51	20.83
544.708	20.61
544.905	20.35
545.102	21.2
545.299	21.47
545.496	21.61
545.693	21.58
545.891	21.65
546.088	21.91
546.285	22.06
546.482	22.26
546.679	22.49
546.876	23.01
547.073	23.65
547.27	22.94
547.467	23.3
547.664	23.63
547.861	23.04
548.058	23.06
548.255	23.28
548.452	23.34
548.649	23.52
548.846	23.18
549.043	23.21
549.24	23.05
549.437	23.36
549.633	23.24
549.83	23.04
550.027	23.98
550.224	24.03
550.421	23.9
550.618	23.75
550.814	23.23
551.011	22.61
551.208	22.53
551.405	22.2
551.601	22.91
551.798	22.62
551.995	22.78
552.191	22.71
552.388	22.31
552.585	22.78
552.781	22.89
552.978	23.31
553.175	23.7
553.371	23.05
553.568	23.05
553.764	22.36
553.961	22.39
554.157	22.29
554.354	22.34
554.55	22.78
554.747	22.49
554.943	22.51
555.14	22.57
555.336	22.83
555.533	23.55
555.729	24.38
555.926	25.47
556.122	25.89
556.318	25.98
556.515	26.52
556.711	26.46
556.907	26.7
557.104	26.99
557.3	27.57
557.496	27.58
557.693	27.01
557.889	25.81
558.085	24.34
558.281	24.72
558.478	24.32
558.674	24.23
558.87	24.9
559.066	24.96
559.262	25
559.459	24.48
559.655	24.74
559.851	25.63
560.047	26.25
560.243	27.51
560.439	27.42
560.635	27.61
560.831	27.12
561.027	27.2
561.223	26.98
561.419	27.14
561.615	27.56
561.811	27.37
562.007	27.38
562.203	27.31
562.399	27.1
562.595	26.45
562.791	27.09
562.987	27.46
563.183	27.49
563.379	27.38
563.575	27.1
563.771	26.45
563.966	26.77
564.162	26.46
564.358	27.02
564.554	26.74
564.75	26.79
564.945	26.19
565.141	25.92
565.337	25.81
565.533	25.6
565.728	25.51
565.924	25.92
566.12	25.79
566.315	26.18
566.511	25.66
566.707	26.11
566.902	26.18
567.098	26.65
567.293	26.67
567.489	26.11
567.684	26.81
567.88	27.23
568.076	27.32
568.271	27.11
568.467	26.88
568.662	27.18
568.858	26.64
569.053	26.79
569.248	27.21
569.444	26.98
569.639	27.59
569.835	26.62
570.03	26.64
570.225	26.39
570.421	26.93
570.616	27.2
570.812	27.26
571.007	27.66
571.202	27.47
571.397	27.03
571.593	27.65
571.788	27.27
571.983	28.16
572.178	28.1
572.374	28.14
572.569	28.07
572.764	27.57
572.959	27
573.154	27.19
573.35	27.79
573.545	27.89
573.74	27.26
573.935	27.51
574.13	27.07
574.325	27.03
574.52	27.11
574.715	26.92
574.91	27.45
575.105	27.79
575.3	27.99
575.495	28.04
575.69	28.19
575.885	28.36
576.08	28.52
576.275	28.7
576.47	29.02
576.665	29.7
576.86	30.47
577.055	30.5
577.25	30.71
577.444	30.83
577.639	31.08
577.834	31.09
578.029	32.08
578.224	32.21
578.418	32.96
578.613	32.74
578.808	32.89
579.003	32.03
579.197	31.73
579.392	32.11
579.587	31.25
579.781	30.73
579.976	30.7
580.171	30.09
580.365	29.77
580.56	28.94
580.755	29.07
580.949	28.72
581.144	28.95
581.338	28.89
581.533	28.6
581.727	28.64
581.922	28.38
582.116	27.59
582.311	27.95
582.505	27.55
582.7	28.12
582.894	27.97
583.089	27.88
583.283	28.36
583.478	28.58
583.672	27.96
583.866	27.66
584.061	28.65
584.255	29.18
584.449	29.68
584.644	30.51
584.838	30.21
585.032	30.39
585.226	29.57
585.421	30.09
585.615	29.59
585.809	30.42
586.003	30.63
586.198	29.4
586.392	29.23
586.586	28.25
586.78	27.9
586.974	27.9
587.168	28.36
587.363	29.56
587.557	28.33
587.751	28.42
587.945	27.42
588.139	27.92
588.333	28.65
588.527	28.71
588.721	28.6
588.915	28.91
589.109	28.41
589.303	28.41
589.497	28.12
589.691	29.01
589.885	29.36
590.079	30.27
590.273	30.18
590.466	29.96
590.66	30.19
590.854	30.63
591.048	29.92
591.242	31
591.436	30.77
591.629	30.87
591.823	30.27
592.017	31.08
592.211	31.08
592.404	31.64
592.598	31.67
592.792	31.82
592.986	32.28
593.179	32.96
593.373	32.04
593.567	31.9
593.76	31.92
593.954	32.33
594.147	31.67
594.341	31.56
594.535	31.39
594.728	31.25
594.922	30.68
595.115	30.6
595.309	30.83
595.502	31.58
595.696	31.13
595.889	31.06
596.083	30.71
596.276	30.66
596.47	30.88
596.663	30.13
596.856	30.49
597.05	30.99
597.243	31.32
597.437	30.53
597.63	30.96
597.823	31.51
598.017	31.04
598.21	31.37
598.403	30.94
598.596	31.17
598.79	31.45
598.983	31.92
599.176	32.19
599.369	31.24
599.563	31.64
599.756	31.03
599.949	31.23
600.142	31.51
600.335	31.9
600.528	31.62
600.722	31.97
600.915	31.8
601.108	31.24
601.301	31.28
601.494	31.68
601.687	31.32
601.88	31.53
602.073	31.58
602.266	32.2
602.459	31.82
602.652	32.46
602.845	31.81
603.038	32.01
603.231	32.18
603.424	32.5
603.617	32.23
603.809	32.28
604.002	31.82
604.195	31.49
604.388	31.32
604.581	31.44
604.774	31.71
604.966	31.85
605.159	31.97
605.352	31.83
605.545	31.74
605.737	31.45
605.93	31.81
606.123	31.83
606.316	31.86
606.508	30.86
606.701	31.02
606.894	31.4
607.086	31.33
607.279	31.33
607.471	31.72
607.664	31.58
607.857	32.32
608.049	32.26
608.242	32.61
608.434	32.43
608.627	32.9
608.819	32.76
609.012	32.53
609.204	32.5
609.397	33.06
609.589	32.24
609.782	32.69
609.974	31.81
610.166	32.26
610.359	31.92
610.551	33.27
610.743	33.42
610.936	33.95
611.128	33.3
611.32	34.34
611.513	34.36
611.705	35.39
611.897	34.53
612.09	35.5
612.282	34.95
612.474	35.78
612.666	34.41
612.858	35.04
613.051	35.03
613.243	36.08
613.435	34.71
613.627	32.92
613.819	32.08
614.011	32.79
614.203	33.5
614.395	34.1
614.588	33.66
614.78	33.67
614.972	33.78
615.164	33.33
615.356	32.89
615.548	32.97
615.74	34.74
615.932	35.62
616.124	35.03
616.315	34.02
616.507	33.56
616.699	32.81
616.891	32.98
617.083	32.48
617.275	31.5
617.467	31.4
617.659	32.15
617.85	33.16
618.042	33.26
618.234	33.17
618.426	33.04
618.618	33.55
618.809	34.28
619.001	34.68
619.193	34.7
619.384	35.07
619.576	35.87
619.768	35.18
619.959	34.34
620.151	33.31
620.343	33.8
620.534	34.03
620.726	34.1
620.917	33.7
621.109	33.73
621.301	33.16
621.492	34.21
621.684	33.58
621.875	34.2
622.067	33.94
622.258	34.5
622.45	35.13
622.641	35.04
622.832	33.83
623.024	33.8
623.215	34.31
623.407	34.78
623.598	34.16
623.789	34.25
623.981	33.29
624.172	33.1
624.363	33.41
624.555	32.82
624.746	33.72
624.937	34.21
625.129	34.14
625.32	33.37
625.511	33.94
625.702	33.93
625.893	33.91
626.085	34.71
626.276	34.29
626.467	33.64
626.658	34.23
626.849	33.25
627.04	33.82
627.231	33.81
627.422	34.27
627.614	33.92
627.805	34.15
627.996	33.8
628.187	33.3
628.378	33.65
628.569	33.73
628.76	33.59
628.951	34.21
629.142	34
629.332	34.42
629.523	34.84
629.714	34.57
629.905	34.94
630.096	34.96
630.287	36.16
630.478	36.15
630.669	36.46
630.859	36.63
631.05	36.78
631.241	36.26
631.432	36.37
631.623	35.46
631.813	35.78
632.004	35.69
632.195	34.45
632.385	33.78
632.576	34.31
632.767	34.55
632.957	34.17
633.148	33.98
633.339	34.07
633.529	33.86
633.72	34.66
633.91	34.35
634.101	33.96
634.292	35.28
634.482	35.12
634.673	34.75
634.863	33.77
635.054	34.64
635.244	35.04
635.435	35.62
635.625	36.39
635.815	35.35
636.006	35.79
636.196	35.55
636.387	35.23
636.577	35.69
636.767	36.2
636.958	36.86
637.148	36.78
637.338	37.09
637.529	36.93
637.719	36.53
637.909	36.82
638.099	36.12
638.29	35.87
638.48	36.45
638.67	37.13
638.86	37.35
639.05	38.62
639.241	37.92
639.431	38
639.621	38.18
639.811	38.83
640.001	39.82
640.191	40.52
640.381	40.46
640.571	40.23
640.761	40.16
640.951	39.46
641.141	37.54
641.331	37.24
641.521	37.47
641.711	37.88
641.901	37
642.091	36.87
642.281	35.2
642.471	35.5
642.661	36.18
642.851	35.48
643.041	35.64
643.231	36.58
643.42	37.29
643.61	36.61
643.8	35.8
643.99	37.14
644.18	36.94
644.369	38.19
644.559	37.78
644.749	36.12
644.939	36.38
645.128	35.31
645.318	35.38
645.508	35.57
645.697	34.72
645.887	35.24
646.076	33.22
646.266	33.3
646.456	31.95
646.645	33.03
646.835	34.56
647.024	34.25
647.214	35.21
647.403	35.38
647.593	34.69
647.782	35.47
647.972	34.06
648.161	35.19
648.351	34.46
648.54	35.9
648.73	36.02
648.919	36.65
649.108	37.55
649.298	37.33
649.487	37.84
649.677	38.16
649.866	37.12
650.055	38.01
650.244	37.19
650.434	37.59
650.623	37.65
650.812	38.11
651.002	37.31
651.191	36.41
651.38	36.48
651.569	35.51
651.758	34.51
651.947	35.66
652.137	35.51
652.326	36.15
652.515	35
652.704	34.02
652.893	34.3
653.082	34.88
653.271	36.37
653.46	36.84
653.649	36.97
653.838	36.96
654.027	36.2
654.216	35.93
654.405	35.89
654.594	37.23
654.783	37.54
654.972	38.31
655.161	37.08
655.35	34.99
655.539	35.92
655.728	35.02
655.916	36.12
656.105	35.53
656.294	36.38
656.483	35.39
656.672	34.69
656.86	36.36
657.049	34.82
657.238	35.46
657.427	35.83
657.615	35.1
657.804	35.18
657.993	34.99
658.181	35.02
658.37	34.44
658.559	35.51
658.747	36.01
658.936	36.56
659.125	36.93
659.313	36.32
659.502	36.55
659.69	36.48
659.879	36.81
660.067	36.16
660.256	37.63
660.444	38.34
660.633	37.93
660.821	37.88
661.01	36.54
661.198	36.66
661.387	37.59
661.575	37.68
661.763	37.93
661.952	39.04
662.14	37.39
662.328	36.23
662.517	38.69
662.705	38.98
662.893	39.12
663.082	39.62
663.27	39.46
663.458	38.9
663.646	39.79
663.834	40.19
664.023	40.6
664.211	43.42
664.399	44.93
664.587	41.55
664.775	42.22
664.963	40.92
665.152	41.69
665.34	40.43
665.528	41.9
665.716	40.8
665.904	40.78
666.092	38.44
666.28	37.56
666.468	37.02
666.656	38.4
666.844	37.59
667.032	37.88
667.22	35.08
667.408	37.52
667.596	38.03
667.784	37.57
667.971	37.49
668.159	39.76
668.347	40.29
668.535	39.23
668.723	37.93
668.911	38
669.098	39.57
669.286	41.03
669.474	38.86
669.662	36.87
669.849	37.81
670.037	37.97
670.225	37.93
670.413	36.67
670.6	36.43
670.788	36.07
670.976	36.2
671.163	34.73
671.351	33.95
671.538	34.64
671.726	34.15
671.913	33.17
672.101	31.93
672.289	32.04
672.476	32.49
672.664	33.94
672.851	33.81
673.039	34.44
673.226	33.38
673.413	33.43
673.601	33.85
673.788	34.99
673.976	35.26
674.163	35.88
674.35	36.17
674.538	36.72
674.725	35.58
674.912	35.94
675.1	35.45
675.287	36.65
675.474	37
675.662	36.1
675.849	35.21
676.036	36.61
676.223	37.37
676.411	35.87
676.598	36.43
676.785	38.17
676.972	38.79
677.159	38.49
677.346	38.71
677.533	40.27
677.721	39.63
677.908	40.16
678.095	39.13
678.282	37.92
678.469	38.36
678.656	37.87
678.843	37.06
679.03	37.3
679.217	38.05
679.404	38.08
679.591	37.13
679.778	37.68
679.964	37.33
680.151	37.11
680.338	38.17
680.525	37.5
680.712	37.57
680.899	37.47
681.086	37.38
681.272	37
681.459	37.6
681.646	37.23
681.833	37.3
682.02	36.36
682.206	36.93
682.393	37.12
682.58	38.17
682.766	39.55
682.953	40.31
683.14	41.03
683.326	41.99
683.513	41.95
683.7	42.17
683.886	42.12
684.073	42.62
684.259	41.36
684.446	41.22
684.632	40.57
684.819	38.81
685.005	36.07
685.192	35.94
685.378	35.36
685.565	35.03
685.751	34.84
685.938	33.78
686.124	35.18
686.31	37.34
686.497	35.85
686.683	37.65
686.87	38.89
687.056	40.57
687.242	39.26
687.429	39.82
687.615	39.1
687.801	39.97
687.987	40.9
688.174	40.35
688.36	40.99
688.546	40.22
688.732	38.77
688.918	38.26
689.105	38.1
689.291	38.52
689.477	36.8
689.663	38.63
689.849	38.69
690.035	38.38
690.221	38.29
690.407	35.83
690.593	37.49
690.779	36.57
690.965	36.29
691.151	37.98
691.337	38.64
691.523	40.37
691.709	38.49
691.895	38.23
692.081	40.13
692.267	40.88
692.453	40.21
692.639	39.88
692.825	39.86
693.011	40.08
693.196	38.39
693.382	36.97
693.568	38.53
693.754	37.49
693.94	36.25
694.125	35.17
694.311	34.77
694.497	36.76
694.682	37.68
694.868	38.39
695.054	38.25
695.239	40
695.425	41.56
695.611	37.94
695.796	39.8
695.982	40.77
696.168	40.2
696.353	39.97
696.539	39.12
696.724	38.8
696.91	38.16
697.095	36.89
697.281	36.02
697.466	34.34
697.652	35.48
697.837	34.72
698.023	35.56
698.208	35.64
698.393	34.19
698.579	34.6
698.764	33.55
698.949	34.25
699.135	34.75
699.32	33.86
699.505	34.26
699.691	33.39
699.876	33.18
700.061	31.97
700.246	32.19
700.432	36.02
700.617	35.07
700.802	33.94
700.987	35.48
701.172	35.71
701.358	36.04
701.543	36.33
701.728	37.26
701.913	37.57
702.098	38.44
702.283	39.24
702.468	36.75
702.653	37.32
702.838	41.73
703.023	40.99
703.208	40.27
703.393	41.99
703.578	44.24
703.763	46.22
703.948	45.79
704.133	43.9
704.318	43.4
704.503	43.86
704.688	42.5
704.873	39.24
705.057	37.07
705.242	40.56
705.427	41.72
705.612	40.45
705.797	38.79
705.981	40.6
706.166	40.61
706.351	40.66
706.536	42.45
706.72	42.75
706.905	45.19
707.09	47.64
707.274	45.09
707.459	44.93
707.644	45.94
707.828	46.09
708.013	44.23
708.197	44.8
708.382	44.11
708.567	40.91
708.751	41.18
708.936	41.01
709.12	40.27
709.305	39.27
709.489	36.65
709.673	37.55
709.858	36.12
710.042	37.71
710.227	39.85
710.411	39.98
710.596	43.36
710.78	43.49
710.964	44.35
711.149	44.21
711.333	45.59
711.517	48.68
711.702	46.55
711.886	48.01
712.07	48.17
712.254	46.8
712.438	45.93
712.623	44.22
712.807	43.55
712.991	39.74
713.175	39.25
713.359	37.93
713.544	36.73
713.728	35.87
713.912	36.01
714.096	36.38
714.28	34.15
714.464	36.2
714.648	37.89
714.832	37.99
715.016	39.93
715.2	39.93
715.384	38.8
715.568	37.98
715.752	38.38
715.936	36.71
716.12	35.49
716.304	39.02
716.488	42.54
716.671	41.19
716.855	42.1
717.039	42.3
717.223	43.01
717.407	45.46
717.59	46.56
717.774	46.37
717.958	46.63
718.142	47.4
718.325	42.01
718.509	33.99
718.693	33.86
718.877	32.46
719.06	33.06
719.244	29.32
719.428	30.64
719.611	30.71
719.795	34.88
719.978	34.76
720.162	35.57
720.345	36.76
720.529	40.87
720.713	38.5
720.896	39.84
721.08	40.41
721.263	41.81
721.446	38.94
721.63	37.82
721.813	35.32
721.997	35.4
722.18	36.48
722.364	37.83
722.547	37.17
722.73	38.62
722.914	37.64
723.097	37.57
723.28	38.72
723.464	40.57
723.647	41.33
723.83	42.36
724.013	42.33
724.197	41.75
724.38	42.84
724.563	41.12
724.746	43.36
724.929	44.68
725.112	46.25
725.296	46.6
725.479	46.5
725.662	45.73
725.845	45.8
726.028	47.44
726.211	50.07
726.394	48.46
726.577	48.93
726.76	47.19
726.943	45.74
727.126	41.28
727.309	40.56
727.492	43.39
727.675	42.86
727.858	40.43
728.041	40.42
728.224	38.39
728.407	40.13
728.589	42.44
728.772	42.09
728.955	43.93
729.138	45.02
729.321	43.36
729.503	40.58
729.686	41.92
729.869	42.75
730.052	43.14
730.234	39.85
730.417	38.05
730.6	34.95
730.782	35.69
730.965	36.37
731.148	37.65
731.33	37.81
731.513	39.33
731.695	40.02
731.878	41.47
732.061	41.14
732.243	43
732.426	44.55
732.608	48.79
732.791	48.96
732.973	49
733.156	50.72
733.338	51.87
733.52	51.44
733.703	49.46
733.885	48.71
734.068	46.11
734.25	47.96
734.432	49.6
734.615	45.83
734.797	47.64
734.979	46.39
735.162	44.33
735.344	47.28
735.526	47.2
735.708	51.39
735.891	49.88
736.073	51.78
736.255	53.13
736.437	53.94
736.619	52.82
736.802	53.44
736.984	54.78
737.166	53.43
737.348	53.26
737.53	56.45
737.712	52.42
737.894	53.46
738.076	53.31
738.258	50.7
738.44	48.9
738.622	51.43
738.804	49.77
738.986	48.64
739.168	50.27
739.35	46.72
739.532	42.65
739.714	47.02
739.896	46.4
740.078	48.13
740.259	48.79
740.441	53.13
740.623	48.92
740.805	46.19
740.987	49.77
741.168	55.5
741.35	60.42
741.532	62.48
741.714	56.84
741.895	59.47
742.077	62.73
742.259	65.48
742.44	64.33
742.622	66.41
742.804	66.99
742.985	64.37
743.167	56.56
743.348	55.34
743.53	53.5
743.711	58.23
743.893	62.73
744.075	58.8
744.256	56.43
744.438	56.28
744.619	58.79
744.8	63.26
744.982	63.27
745.163	64.4
745.345	62.69
745.526	63.42
745.707	64.06
745.889	59.13
746.07	60.2
746.252	60.43
746.433	59.87
746.614	59.83
746.795	54.53
746.977	55.3
747.158	54.4
747.339	57.01
747.52	62.08
747.702	63.78
747.883	61.3
748.064	59.79
748.245	63.65
748.426	56
748.607	53.59
748.788	56.04
748.97	52.61
749.151	51.6
749.332	44.16
749.513	41.89
749.694	39.22
749.875	42.79
750.056	44.22
750.237	42.34
750.418	51.25
750.599	50.44
750.78	57.68
750.96	59.99
751.141	61.5
751.322	63.56
751.503	62.02
751.684	60.66
751.865	64
752.046	64.39
752.226	61.75
752.407	59.11
752.588	60.47
752.769	53.37
752.949	53.12
753.13	49.57
753.311	54.85
753.492	53.4
753.672	52.54
753.853	46.85
754.034	46.42
754.214	45.26
754.395	43.47
754.575	44.31
754.756	47.14
754.937	46.17
755.117	55.22
755.298	54.47
755.478	53.29
755.659	54.14
755.839	54.36
756.02	56.53
756.2	58.67
756.381	60.64
756.561	60.48
756.741	61.38
756.922	64.4
757.102	58.03
757.283	57.9
757.463	58.58
757.643	58.79
757.823	58.63
758.004	50.24
758.184	52.21
758.364	51.46
758.545	46.98
758.725	42.47
758.905	40.11
759.085	38.99
759.265	37.12
759.446	36.02
759.626	35.9
759.806	35.82
759.986	42.07
760.166	42.78
760.346	42.13
760.526	45.86
760.706	42.13
760.886	41.38
761.066	43.23
761.246	42.39
761.426	41.58
761.606	41.58
761.786	44.01
761.966	42.55
762.146	42.6
762.326	42.98
762.506	40.57
762.686	44.43
762.866	44.03
763.046	45.57
763.225	47.09
763.405	48.96
763.585	49.83
763.765	49.53
763.945	51.16
764.124	51.6
764.304	51.78
764.484	54.92
764.664	52.57
764.843	52.91
765.023	54.33
765.203	52.52
765.382	54.59
765.562	51.45
765.741	50.29
765.921	53.46
766.101	53.7
766.28	56.53
766.46	59.52
766.639	62.75
766.819	65.63
766.998	67.18
767.178	71.47
767.357	70.14
767.537	68.47
767.716	70.47
767.896	68.09
768.075	67.15
768.254	59.08
768.434	61.09
768.613	60.94
768.792	65.23
768.972	62.26
769.151	57.41
769.33	57.03
769.51	63.53
769.689	63.21
769.868	64.02
770.047	63.37
770.226	64.4
770.406	64.43
770.585	65.73
770.764	65.65
770.943	66.41
771.122	65.86
771.301	64.92
771.48	63.13
771.66	68.86
771.839	69.96
772.018	74.33
772.197	79.26
772.376	72.81
772.555	75.14
772.734	77.77
772.913	74.95
773.092	76.65
773.271	79.07
773.449	79.76
773.628	78.95
773.807	73.99
773.986	71.71
774.165	73.72
774.344	77.18
774.523	75.21
774.701	70.26
774.88	77.46
775.059	73.13
775.238	81.68
775.417	82.84
775.595	83.63
775.774	82.8
775.953	85.76
776.131	87.23
776.31	92.6
776.489	95.05
776.667	103.46
776.846	88.66
777.025	90.86
777.203	80.2
777.382	77.92
777.56	68.9
777.739	72.93
777.917	66.9
778.096	65.07
778.274	63.17
778.453	61.24
778.631	49.76
778.81	55.34
778.988	55.96
779.166	65.57
779.345	64.6
779.523	71.51
779.702	70.51
779.88	76.87
780.058	83.17
780.237	76.86
780.415	76.3
780.593	88.09
780.771	79.06
780.95	81.51
781.128	73.31
781.306	81.16
781.484	75.01
781.662	70
781.841	64.81
782.019	65.55
782.197	68.94
782.375	69.39
782.553	70.24
782.731	80.52
782.909	74.71
783.087	78.47
783.265	74.49
783.443	78.71
783.621	89.89
783.799	99.65
783.977	95.43
784.155	96.8
784.333	104.33
784.511	100.3
784.689	93.96
784.867	105.69
785.045	96.66
785.223	87.36
785.4	94.21
785.578	85.82
785.756	71.77
785.934	65.21
786.112	52.78
786.289	52.29
786.467	55.99
786.645	59.93
786.823	59.33
787	55.35
787.178	62.64
787.356	58.53
787.533	56.66
787.711	53
787.889	53.33
788.066	64.6
788.244	59.65
788.421	56.35
788.599	59.47
788.776	59.65
788.954	68.76
789.131	66.04
789.309	66.52
789.486	63.56
789.664	63.23
789.841	69.55
790.019	74.37
790.196	81.89
790.373	88.74
790.551	82.13
790.728	71.5
790.906	72.63
791.083	75
791.26	66.55
791.437	77.94
791.615	86.37
791.792	74.45
791.969	66.67
792.146	61.03
792.324	61.19
792.501	59.63
792.678	64.73
792.855	65.74
793.032	68.66
793.209	80.52
793.387	79.7
793.564	73.45
793.741	71.72
793.918	80.36
794.095	73.34
794.272	67.27
794.449	66.3
794.626	76.25
794.803	70.02
794.98	61.39
795.157	54.1
795.334	47.17
795.511	53.81
795.688	57.38
795.864	53.41
796.041	58.57
796.218	63.04
796.395	61.01
796.572	51.23
796.749	50.21
796.925	55.99
797.102	53.3
797.279	57.95
797.456	48.94
797.632	49.23
797.809	46.03
797.986	48.27
798.162	46.66
798.339	53.97
798.516	63.43
798.692	66.01
798.869	67.19
799.046	73.97
799.222	78.6
799.399	89.06
799.575	92.47
799.752	102.91
799.928	103.08
800.105	103.46
800.281	99.61
800.458	96.28
800.634	85.28
800.811	85.02
800.987	72.93
801.163	69.87
801.34	63.4
801.516	49.74
801.692	42.46
801.869	19.53
802.045	30.99
802.221	63.2
802.398	62.19
802.574	80.56
802.75	95.24
802.926	118.38
803.103	113.04
803.279	120.09
803.455	131.42
803.631	119.82
803.807	145.78
803.983	146.18
804.16	139.15
804.336	166.02
804.512	161.32
804.688	151.65
804.864	174.21
805.04	182.09
805.216	164.71
805.392	173.84
805.568	194.03
805.744	130.37
805.92	140.78
806.096	133.33
806.272	128.55
806.448	146.76
806.623	130.84
806.799	106.69
806.975	105.15
807.151	105.91
807.327	122.62
807.503	121.35
807.678	142.26
807.854	143.54
808.03	144.79
808.206	125.85
808.381	111
808.557	103.92
808.733	109.3
808.908	96.43
809.084	91.8
809.26	65.04
809.435	59.95
809.611	38.66
809.787	24.13
809.962	13.48
810.138	8.94
810.313	18.27
810.489	3.83
810.664	-1.12
810.84	13.89
811.015	10.86
811.191	-0.81
811.366	-3.91
811.542	15.68
811.717	15.5
811.892	9.67
812.068	20.95
812.243	8.32
812.419	25.18
812.594	26.98
812.769	11.37
812.944	33.33
813.12	36.02
813.295	38.81
813.47	24.91
813.645	10.69
813.821	22.25
813.996	5.12
814.171	60.19
814.346	68.17
814.521	72.25
814.697	52.31
814.872	71.35
815.047	81.33
815.222	97.59
815.397	84.41
815.572	75.03
815.747	80.53
815.922	86.58
816.097	90.77
816.272	89.28
816.447	86.22
816.622	104.72
816.797	96.38
816.972	108.18
817.147	115.6
817.322	134.41
817.496	134.09
817.671	118.67
817.846	115.87
818.021	96.95
818.196	91.13
818.371	83.8
818.545	56.01
818.72	60.36
818.895	46.53
819.069	36.41
819.244	18.9
819.419	13.4
819.594	17.46
819.768	15.28
819.943	20.93
820.117	24.14
820.292	25.48
820.467	27.75
820.641	25.98
820.816	25.37
820.99	25.9
821.165	28.59
821.339	27.98
821.514	27.62
821.688	26.99
821.863	24.99
822.037	25.13
822.212	24.98
822.386	24.51
822.56	24.1
822.735	26.1
822.909	25.84
823.084	24.99
823.258	27.34
823.432	26.33
823.606	30.95
823.781	35.27
823.955	37.69
824.129	40.62
824.303	40.61
824.478	40.99
824.652	37.71
824.826	35.68
825	35.2
825.174	35.56
825.348	33.61
825.523	33.82
825.697	27.68
825.871	25.16
826.045	24.91
826.219	28.67
826.393	29.66
826.567	31.53
826.741	34.21
826.915	38.7
827.089	40.38
827.263	45.43
827.437	43.32
827.611	52.27
827.784	56.54
827.958	52.41
828.132	49.25
828.306	53.17
828.48	56.31
828.654	62.61
828.827	67.86
829.001	69.18
829.175	70.57
829.349	80.86
829.522	64.1
829.696	67.33
829.87	80.5
830.044	90.05
830.217	88.68
830.391	84.33
830.565	75.08
830.738	76.06
830.912	68.86
831.085	71.88
831.259	65.18
831.432	68.09
831.606	59.41
831.779	62.08
831.953	61.65
832.126	54.74
832.3	53.33
832.473	45.73
832.647	32.01
832.82	35.27
832.994	28.27
833.167	37.21
833.34	37.22
833.514	35.97
833.687	32.63
833.86	28.3
834.034	26.26
834.207	15.28
834.38	25.19
834.553	29.78
834.727	29.83
834.9	36.99
835.073	33.52
835.246	32.76
835.419	39.86
835.593	50.65
835.766	58.96
835.939	72.78
836.112	80.15
836.285	71.29
836.458	77.74
836.631	85.66
836.804	86.7
836.977	83.29
837.15	93.69
837.323	94.25
837.496	82.08
837.669	85.76
837.842	59.06
838.015	68.62
838.188	71.58
838.361	63.75
838.533	60.17
838.706	58.44
838.879	57.93
839.052	44.29
839.225	45.21
839.398	50
839.57	53.08
839.743	50.87
839.916	51.71
840.088	76.17
840.261	80.43
840.434	82.23
840.607	82.69
840.779	85.28
840.952	114.34
841.124	127.1
841.297	149.54
841.47	167.31
841.642	187.94
841.815	196.33
841.987	141.6
842.16	175
842.332	423.12
842.505	407.98
842.677	538.24
842.85	-10400
843.022	-2962.5
843.194	1368.18
843.367	-925.81
843.539	-421.18
843.712	-521.05
843.884	-659.26
844.056	-960
844.229	239.05
844.401	280
844.573	306.02
844.745	157.18
844.918	173.56
845.09	196.97
845.262	187.21
845.434	158.74
845.606	223.54
845.779	233.59
845.951	329.89
846.123	361.67
846.295	332.31
846.467	329.39
846.639	292.1
846.811	325.69
846.983	600.71
847.155	-356.82
847.327	-444.83
847.499	3360
847.671	-721.33
847.843	-2409.09
848.015	-458.16
848.187	-421.74
848.359	-845.71
848.531	-338
848.703	-139.05
848.875	-186.43
849.047	-197.77
849.218	-44.41
849.39	-59.94
849.562	-122.84
849.734	-192.11
849.905	-109.45
850.077	-190.45
850.249	-1122
850.421	1066.13
850.592	406.94
850.764	393.07
850.936	291.83
851.107	272.57
851.279	304.48
851.451	253.56
851.622	192.23
851.794	133.25
851.965	111.72
852.137	94.81
852.308	119.86
852.48	123.97
852.651	80.8
852.823	69.23
852.994	65.1
853.166	65.9
853.337	75.79
853.509	108.1
853.68	447.17
853.851	-570.27
854.023	-80.77
854.194	250.31
854.365	188.21
854.537	187.27
854.708	254.17
854.879	452.74
855.05	452.5
855.222	3623.08
855.393	462.26
855.564	439.81
855.735	1369.57
855.906	257.46
856.078	-101.1
856.249	-108.51
856.42	-166.67
856.591	-639.02
856.762	-259.74
856.933	-31.15
857.104	-53.48
857.275	-213.93
857.446	-34.15
857.617	-114.84
857.788	-85.05
857.959	339.34
858.13	212.04
858.301	1393.75
858.472	423.68
858.643	750.62
858.814	342.69
858.985	352.14
859.155	707
859.326	263.28
859.497	244.3
859.668	163.57
859.839	459.12
860.009	494.9
860.18	368.14
860.351	-381.67
860.522	-2250
860.692	-52.86
860.863	4900
861.034	369.23
861.204	1831.82
861.375	341.24
861.546	-361.11
861.716	-4675
861.887	-1297.92
862.057	14425
862.228	-3727.78
862.398	-9262.5
862.569	1236.71
862.739	751.2
862.91	2296.97
863.08	299.18
863.251	-1534.29
863.421	-407
863.592	759.68
863.762	1560
863.932	628.16
864.103	310.64
864.273	296.58
864.443	691.14
864.614	229.37
864.784	257.96
864.954	2931.25
865.125	424.68
865.295	292.61
865.465	1419.44
865.635	874.24
865.805	2206.25
865.976	807.14
866.146	148.74
866.316	221.74
866.486	363.49
866.656	268.18
866.826	187.54
866.996	194.35
867.166	178.14
867.336	217.35
867.506	205.83
867.676	211.66
867.846	201.43
868.016	890.24
868.186	127
868.356	97.5
868.526	142.5
868.696	266.67
868.866	56.9
869.036	93.51
869.206	55.71
869.376	89.3
869.545	160
869.715	302.7
869.885	238.89
870.055	-2492.86
870.224	33100
870.394	-382.71
870.564	-602.78
870.734	-127.04
870.903	-76.03
871.073	-98.04
871.243	-122.82
871.412	-293.65
871.582	-234.32
871.751	-857.14
871.921	276.53
872.091	160.29
872.26	97.05
872.43	80.66
872.599	74.65
872.769	85.68
872.938	89.09
873.108	75.29
873.277	67.24
873.446	93.56
873.616	98.51
873.785	91.21
873.955	98.49
874.124	94.87
874.293	95.35
874.463	70.46
874.632	75.5
874.801	59.27
874.971	72.14
875.14	85.76
875.309	95.1
875.478	78.37
875.647	86.18
875.817	62.95
875.986	66.48
876.155	59.61
876.324	93.84
876.493	67.39
876.662	107.31
876.831	106.3
877	100.9
877.17	44.47
877.339	85.89
877.508	86.59
877.677	123.49
877.846	119.21
878.015	151.34
878.184	240.06
878.352	668.13
878.521	374.04
878.69	438.55
878.859	175.56
879.028	738.82
879.197	280.37
879.366	131.19
879.534	86.97
879.703	65.99
879.872	40.21
880.041	33.68
880.21	37.94
880.378	44.71
880.547	38.51
880.716	40.08
880.884	38.7
881.053	37.23
881.222	40.09
881.39	42.96
881.559	45.2
881.727	48.81
881.896	50
882.065	48.59
882.233	44.44
882.402	53.83
882.57	50.8
882.739	46.32
882.907	63.17
883.076	71.73
883.244	67.33
883.412	83.92
883.581	87.25
883.749	79.66
883.918	96.18
884.086	104.4
884.254	105.16
884.423	111.1
884.591	156.32
884.759	128.7
884.927	169.35
885.096	215.63
885.264	176.35
885.432	205.67
885.6	286.91
885.769	280.53
885.937	257.98
886.105	333.82
886.273	281.16
886.441	242.16
886.609	387.7
886.777	149.24
886.945	50.76
887.113	153.06
887.281	275.29
887.449	-2228.57
887.617	2361.54
887.785	508.97
887.953	-640
888.121	-183.44
888.289	-179.73
888.457	-731.15
888.625	-205.99
888.793	-91.01
888.961	-92
889.129	-98.44
889.296	-287.76
889.464	-170.63
889.632	-88.14
889.8	-151.52
889.967	-202.97
890.135	-419.61
