Data from JASIL_3161_Reflection_2.txt Node
Date: Thu Nov 12 21:51:13 EST 2015
User: Geneva
Spectrometer: USB4E03002
Autoset integration time: false
Trigger mode: 4
Integration Time (sec): 1.000000E-1
Scans to average: 10
Electric dark correction enabled: true
Nonlinearity correction enabled: false
Boxcar width: 5
Stray light correction enabled: false
XAxis mode: Wavelengths
Stop averaging: false
Number of Pixels in Spectrum: 3648
>>>>>Begin Spectral Data<<<<<
177.575	128.71
177.794	96
178.014	61.16
178.233	300.21
178.452	110.16
178.672	-10.79
178.891	-3.22
179.11	-62.63
179.33	-54.39
179.549	-59.79
179.768	-24.15
179.987	-54.17
180.207	17.5
180.426	-144.44
180.645	37.42
180.864	50.89
181.084	154.09
181.303	298.52
181.522	159.49
181.741	72.28
181.96	79.83
182.179	21.17
182.398	-38.72
182.618	-12.47
182.837	42.4
183.056	19.66
183.275	47.5
183.494	40.84
183.713	43.09
183.932	54.3
184.151	61.09
184.37	44.79
184.589	49.92
184.808	52.04
185.027	53.69
185.246	51.43
185.465	58.23
185.684	40.14
185.903	79.31
186.122	56.75
186.341	55.42
186.56	15.91
186.779	-267.32
186.998	-56.55
187.216	3.44
187.435	-57.21
187.654	-137.42
187.873	-173.69
188.092	139.98
188.311	524.27
188.53	1431.65
188.748	-1910.43
188.967	45.08
189.186	49.63
189.405	-9.42
189.623	10.01
189.842	27.62
190.061	56.49
190.28	41.5
190.498	17.38
190.717	10.73
190.936	7.24
191.154	9.93
191.373	-161.85
191.592	-20.48
191.81	49.03
192.029	-20.47
192.248	-199.49
192.466	-170.5
192.685	-237.01
192.904	-141.25
193.122	-73.26
193.341	-43.69
193.559	-99.24
193.778	4.43
193.996	-61.42
194.215	-7.2
194.433	29.99
194.652	123.23
194.87	138.38
195.089	347.06
195.307	342.11
195.526	796.77
195.744	-4037.88
195.963	-335.77
196.181	-138.09
196.399	-155.51
196.618	-79.13
196.836	-13.98
197.055	-79.67
197.273	-64.02
197.491	-19.25
197.71	-60.17
197.928	9.11
198.146	25.23
198.365	-257.2
198.583	-492.01
198.801	3.91
199.019	59.54
199.238	96.33
199.456	141.48
199.674	68.83
199.892	127.61
200.111	75.85
200.329	116.38
200.547	105.29
200.765	123.28
200.983	54.85
201.202	79.46
201.42	59.77
201.638	19.4
201.856	52.61
202.074	76.49
202.292	104.09
202.51	62.42
202.728	41.42
202.946	55.16
203.165	84.71
203.383	119.45
203.601	70.67
203.819	48.11
204.037	58.54
204.255	52.71
204.473	38.37
204.691	4.82
204.909	38.95
205.127	48.39
205.345	46.14
205.562	24.6
205.78	26.86
205.998	31.62
206.216	55.69
206.434	51.63
206.652	15.36
206.87	-21.85
207.088	-2904.69
207.306	-421.73
207.523	518.69
207.741	441.51
207.959	-1208.41
208.177	-184.16
208.395	-196.15
208.612	-84.27
208.83	-14.04
209.048	16.26
209.266	38.17
209.483	52.59
209.701	50.88
209.919	36.72
210.136	44.09
210.354	54.13
210.572	54.8
210.79	65.6
211.007	66.06
211.225	60.58
211.442	52.72
211.66	49.59
211.878	50.7
212.095	-25.93
212.313	-44.18
212.53	-47.83
212.748	-8.77
212.966	0.91
213.183	24.72
213.401	23.07
213.618	20
213.836	33.68
214.053	26.83
214.271	15.99
214.488	-987.66
214.705	-520
214.923	-362.4
215.14	-13.84
215.358	-0.75
215.575	94.4
215.793	152.58
216.01	-235.58
216.227	27536.36
216.445	186.4
216.662	92.03
216.879	90.78
217.097	108.23
217.314	77.65
217.531	-7.77
217.749	-15.47
217.966	-27.89
218.183	-49.41
218.4	-38.46
218.618	-27.72
218.835	-13.47
219.052	-22.42
219.269	-24.8
219.487	-44.25
219.704	-11.51
219.921	-11.58
220.138	-24.47
220.355	-67.71
220.572	-30.04
220.79	4.35
221.007	-10.16
221.224	-52.87
221.441	-14.9
221.658	1.56
221.875	23.64
222.092	-4.91
222.309	22.85
222.526	26.72
222.743	43.74
222.96	72.09
223.177	103.66
223.394	166.85
223.611	99.22
223.828	67.27
224.045	63.27
224.262	67.36
224.479	83.22
224.696	78.24
224.913	57.13
225.13	32.4
225.347	12.08
225.564	24.3
225.781	25.99
225.997	20.54
226.214	29.96
226.431	21.1
226.648	23.14
226.865	24.1
227.082	9.36
227.298	23.29
227.515	33.12
227.732	29.71
227.949	23.24
228.165	21.37
228.382	23.88
228.599	23.14
228.816	27.09
229.032	28.65
229.249	22.21
229.466	23.77
229.682	17.31
229.899	10.99
230.116	8.33
230.332	-3.28
230.549	1.61
230.765	15.73
230.982	12.8
231.199	21.06
231.415	20.24
231.632	24.03
231.848	8.04
232.065	10.59
232.281	32.04
232.498	35.49
232.714	46.01
232.931	37.91
233.147	30.54
233.364	25.89
233.58	19.92
233.797	9.91
234.013	9.81
234.23	33.76
234.446	25.5
234.662	-3.17
234.879	-7.39
235.095	0.08
235.312	-0.97
235.528	13.42
235.744	13.74
235.961	6.66
236.177	8.64
236.393	1.89
236.61	-9.35
236.826	-1.15
237.042	3.04
237.258	8.93
237.475	0
237.691	7.49
237.907	-1.19
238.123	13.07
238.339	26.28
238.556	37.78
238.772	49.84
238.988	67.75
239.204	82.39
239.42	74.81
239.636	70.23
239.853	56.88
240.069	50.98
240.285	43.88
240.501	38.17
240.717	36.21
240.933	27.32
241.149	26.59
241.365	21.17
241.581	20.25
241.797	20.58
242.013	15.24
242.229	13.3
242.445	15.77
242.661	14.79
242.877	13.1
243.093	13.96
243.309	14.67
243.525	14.44
243.741	14.49
243.957	8.03
244.173	6.63
244.388	8.8
244.604	17.54
244.82	10.99
245.036	14.61
245.252	21.78
245.468	18.14
245.683	18.27
245.899	18.72
246.115	15.93
246.331	16.86
246.547	16.27
246.762	14.63
246.978	13.51
247.194	12.66
247.409	12.42
247.625	8.95
247.841	9.55
248.057	9.6
248.272	6.06
248.488	9.07
248.703	9.39
248.919	12.71
249.135	18.8
249.35	13.8
249.566	18.51
249.782	19.93
249.997	19.12
250.213	19.69
250.428	13.87
250.644	10.96
250.859	9.12
251.075	7.14
251.29	6.72
251.506	4.39
251.721	4.25
251.937	7.25
252.152	4.19
252.368	1.83
252.583	-0.04
252.798	7
253.014	6.49
253.229	1.26
253.445	8.22
253.66	7.27
253.875	5.18
254.091	10.12
254.306	6.94
254.521	3.15
254.737	9.67
254.952	11.88
255.167	10.41
255.383	12.78
255.598	14.28
255.813	12.84
256.028	12.87
256.244	10.78
256.459	11
256.674	11.38
256.889	10.7
257.104	17.12
257.32	15.74
257.535	17.14
257.75	14.18
257.965	15.4
258.18	10.81
258.395	5.95
258.61	6.38
258.826	6.41
259.041	4.6
259.256	6.1
259.471	1.41
259.686	-0.03
259.901	0.25
260.116	2.57
260.331	1.29
260.546	3.89
260.761	9.11
260.976	13.33
261.191	16.68
261.406	18.5
261.621	15.54
261.836	17.17
262.05	18.59
262.265	14.98
262.48	15.82
262.695	16.31
262.91	15.77
263.125	13.62
263.34	12.87
263.555	10.88
263.769	8.12
263.984	9.73
264.199	8.18
264.414	6.62
264.629	9.91
264.843	5.83
265.058	7.69
265.273	7.18
265.488	1.69
265.702	-1.15
265.917	-5.58
266.132	-6.3
266.346	0.87
266.561	0.29
266.776	3.04
266.99	0.94
267.205	5.08
267.42	6.47
267.634	6.45
267.849	10.38
268.063	9.14
268.278	11.97
268.492	11.62
268.707	9.33
268.922	10.11
269.136	9.71
269.351	13.31
269.565	8.82
269.78	8.17
269.994	8.49
270.209	8.8
270.423	8.5
270.637	6.99
270.852	9.87
271.066	7.84
271.281	6.61
271.495	0.16
271.709	-5.68
271.924	-3.64
272.138	-5.22
272.353	-6.87
272.567	-8.35
272.781	-9.05
272.996	-8.54
273.21	-11.35
273.424	-9.66
273.638	-4.41
273.853	2.38
274.067	7.06
274.281	11.78
274.495	10.87
274.71	14.48
274.924	14.31
275.138	15.95
275.352	12.12
275.566	12.16
275.781	10.14
275.995	7.01
276.209	5.52
276.423	0.75
276.637	-5.14
276.851	-4.52
277.065	-15.26
277.279	-15.81
277.493	-15.95
277.707	-10.8
277.921	-8.48
278.135	-6.7
278.349	-0.12
278.563	0.92
278.777	1.74
278.991	1.5
279.205	3.08
279.419	6.93
279.633	8.13
279.847	9.98
280.061	7.29
280.275	8.75
280.489	4.76
280.703	-6.27
280.917	-3.41
281.131	-2.16
281.344	-2.18
281.558	-1.97
281.772	0.57
281.986	1.65
282.2	1.46
282.414	4.88
282.627	3.11
282.841	7.59
283.055	14.29
283.269	13.05
283.482	11.08
283.696	11.19
283.91	10.68
284.123	6.9
284.337	7.5
284.551	4.56
284.764	4.64
284.978	5.6
285.192	5.29
285.405	1.38
285.619	3.39
285.833	7.86
286.046	9.88
286.26	10.22
286.473	12.31
286.687	12.12
286.9	15.29
287.114	12.54
287.327	11
287.541	11.79
287.754	15.51
287.968	13.46
288.181	9.39
288.395	7.62
288.608	8.84
288.822	5.92
289.035	2.99
289.248	1.32
289.462	5.65
289.675	6.85
289.889	6.23
290.102	4.31
290.315	4.55
290.529	4.8
290.742	4.97
290.955	5.06
291.169	7.04
291.382	10.23
291.595	11.13
291.808	9.43
292.022	7.85
292.235	8.08
292.448	7.33
292.661	7.23
292.875	8.78
293.088	8.78
293.301	8.49
293.514	6.8
293.727	6.14
293.94	4.31
294.153	4.99
294.367	5.24
294.58	5.61
294.793	7.67
295.006	4.59
295.219	5.88
295.432	7.48
295.645	4.82
295.858	5.88
296.071	2.57
296.284	4.5
296.497	4.87
296.71	4.61
296.923	2.58
297.136	1.23
297.349	1.28
297.562	0.83
297.775	-1.45
297.988	0.29
298.201	0.29
298.414	2.19
298.626	3.3
298.839	2.19
299.052	4.93
299.265	5.44
299.478	7.47
299.691	6.63
299.903	6.83
300.116	7.86
300.329	9.73
300.542	9.85
300.755	8.98
300.967	7.29
301.18	6.19
301.393	6.81
301.605	8.17
301.818	6.04
302.031	5.43
302.243	1.85
302.456	2.06
302.669	-0.51
302.881	-3.82
303.094	-3.31
303.307	-3.83
303.519	-3.99
303.732	-5.87
303.944	-6.89
304.157	-6.15
304.37	-3.03
304.582	-1.83
304.795	-5.54
305.007	-5.2
305.22	0.26
305.432	-0.69
305.645	-2.43
305.857	1.88
306.069	3.73
306.282	5.83
306.494	6.77
306.707	9.2
306.919	12.64
307.132	13.85
307.344	11.82
307.556	10.9
307.769	11.45
307.981	12.36
308.193	8.92
308.406	5.57
308.618	3.67
308.83	1.14
309.043	1.13
309.255	-3
309.467	-3.07
309.679	-1.46
309.892	-1.75
310.104	-1.43
310.316	-2.67
310.528	-1.38
310.74	-0.97
310.953	-2.47
311.165	-2.63
311.377	-2.73
311.589	0.45
311.801	0.88
312.013	-1.08
312.225	-2.47
312.437	-2.44
312.649	-3.72
312.862	-1.94
313.074	-0.82
313.286	3.07
313.498	8.11
313.71	3.82
313.922	2.48
314.134	3.7
314.346	5.18
314.558	5.98
314.77	5.96
314.982	10.57
315.193	6.07
315.405	2.2
315.617	2.25
315.829	-0.24
316.041	0.92
316.253	2.67
316.465	3.87
316.677	5.52
316.888	6.47
317.1	8.61
317.312	8.89
317.524	10.23
317.736	11.02
317.947	7.39
318.159	8.21
318.371	12.97
318.583	10.94
318.794	10.55
319.006	9.4
319.218	10.01
319.43	9.61
319.641	7.99
319.853	11.33
320.064	14.18
320.276	16.57
320.488	14.57
320.699	12.67
320.911	13.52
321.123	12.31
321.334	10.47
321.546	11.69
321.757	13.87
321.969	14.85
322.18	12.2
322.392	10.03
322.603	8.38
322.815	8.9
323.026	7.98
323.238	7.58
323.449	8.65
323.661	7.59
323.872	4.7
324.083	1.63
324.295	4.04
324.506	4.09
324.718	4.82
324.929	6.14
325.14	8.27
325.352	7.75
325.563	9.29
325.774	9.17
325.986	9.9
326.197	10.81
326.408	12.41
326.62	9.07
326.831	8.4
327.042	9.35
327.253	9.73
327.464	10.06
327.676	9.06
327.887	6.11
328.098	6.16
328.309	9.23
328.52	10.76
328.732	9.73
328.943	7.72
329.154	9.61
329.365	6.5
329.576	6.14
329.787	4.63
329.998	3.8
330.209	5.65
330.42	4.96
330.631	3.46
330.842	0.74
331.053	1.32
331.264	3.29
331.475	2.3
331.686	3.91
331.897	5.26
332.108	3.18
332.319	5.63
332.53	5.58
332.741	6.51
332.952	6.48
333.163	3.71
333.374	2.75
333.585	2.3
333.795	-0.09
334.006	0.49
334.217	-0.27
334.428	1.83
334.639	0.48
334.849	0.15
335.06	0.23
335.271	-0.48
335.482	2.88
335.692	2.41
335.903	1.42
336.114	2.78
336.325	4.15
336.535	4.18
336.746	2.09
336.957	2.32
337.167	1.66
337.378	-1.78
337.589	-0.51
337.799	2.14
338.01	4.18
338.22	5.51
338.431	7.32
338.642	4.82
338.852	5.05
339.063	4.95
339.273	6.97
339.484	7.97
339.694	11.48
339.905	9.5
340.115	7.81
340.326	5
340.536	5.52
340.746	3.41
340.957	4.01
341.167	3.45
341.378	4.08
341.588	2.08
341.799	2.02
342.009	0.45
342.219	2.19
342.43	1.59
342.64	4.61
342.85	4.38
343.061	5.63
343.271	6.41
343.481	5.65
343.691	6.12
343.902	6.22
344.112	4.7
344.322	5.14
344.532	5.48
344.743	5.22
344.953	3.88
345.163	4.29
345.373	3.71
345.583	3.21
345.793	3.85
346.004	2.7
346.214	4.08
346.424	6.25
346.634	7.07
346.844	6.95
347.054	8.35
347.264	8.18
347.474	7.25
347.684	7.56
347.894	7.45
348.104	5.64
348.314	5.23
348.524	4.6
348.734	4.66
348.944	4.7
349.154	4.17
349.364	3.42
349.574	2.57
349.784	3.83
349.994	4.64
350.204	4.46
350.413	6.8
350.623	7.88
350.833	7.37
351.043	7.33
351.253	6.2
351.463	4.44
351.672	2.83
351.882	2.74
352.092	1.5
352.302	0.6
352.511	1.1
352.721	-0.69
352.931	1.47
353.141	2.21
353.35	1.97
353.56	0.72
353.77	1.65
353.979	1.73
354.189	2.96
354.399	3.98
354.608	1.04
354.818	2.1
355.027	3.44
355.237	1.94
355.447	0.82
355.656	0.38
355.866	0.56
356.075	2.08
356.285	3.74
356.494	2.98
356.704	2.7
356.913	5.46
357.123	4.54
357.332	3.73
357.542	3.95
357.751	5.14
357.96	5.62
358.17	7.66
358.379	8.21
358.589	7.71
358.798	7.79
359.007	7.76
359.217	8.65
359.426	9.24
359.635	9.85
359.845	9.77
360.054	9.3
360.263	8.54
360.472	8.38
360.682	6.69
360.891	7.41
361.1	8.08
361.309	9.38
361.519	7.86
361.728	6.81
361.937	7.19
362.146	6.69
362.355	7.04
362.564	8.28
362.774	7.18
362.983	7.91
363.192	7.39
363.401	6.47
363.61	4.54
363.819	3.49
364.028	4.14
364.237	3.85
364.446	4.89
364.655	3.05
364.864	2.14
365.073	3.26
365.282	3.84
365.491	4.26
365.7	4.66
365.909	4.98
366.118	7.14
366.327	7.54
366.536	7.9
366.745	7.84
366.954	8.09
367.162	6.86
367.371	6.2
367.58	5.15
367.789	5.42
367.998	5.01
368.207	5.86
368.415	4.17
368.624	4.38
368.833	4.32
369.042	3.36
369.25	4.55
369.459	5.72
369.668	5.02
369.877	5.03
370.085	4.48
370.294	4.38
370.503	3.6
370.711	4.7
370.92	4.27
371.129	4.01
371.337	4.16
371.546	4.43
371.754	4.53
371.963	4.75
372.171	4.7
372.38	3.69
372.589	4.04
372.797	5.24
373.006	4.33
373.214	3.01
373.423	2.74
373.631	3.86
373.84	4.9
374.048	4.81
374.256	6.81
374.465	6.14
374.673	6.22
374.882	5.7
375.09	3.94
375.298	4.78
375.507	8.35
375.715	8.26
375.923	8.46
376.132	6.76
376.34	6.76
376.548	5.12
376.757	5.64
376.965	6.37
377.173	6.96
377.381	7.88
377.59	7.53
377.798	5.08
378.006	5.91
378.214	4.81
378.423	5.27
378.631	5.98
378.839	6.18
379.047	6.68
379.255	6.13
379.463	7.85
379.671	6.48
379.879	7.41
380.088	8.52
380.296	9.14
380.504	8.56
380.712	9.59
380.92	9.02
381.128	10.2
381.336	9.53
381.544	9.58
381.752	6.61
381.96	8.59
382.168	7.34
382.376	6.74
382.584	5.62
382.791	5
382.999	3.59
383.207	3.04
383.415	2.1
383.623	3.1
383.831	2.7
384.039	4.1
384.247	2.63
384.454	4.58
384.662	4.39
384.87	5.08
385.078	6.49
385.285	7
385.493	7.07
385.701	7.36
385.909	5.72
386.116	6.54
386.324	6.32
386.532	7.64
386.739	6.72
386.947	5.19
387.155	4.25
387.362	3.37
387.57	2.91
387.778	3.51
387.985	2.48
388.193	3.87
388.4	2.56
388.608	2.93
388.816	1.48
389.023	1.86
389.231	3.11
389.438	2.5
389.646	1.97
389.853	1.73
390.061	0.77
390.268	1.29
390.475	2.15
390.683	3.27
390.89	2.82
391.098	3.81
391.305	2.63
391.512	2.94
391.72	2.84
391.927	4.43
392.135	4.54
392.342	5.37
392.549	5.15
392.756	4.77
392.964	4.93
393.171	3.82
393.378	3.68
393.586	3.81
393.793	3.69
394	3.97
394.207	2.95
394.414	3.24
394.622	2.76
394.829	2.02
395.036	1.1
395.243	-0.26
395.45	0.75
395.657	0.68
395.864	0.8
396.072	0.74
396.279	1.18
396.486	1.23
396.693	1.22
396.9	1.09
397.107	1.09
397.314	1.63
397.521	3.27
397.728	2.85
397.935	1.35
398.142	0.89
398.349	0.78
398.556	0.86
398.763	2.38
398.97	1.92
399.177	2.69
399.383	3.91
399.59	3.15
399.797	2.54
400.004	3.11
400.211	3.75
400.418	5.06
400.625	4.67
400.831	4.17
401.038	2.41
401.245	1.78
401.452	0.77
401.658	-0.01
401.865	0.75
402.072	-0.22
402.279	0.29
402.485	0.38
402.692	-0.3
402.899	-0.91
403.105	-0.09
403.312	0.78
403.519	1.22
403.725	1.05
403.932	1.11
404.138	0.07
404.345	1.85
404.552	1.33
404.758	1.26
404.965	0.88
405.171	1.47
405.378	1.36
405.584	1.57
405.791	2.28
405.997	2.65
406.204	3.18
406.41	3.24
406.617	2.65
406.823	2.79
407.029	3.68
407.236	3.71
407.442	3.02
407.649	1.66
407.855	1.92
408.061	1.12
408.268	1.49
408.474	2.61
408.68	3.01
408.887	3.29
409.093	2.95
409.299	1.79
409.505	2.76
409.712	3.34
409.918	4.34
410.124	3.49
410.33	3.09
410.537	3
410.743	2.11
410.949	2.49
411.155	2.25
411.361	3.21
411.567	3.87
411.773	3.87
411.98	4.69
412.186	4.22
412.392	4.89
412.598	5.57
412.804	5.99
413.01	5.65
413.216	5.05
413.422	4.22
413.628	3.07
413.834	2.46
414.04	1.64
414.246	1.22
414.452	1.53
414.658	1.33
414.864	1.03
415.07	1.36
415.275	0.92
415.481	1.17
415.687	0.69
415.893	0.69
416.099	1.27
416.305	1.59
416.511	2.33
416.716	2.13
416.922	1.4
417.128	1.68
417.334	1.07
417.539	1.68
417.745	1.77
417.951	2.33
418.157	2.66
418.362	2.14
418.568	2.58
418.774	1.8
418.979	1.46
419.185	2.18
419.391	2.17
419.596	2.26
419.802	2.32
420.008	1.94
420.213	1.95
420.419	1.89
420.624	2.07
420.83	1.61
421.035	1.68
421.241	2.42
421.446	2.03
421.652	2.26
421.857	2.18
422.063	1.88
422.268	2.26
422.474	2.04
422.679	2.48
422.885	2.53
423.09	2.38
423.295	2.81
423.501	2.05
423.706	2
423.911	2.14
424.117	2.09
424.322	1.85
424.527	1.77
424.733	2.03
424.938	1.53
425.143	1.28
425.349	1.29
425.554	1.07
425.759	1.91
425.964	2.04
426.169	1.52
426.375	1.57
426.58	1.77
426.785	1.57
426.99	1.24
427.195	1.21
427.4	1.84
427.605	1.6
427.811	2.02
428.016	1.6
428.221	1.37
428.426	1.6
428.631	1.22
428.836	1.57
429.041	2.14
429.246	1.93
429.451	1.64
429.656	1.53
429.861	1.94
430.066	1.1
430.271	1.3
430.476	1.32
430.681	1.26
430.886	1.42
431.09	1.24
431.295	1.11
431.5	1.35
431.705	1.54
431.91	1.45
432.115	1.6
432.32	1.53
432.524	1.42
432.729	1.34
432.934	1.45
433.139	1.65
433.343	1.71
433.548	1.3
433.753	0.95
433.958	1.82
434.162	1.68
434.367	1.9
434.572	1.69
434.776	1.53
434.981	1.61
435.186	2.03
435.39	1.95
435.595	1.54
435.799	2.21
436.004	2.43
436.209	1.7
436.413	1.52
436.618	1.02
436.822	1.45
437.027	1
437.231	1.59
437.436	0.92
437.64	0.41
437.845	0.57
438.049	0.31
438.253	0.81
438.458	0.51
438.662	0.81
438.867	1.1
439.071	0.59
439.275	1.23
439.48	0.92
439.684	0.89
439.888	0.76
440.093	1
440.297	1.08
440.501	1.26
440.706	1.15
440.91	1.01
441.114	0.99
441.318	1.16
441.523	0.93
441.727	1.13
441.931	1.53
442.135	2.25
442.339	2.06
442.543	2.58
442.748	2.52
442.952	2.93
443.156	2.68
443.36	2.52
443.564	2.61
443.768	2.34
443.972	1.39
444.176	1.6
444.38	1.56
444.584	1.46
444.788	0.68
444.992	0.16
445.196	-0.01
445.4	0.26
445.604	0.41
445.808	0.63
446.012	0.94
446.216	1.22
446.42	1.03
446.624	0.71
446.828	0.49
447.032	0.73
447.235	1.02
447.439	1.08
447.643	1.34
447.847	0.87
448.051	0.52
448.254	0.41
448.458	1.26
448.662	1.13
448.866	1.28
449.069	1.42
449.273	1.21
449.477	0.71
449.681	1.04
449.884	0.55
450.088	0.57
450.292	0.89
450.495	0.69
450.699	0.32
450.902	0.63
451.106	1.14
451.31	1.75
451.513	1.54
451.717	1.94
451.92	0.78
452.124	0.76
452.327	1.3
452.531	1.02
452.734	1.12
452.938	0.72
453.141	0.49
453.345	0.43
453.548	0.45
453.752	0.63
453.955	0.61
454.158	1.56
454.362	1.27
454.565	1.26
454.769	2.07
454.972	2.14
455.175	2.11
455.379	1.83
455.582	1.4
455.785	0.64
455.988	0.7
456.192	0.56
456.395	0.18
456.598	1.28
456.801	1.2
457.005	0.25
457.208	0.59
457.411	0.84
457.614	1.06
457.817	1.08
458.021	1.39
458.224	1.31
458.427	1.83
458.63	2.02
458.833	1.26
459.036	0.81
459.239	1.12
459.442	0.79
459.645	0.64
459.848	0.46
460.051	0.61
460.254	0.81
460.457	0.85
460.66	0.03
460.863	0.26
461.066	0.59
461.269	1.21
461.472	1.4
461.675	1.11
461.878	1.37
462.081	2.01
462.284	1.43
462.486	1.08
462.689	1.29
462.892	1.71
463.095	1.43
463.298	1.09
463.5	0.79
463.703	-0.19
463.906	0.47
464.109	-0.02
464.311	-0.49
464.514	0.04
464.717	0.11
464.92	0.31
465.122	0.29
465.325	0.54
465.528	1.21
465.73	1.03
465.933	1.92
466.135	1.34
466.338	1.97
466.541	1.45
466.743	1.44
466.946	1
467.148	1.18
467.351	1.02
467.553	0.6
467.756	0.37
467.958	0.44
468.161	0.39
468.363	0.7
468.566	-0.01
468.768	0.59
468.971	0.41
469.173	1.36
469.375	1.19
469.578	0.79
469.78	0.67
469.983	-0.03
470.185	0.23
470.387	-0.01
470.59	0.33
470.792	0.78
470.994	0.62
471.196	0.77
471.399	0.47
471.601	0.25
471.803	1.36
472.005	1.56
472.208	2.09
472.41	2.06
472.612	2.04
472.814	1.71
473.016	1.15
473.218	1.21
473.421	1.68
473.623	1.47
473.825	1.63
474.027	1.33
474.229	1.5
474.431	1.27
474.633	2
474.835	2.33
475.037	2.51
475.239	3.04
475.441	2.93
475.643	2.44
475.845	2.25
476.047	2.36
476.249	1.93
476.451	2.73
476.653	3.11
476.855	2.39
477.057	2.33
477.258	2.18
477.46	2.06
477.662	2.73
477.864	2.7
478.066	2.61
478.268	2.4
478.469	2.44
478.671	1.67
478.873	1.46
479.075	1.36
479.276	1.74
479.478	1.79
479.68	1.36
479.882	0.68
480.083	1.12
480.285	1.23
480.487	1.06
480.688	1.27
480.89	0.88
481.091	0.86
481.293	0.87
481.495	0.55
481.696	0.34
481.898	0.76
482.099	0.92
482.301	0.65
482.502	0.8
482.704	1.08
482.905	1.07
483.107	1.33
483.308	1.38
483.51	1.35
483.711	1.44
483.913	1.5
484.114	1.43
484.315	1.48
484.517	1.68
484.718	1.74
484.92	1.74
485.121	1.65
485.322	1.56
485.524	1.65
485.725	1.67
485.926	1.58
486.127	1.89
486.329	1.9
486.53	1.78
486.731	1.56
486.932	1.23
487.134	1.09
487.335	1.18
487.536	1.21
487.737	1.13
487.938	1.33
488.139	1.3
488.341	1.07
488.542	1.12
488.743	1.01
488.944	0.98
489.145	1.23
489.346	1.29
489.547	1.14
489.748	1.2
489.949	1.07
490.15	0.97
490.351	1.05
490.552	1.1
490.753	1.12
490.954	1.07
491.155	1.36
491.356	1.3
491.557	1.34
491.758	1.53
491.959	1.6
492.159	1.74
492.36	1.65
492.561	1.46
492.762	1.43
492.963	1.05
493.164	1.51
493.364	1.21
493.565	1.75
493.766	1.4
493.967	1.47
494.167	1.16
494.368	1.34
494.569	1.08
494.769	1.63
494.97	1.79
495.171	2.17
495.371	1.78
495.572	1.67
495.773	1.31
495.973	1.41
496.174	0.93
496.375	0.95
496.575	1.08
496.776	1.32
496.976	1.04
497.177	0.97
497.377	0.93
497.578	0.97
497.778	1.16
497.979	0.87
498.179	1.14
498.38	1.6
498.58	1.56
498.78	1.52
498.981	1.88
499.181	2.12
499.382	1.95
499.582	2.2
499.782	2.11
499.983	1.94
500.183	2.26
500.383	2.11
500.584	2.35
500.784	2.27
500.984	2.41
501.184	1.61
501.385	1.75
501.585	1.87
501.785	2.01
501.985	2.8
502.185	2.49
502.386	2.59
502.586	2.62
502.786	2.35
502.986	2.33
503.186	1.75
503.386	1.87
503.586	1.34
503.786	1.57
503.987	1.43
504.187	0.63
504.387	1.25
504.587	0.95
504.787	1.2
504.987	1.23
505.187	1.82
505.387	1.99
505.587	2.43
505.786	2.85
505.986	2.38
506.186	1.74
506.386	1.99
506.586	2.06
506.786	2.44
506.986	2.6
507.186	2.39
507.386	2.03
507.585	1.62
507.785	1.73
507.985	1.9
508.185	2.19
508.384	2.43
508.584	2.06
508.784	1.71
508.984	1.82
509.183	1.22
509.383	1.63
509.583	1.58
509.782	2.12
509.982	2.05
510.182	1.86
510.381	2.02
510.581	2.18
510.781	2.58
510.98	2.75
511.18	2.35
511.379	2.45
511.579	1.77
511.778	1.87
511.978	1.73
512.177	1.83
512.377	1.57
512.576	1.38
512.776	1.77
512.975	1.44
513.175	1.32
513.374	1.37
513.573	1.35
513.773	1.81
513.972	2.22
514.172	2.4
514.371	2.21
514.57	2.32
514.77	2.25
514.969	2.08
515.168	2.59
515.367	2.77
515.567	2.74
515.766	2.88
515.965	2.72
516.164	2.51
516.364	2.49
516.563	2.61
516.762	2.99
516.961	3.32
517.16	3.09
517.359	3.18
517.559	3.01
517.758	3.17
517.957	3.39
518.156	3.63
518.355	3.73
518.554	3.84
518.753	3.62
518.952	3.68
519.151	3.43
519.35	3.85
519.549	3.69
519.748	4.29
519.947	4.24
520.146	3.96
520.345	3.85
520.544	3.84
520.743	3.54
520.942	4.09
521.141	3.75
521.339	4.14
521.538	3.52
521.737	3.72
521.936	3.55
522.135	3.61
522.333	3.85
522.532	3.97
522.731	4.3
522.93	4.51
523.129	4.16
523.327	4.29
523.526	3.97
523.725	4.32
523.923	4.31
524.122	3.87
524.321	4.14
524.519	4.34
524.718	4.5
524.917	4.24
525.115	4.23
525.314	4.05
525.512	3.94
525.711	4.01
525.909	4.11
526.108	3.91
526.306	3.86
526.505	3.97
526.703	3.7
526.902	3.63
527.1	3.51
527.299	3.55
527.497	3.75
527.696	3.9
527.894	3.89
528.092	3.83
528.291	4.05
528.489	4.28
528.688	4.14
528.886	4.41
529.084	4.39
529.283	4.39
529.481	4.33
529.679	4.37
529.877	4.3
530.076	4.5
530.274	4.61
530.472	4.35
530.67	4.17
530.869	4.11
531.067	3.93
531.265	3.97
531.463	4.24
531.661	4.54
531.859	4.24
532.057	4.58
532.255	4.34
532.454	4.37
532.652	4.65
532.85	4.77
533.048	4.82
533.246	4.87
533.444	4.94
533.642	5.05
533.84	5.1
534.038	5.4
534.236	5.31
534.434	5.6
534.632	5.8
534.83	5.82
535.027	6.01
535.225	6.12
535.423	5.83
535.621	5.74
535.819	5.75
536.017	5.74
536.215	5.76
536.412	5.83
536.61	5.83
536.808	5.73
537.006	5.49
537.203	5.69
537.401	5.59
537.599	6.47
537.797	6.62
537.994	6.63
538.192	6.64
538.39	7.14
538.587	7.1
538.785	6.69
538.983	6.6
539.18	6.89
539.378	6.78
539.575	6.84
539.773	6.19
539.97	6.44
540.168	6.45
540.366	6.21
540.563	5.98
540.761	5.95
540.958	6.29
541.155	6.34
541.353	6.34
541.55	6.13
541.748	6.37
541.945	6.49
542.143	6.48
542.34	6.22
542.537	6.26
542.735	6.22
542.932	5.91
543.129	5.76
543.327	6.09
543.524	6.13
543.721	6.21
543.919	6.14
544.116	6.11
544.313	5.92
544.51	6.31
544.708	6.58
544.905	6.75
545.102	7.29
545.299	7.52
545.496	7.12
545.693	6.67
545.891	6.78
546.088	6.53
546.285	6.85
546.482	6.94
546.679	6.95
546.876	7.26
547.073	7.48
547.27	7.12
547.467	7.22
547.664	7.28
547.861	7.77
548.058	8.01
548.255	8.11
548.452	8.28
548.649	8.54
548.846	8.28
549.043	7.79
549.24	7.8
549.437	8.75
549.633	8.53
549.83	8.5
550.027	8.5
550.224	8.6
550.421	8.54
550.618	8.1
550.814	7.52
551.011	7.97
551.208	8.26
551.405	8.13
551.601	7.37
551.798	7.55
551.995	7.68
552.191	7.48
552.388	7.33
552.585	7.34
552.781	7.9
552.978	8.14
553.175	8.45
553.371	8.6
553.568	9.23
553.764	9.47
553.961	9.24
554.157	9.46
554.354	9.78
554.55	9.8
554.747	10.87
554.943	11.08
555.14	11.08
555.336	10.97
555.533	10.32
555.729	10.19
555.926	10.15
556.122	10.6
556.318	10.47
556.515	10.84
556.711	10.99
556.907	9.79
557.104	9.78
557.3	10.39
557.496	10.34
557.693	10.74
557.889	9.84
558.085	9.73
558.281	9.1
558.478	8.79
558.674	8.45
558.87	8.63
559.066	8.91
559.262	8.41
559.459	8.32
559.655	8.62
559.851	8.66
560.047	8.45
560.243	8.75
560.439	8.77
560.635	9.02
560.831	8.75
561.027	8.47
561.223	8.86
561.419	8.66
561.615	8.48
561.811	7.74
562.007	7.9
562.203	8.59
562.399	8.64
562.595	9.62
562.791	9.5
562.987	10.1
563.183	10.63
563.379	10.32
563.575	10.36
563.771	9.71
563.966	10.18
564.162	10.05
564.358	10.59
564.554	10.3
564.75	9.55
564.945	10.07
565.141	10.25
565.337	10
565.533	10.03
565.728	10.16
565.924	11.02
566.12	10.93
566.315	10.89
566.511	10.51
566.707	10.91
566.902	11.45
567.098	11.01
567.293	10.29
567.489	10.56
567.684	10.71
567.88	10.55
568.076	9.77
568.271	9.74
568.467	10.22
568.662	10.19
568.858	10.08
569.053	9.7
569.248	9.86
569.444	10.61
569.639	10.5
569.835	10.35
570.03	10.96
570.225	11.54
570.421	11.9
570.616	11.96
570.812	11.74
571.007	11.46
571.202	11.16
571.397	11.63
571.593	10.96
571.788	10.92
571.983	10.94
572.178	10.92
572.374	10.87
572.569	10.73
572.764	10.54
572.959	11.26
573.154	11.36
573.35	11.71
573.545	11.57
573.74	11.9
573.935	11.75
574.13	11.55
574.325	11.63
574.52	11.65
574.715	11.84
574.91	12.16
575.105	11.68
575.3	11.77
575.495	12
575.69	11.85
575.885	12.03
576.08	11.93
576.275	12.83
576.47	12.48
576.665	12.62
576.86	12.62
577.055	11.81
577.25	12.26
577.444	12.5
577.639	12.4
577.834	11.84
578.029	12.06
578.224	11.86
578.418	11.77
578.613	11.95
578.808	11.78
579.003	11.69
579.197	12.54
579.392	12.7
579.587	12.97
579.781	13.26
579.976	14.28
580.171	14.22
580.365	15.11
580.56	15.5
580.755	15.18
580.949	15.13
581.144	15
581.338	14.65
581.533	14.15
581.727	13.28
581.922	13.2
582.116	13.55
582.311	13.59
582.505	13.24
582.7	12.91
582.894	13.16
583.089	13.14
583.283	12.26
583.478	11.75
583.672	11.6
583.866	11.63
584.061	11.01
584.255	10.26
584.449	10.44
584.644	9.76
584.838	9.64
585.032	9.51
585.226	9.74
585.421	10.53
585.615	10.91
585.809	10.56
586.003	10.58
586.198	10.97
586.392	11.27
586.586	10.94
586.78	11.45
586.974	10.85
587.168	11.42
587.363	11.69
587.557	12.07
587.751	12.33
587.945	12.94
588.139	13.8
588.333	13.64
588.527	13.2
588.721	12.63
588.915	12.76
589.109	13.17
589.303	13.07
589.497	12.8
589.691	12.73
589.885	12.75
590.079	13.26
590.273	12.54
590.466	12.56
590.66	12.78
590.854	13.26
591.048	13.09
591.242	13.48
591.436	12.88
591.629	12.52
591.823	12.62
592.017	12.61
592.211	12.24
592.404	12.44
592.598	13
592.792	13.1
592.986	13.2
593.179	13.96
593.373	14.21
593.567	15
593.76	14.93
593.954	14.66
594.147	14.77
594.341	14.58
594.535	14.92
594.728	14.53
594.922	14.03
595.115	14.54
595.309	13.92
595.502	13.58
595.696	12.73
595.889	12.94
596.083	12.98
596.276	13.04
596.47	13.24
596.663	13.39
596.856	14
597.05	14.07
597.243	13.76
597.437	13.4
597.63	12.87
597.823	13.13
598.017	13.98
598.21	14.12
598.403	13.84
598.596	13.57
598.79	13.02
598.983	13.03
599.176	13.08
599.369	13.08
599.563	13.65
599.756	14.29
599.949	14.18
600.142	13.66
600.335	13.62
600.528	13.84
600.722	14.56
600.915	15.23
601.108	14.88
601.301	15.45
601.494	15.69
601.687	15.03
601.88	15.05
602.073	14.5
602.266	14.5
602.459	14.67
602.652	14.59
602.845	13.89
603.038	13.55
603.231	13.27
603.424	12.85
603.617	12.41
603.809	13.24
604.002	12.84
604.195	13.54
604.388	13.56
604.581	14.13
604.774	14.61
604.966	14.2
605.159	14.26
605.352	14.6
605.545	14.93
605.737	15
605.93	15.01
606.123	15.34
606.316	15.39
606.508	15.19
606.701	14.41
606.894	14.25
607.086	15.1
607.279	14.8
607.471	15.27
607.664	14.99
607.857	14.35
608.049	14.26
608.242	14.36
608.434	14.59
608.627	14.53
608.819	14.34
609.012	14.23
609.204	13.92
609.397	14.45
609.589	14.21
609.782	14.91
609.974	15.44
610.166	15.31
610.359	15.12
610.551	14.98
610.743	15.23
610.936	16.04
611.128	15.92
611.32	15.86
611.513	14.87
611.705	15.33
611.897	15.13
612.09	15.82
612.282	16.1
612.474	16.94
612.666	16.78
612.858	15.97
613.051	15.63
613.243	15.54
613.435	15.23
613.627	16.16
613.819	15.69
614.011	15.44
614.203	14.58
614.395	14.5
614.588	13.26
614.78	14.07
614.972	14.16
615.164	14.04
615.356	14.52
615.548	14.92
615.74	14.56
615.932	14.07
616.124	14.08
616.315	15.19
616.507	14.67
616.699	14.89
616.891	13.49
617.083	14.2
617.275	13.98
617.467	13.46
617.659	14.12
617.85	13.68
618.042	13.37
618.234	13.84
618.426	13.9
618.618	14.27
618.809	14.36
619.001	14.75
619.193	14.88
619.384	15.39
619.576	15.91
619.768	16.54
619.959	16.74
620.151	17.56
620.343	16.81
620.534	16.59
620.726	15.48
620.917	15.81
621.109	16.54
621.301	16.1
621.492	15.19
621.684	14.55
621.875	12.68
622.067	12.67
622.258	11.97
622.45	11.65
622.641	12.04
622.832	13.95
623.024	14.65
623.215	14.37
623.407	14.93
623.598	15.42
623.789	15.62
623.981	16.08
624.172	16.88
624.363	16.44
624.555	16.72
624.746	16.66
624.937	16.84
625.129	16.04
625.32	15.89
625.511	15.64
625.702	16.23
625.893	15.89
626.085	16.69
626.276	16.42
626.467	17.29
626.658	17.12
626.849	16.25
627.04	15.78
627.231	15.95
627.422	16.39
627.614	16.29
627.805	15.78
627.996	17.13
628.187	16.75
628.378	16.74
628.569	16.06
628.76	16.92
628.951	18.22
629.142	18.14
629.332	18.22
629.523	18.23
629.714	17.63
629.905	17.98
630.096	17.47
630.287	17.16
630.478	17.76
630.669	18.6
630.859	18.09
631.05	18.46
631.241	18.36
631.432	18.02
631.623	17.4
631.813	17.96
632.004	16.99
632.195	16.62
632.385	17.55
632.576	17.93
632.767	18.5
632.957	19.39
633.148	18.98
633.339	18.8
633.529	19.04
633.72	19.37
633.91	19.71
634.101	20.3
634.292	20.9
634.482	20.55
634.673	19.55
634.863	18.14
635.054	17.36
635.244	17.32
635.435	17.51
635.625	18.18
635.815	19.07
636.006	18.86
636.196	18.66
636.387	17.64
636.577	17.12
636.767	16.94
636.958	17.94
637.148	19.14
637.338	17.96
637.529	17.94
637.719	17.7
637.909	17.25
638.099	16.8
638.29	18.47
638.48	17.56
638.67	17.92
638.86	19.29
639.05	19.59
639.241	17.85
639.431	18.51
639.621	19.42
639.811	18.4
640.001	17.86
640.191	18.44
640.381	17.12
640.571	19
640.761	18.71
640.951	17.71
641.141	17.05
641.331	18.3
641.521	17.84
641.711	17.16
641.901	16.91
642.091	15.9
642.281	15.57
642.471	15.47
642.661	14.21
642.851	15.91
643.041	16.47
643.231	15.84
643.42	16.75
643.61	16.58
643.8	16.13
643.99	17.21
644.18	18.68
644.369	19.93
644.559	20
644.749	20.34
644.939	19.79
645.128	19.81
645.318	20.79
645.508	19.86
645.697	20.73
645.887	21.37
646.076	22.82
646.266	21.94
646.456	22.4
646.645	22.19
646.835	23.44
647.024	23.09
647.214	22.47
647.403	21.55
647.593	20.96
647.782	20.39
647.972	20.3
648.161	19.04
648.351	20.73
648.54	20.39
648.73	20.23
648.919	19.97
649.108	19.52
649.298	20.31
649.487	20.79
649.677	20.55
649.866	21.4
650.055	22.1
650.244	21.82
650.434	21.73
650.623	21.32
650.812	21.33
651.002	21.04
651.191	20.62
651.38	19.71
651.569	19.31
651.758	18.88
651.947	18.52
652.137	18.4
652.326	17.46
652.515	15.9
652.704	15.77
652.893	15.98
653.082	16.47
653.271	16.54
653.46	17.89
653.649	18.04
653.838	19.02
654.027	18.8
654.216	17.99
654.405	19.68
654.594	19.51
654.783	19.76
654.972	19.75
655.161	18.62
655.35	19.42
655.539	18.04
655.728	17.87
655.916	18.48
656.105	18.17
656.294	17.87
656.483	18.07
656.672	18.62
656.86	19.1
657.049	18.47
657.238	18.67
657.427	19.34
657.615	19.47
657.804	19.83
657.993	18.36
658.181	18.13
658.37	19.22
658.559	18.23
658.747	18.62
658.936	18.04
659.125	19.95
659.313	19.78
659.502	18.71
659.69	19.6
659.879	19.66
660.067	20.69
660.256	22.42
660.444	22.49
660.633	23.06
660.821	23.52
661.01	22.48
661.198	20.32
661.387	21.51
661.575	22.15
661.763	21.21
661.952	22.26
662.14	21.38
662.328	19.43
662.517	18.73
662.705	18.8
662.893	18.87
663.082	20.09
663.27	21.12
663.458	19.43
663.646	19.37
663.834	18.97
664.023	17.93
664.211	18.38
664.399	18.57
664.587	18.54
664.775	18.71
664.963	18.83
665.152	19.54
665.34	19.76
665.528	20.86
665.716	22.67
665.904	23.41
666.092	24.39
666.28	25.75
666.468	25.94
666.656	26.54
666.844	26.42
667.032	26.38
667.22	25.74
667.408	24.86
667.596	24.58
667.784	23.16
667.971	23.11
668.159	22.1
668.347	21.35
668.535	22.16
668.723	21.76
668.911	21.84
669.098	21.03
669.286	21.34
669.474	23.5
669.662	22.9
669.849	21.57
670.037	20.6
670.225	19.98
670.413	21.14
670.6	19.86
670.788	20.23
670.976	19.85
671.163	20.02
671.351	19.15
671.538	18.54
671.726	19.93
671.913	20.79
672.101	21.93
672.289	23.41
672.476	22.11
672.664	23.62
672.851	22.8
673.039	22.01
673.226	21.11
673.413	22.17
673.601	20.91
673.788	20.51
673.976	20.77
674.163	20.47
674.35	20.21
674.538	20.76
674.725	20.25
674.912	20.44
675.1	20.8
675.287	22.08
675.474	21.41
675.662	21.63
675.849	20.62
676.036	20.53
676.223	20.6
676.411	20.26
676.598	19.9
676.785	19.63
676.972	19.97
677.159	21.2
677.346	21.91
677.533	22.76
677.721	22.62
677.908	22.42
678.095	23.16
678.282	23
678.469	22.74
678.656	22.25
678.843	22.1
679.03	22.78
679.217	22.89
679.404	21.64
679.591	20.68
679.778	20.62
679.964	21.86
680.151	21.4
680.338	21.98
680.525	21.47
680.712	21.91
680.899	22.3
681.086	20.6
681.272	19.45
681.459	18.55
681.646	19.16
681.833	19.8
682.02	19.42
682.206	18.95
682.393	18.53
682.58	19.66
682.766	19.59
682.953	19.51
683.14	20.84
683.326	21.23
683.513	22.41
683.7	22.05
683.886	20.38
684.073	19.56
684.259	20.05
684.446	20.54
684.632	20.06
684.819	20.27
685.005	20.15
685.192	20.22
685.378	20.99
685.565	21.22
685.751	21.59
685.938	23.5
686.124	24.39
686.31	24.63
686.497	24.35
686.683	25.27
686.87	24.8
687.056	24.88
687.242	25.23
687.429	23.32
687.615	22.79
687.801	21.84
687.987	20.18
688.174	20.87
688.36	20.26
688.546	21
688.732	20.07
688.918	21.63
689.105	21.34
689.291	20.71
689.477	20.76
689.663	22.85
689.849	24.17
690.035	24.6
690.221	25.22
690.407	26.17
690.593	25.99
690.779	26.38
690.965	24.42
691.151	24.69
691.337	25.02
691.523	24.79
691.709	23.69
691.895	23.29
692.081	24.71
692.267	23.63
692.453	22.34
692.639	21.96
692.825	22.34
693.011	23.68
693.196	23.06
693.382	21.76
693.568	24
693.754	22.67
693.94	23.95
694.125	23.47
694.311	22.92
694.497	22.12
694.682	21.99
694.868	21.31
695.054	22.03
695.239	23.09
695.425	23.81
695.611	23.34
695.796	23.23
695.982	22.44
696.168	21.42
696.353	21.91
696.539	23.92
696.724	23.85
696.91	25.11
697.095	22.85
697.281	22.36
697.466	23.25
697.652	23.02
697.837	23.42
698.023	22.35
698.208	22.1
698.393	21.99
698.579	21.11
698.764	20.07
698.949	19.68
699.135	21.35
699.32	21.75
699.505	21.29
699.691	21.01
699.876	21.14
700.061	24.11
700.246	25.36
700.432	25.53
700.617	26.58
700.802	28.82
700.987	28.15
701.172	27.23
701.358	27.28
701.543	27.03
701.728	29.12
701.913	27.68
702.098	24.9
702.283	24.28
702.468	22.26
702.653	24.37
702.838	22.98
703.023	23.47
703.208	24.63
703.393	23.9
703.578	22.84
703.763	22.47
703.948	25.34
704.133	26.23
704.318	27.11
704.503	27.67
704.688	24.32
704.873	24.34
705.057	24.9
705.242	24.3
705.427	25.35
705.612	26.72
705.797	27.17
705.981	27.67
706.166	26.42
706.351	26.08
706.536	27.69
706.72	27.93
706.905	27.14
707.09	26.98
707.274	26.1
707.459	25.91
707.644	27.02
707.828	25.35
708.013	25.35
708.197	26.4
708.382	26.56
708.567	25.92
708.751	25.89
708.936	28.9
709.12	27.97
709.305	29.78
709.489	28.52
709.673	26.89
709.858	27.97
710.042	28.13
710.227	27.79
710.411	27.67
710.596	27.28
710.78	28.38
710.964	26.8
711.149	27.63
711.333	26.48
711.517	27.89
711.702	28.32
711.886	26.62
712.07	24.94
712.254	26.04
712.438	25.09
712.623	25.22
712.807	25.46
712.991	25.07
713.175	25.88
713.359	26.28
713.544	26.36
713.728	25.93
713.912	27.65
714.096	27.66
714.28	27.27
714.464	28.55
714.648	28.35
714.832	27.58
715.016	30.56
715.2	29.32
715.384	29.24
715.568	29.59
715.752	31.04
715.936	29.87
716.12	30.7
716.304	30.07
716.488	29.16
716.671	29.8
716.855	30.34
717.039	30.09
717.223	29.72
717.407	30.31
717.59	30.02
717.774	30.07
717.958	30.7
718.142	28.83
718.325	30.05
718.509	30.63
718.693	30.39
718.877	29.93
719.06	26.62
719.244	29.45
719.428	28.85
719.611	29.09
719.795	28.65
719.978	27.32
720.162	29.99
720.345	29.73
720.529	29.13
720.713	28.54
720.896	28.6
721.08	30.71
721.263	26.89
721.446	29.14
721.63	29.89
721.813	30.92
721.997	33.63
722.18	32.9
722.364	33.1
722.547	33.84
722.73	35.29
722.914	34.71
723.097	34.14
723.28	35.29
723.464	33.57
723.647	33.29
723.83	32.55
724.013	32.35
724.197	32.85
724.38	32.34
724.563	31.01
724.746	30.57
724.929	29.81
725.112	29.21
725.296	28.96
725.479	30.09
725.662	28.8
725.845	29.42
726.028	29.1
726.211	25.38
726.394	25.44
726.577	26.4
726.76	27.5
726.943	29
727.126	29.24
727.309	30.12
727.492	27.8
727.675	28.13
727.858	25.76
728.041	25.63
728.224	27.03
728.407	26.3
728.589	25.69
728.772	24.14
728.955	21.87
729.138	20.64
729.321	19.53
729.503	20.74
729.686	21.72
729.869	21.31
730.052	19.94
730.234	21.72
730.417	22.57
730.6	22.8
730.782	22.49
730.965	24.29
731.148	24.89
731.33	25.81
731.513	26.23
731.695	25.89
731.878	25.64
732.061	25.13
732.243	25.67
732.426	26.28
732.608	26.36
732.791	26.92
732.973	27.32
733.156	29.4
733.338	29.23
733.52	30.7
733.703	29.01
733.885	30.53
734.068	34.28
734.25	33.05
734.432	33.85
734.615	33.79
734.797	36.38
734.979	37.58
735.162	37.04
735.344	36.18
735.526	34.46
735.708	36.81
735.891	37.51
736.073	34.89
736.255	35.58
736.437	34.13
736.619	34.99
736.802	32
736.984	30.62
737.166	30
737.348	31.44
737.53	31.04
737.712	28.72
737.894	27.16
738.076	25.47
738.258	24.77
738.44	24.02
738.622	22.95
738.804	22.57
738.986	19.91
739.168	19.77
739.35	19.85
739.532	16.55
739.714	19.6
739.896	22.74
740.078	25.76
740.259	28.58
740.441	28.36
740.623	30.44
740.805	30.94
740.987	32.76
741.168	32.88
741.35	29.95
741.532	30.48
741.714	28.34
741.895	26.93
742.077	26.76
742.259	23.57
742.44	25.07
742.622	23.75
742.804	24.6
742.985	26.66
743.167	24.72
743.348	27.96
743.53	31.29
743.711	29.87
743.893	30.19
744.075	28.43
744.256	32.6
744.438	29.72
744.619	30.33
744.8	29.02
744.982	30.39
745.163	33.54
745.345	33.4
745.526	33.01
745.707	32.95
745.889	32.12
746.07	33.6
746.252	32.77
746.433	35.96
746.614	33.88
746.795	32.34
746.977	29.01
747.158	23.67
747.339	24.71
747.52	24.18
747.702	27.6
747.883	29.09
748.064	30.71
748.245	31.33
748.426	32.03
748.607	33.78
748.788	36.59
748.97	37.6
749.151	40.83
749.332	41.84
749.513	41.47
749.694	38.92
749.875	36.98
750.056	37.16
750.237	34.4
750.418	34.48
750.599	34.19
750.78	33.7
750.96	31.09
751.141	33.19
751.322	33.23
751.503	33.74
751.684	33.97
751.865	38.55
752.046	35.52
752.226	36.02
752.407	30.82
752.588	27.89
752.769	32.4
752.949	32.88
753.13	35.7
753.311	34.02
753.492	33.4
753.672	37.5
753.853	34.62
754.034	34.75
754.214	32.9
754.395	34.81
754.575	39.54
754.756	34.61
754.937	36.1
755.117	28.47
755.298	32.31
755.478	31.93
755.659	31.07
755.839	30.28
756.02	31.99
756.2	32.45
756.381	32.25
756.561	32.29
756.741	32.07
756.922	30.88
757.102	35.74
757.283	32.58
757.463	34.6
757.643	32.99
757.823	31.22
758.004	30
758.184	29.32
758.364	30.74
758.545	29.8
758.725	28.73
758.905	29.67
759.085	26.6
759.265	26.98
759.446	26.8
759.626	25.1
759.806	25.94
759.986	25.98
760.166	27.13
760.346	26.81
760.526	29.58
760.706	29.68
760.886	32.97
761.066	32.13
761.246	32.31
761.426	31.84
761.606	31.89
761.786	31.4
761.966	31.28
762.146	29.87
762.326	28.78
762.506	26.85
762.686	26.51
762.866	25
763.046	25.96
763.225	26.7
763.405	26.36
763.585	26.66
763.765	27.65
763.945	28.06
764.124	27.45
764.304	27.69
764.484	28.54
764.664	29.94
764.843	30.01
765.023	29.8
765.203	29.2
765.382	29.93
765.562	31.12
765.741	29.46
765.921	30.62
766.101	30.95
766.28	36.33
766.46	35.75
766.639	35.34
766.819	33.74
766.998	35.48
767.178	34.34
767.357	37.35
767.537	36.62
767.716	37.38
767.896	32.96
768.075	34.38
768.254	30.76
768.434	31.75
768.613	31.8
768.792	30.64
768.972	31.83
769.151	33.21
769.33	33.87
769.51	38.07
769.689	39.23
769.868	44.89
770.047	45.94
770.226	45.57
770.406	44.94
770.585	46.52
770.764	53.6
770.943	51.29
771.122	48.05
771.301	41.85
771.48	39.84
771.66	38.36
771.839	38.92
772.018	37.47
772.197	38
772.376	39.49
772.555	41.93
772.734	37.25
772.913	35.58
773.092	38.15
773.271	38.22
773.449	40.46
773.628	42.12
773.807	39.75
773.986	42.99
774.165	44.9
774.344	44.45
774.523	40.83
774.701	40.71
774.88	42.14
775.059	43.44
775.238	47.3
775.417	42.68
775.595	42.38
775.774	45.69
775.953	44.83
776.131	39.61
776.31	39.67
776.489	40.19
776.667	36.88
776.846	38.78
777.025	38.18
777.203	36.65
777.382	36.42
777.56	35.54
777.739	31.34
777.917	31.23
778.096	30.26
778.274	30.54
778.453	33.43
778.631	40.98
778.81	41.04
778.988	42.82
779.166	42.99
779.345	41.54
779.523	44.41
779.702	48.02
779.88	45.27
780.058	43.43
780.237	39.54
780.415	40.89
780.593	39.8
780.771	41.45
780.95	42.02
781.128	41.69
781.306	49.93
781.484	48
781.662	45.86
781.841	43.8
782.019	48.47
782.197	51.79
782.375	49.92
782.553	45.37
782.731	45.3
782.909	42.14
783.087	47.73
783.265	44.34
783.443	44.61
783.621	45.45
783.799	52.4
783.977	51.17
784.155	51.92
784.333	49.39
784.511	53.54
784.689	54.9
784.867	53.79
785.045	46.88
785.223	46.27
785.4	45.14
785.578	44.48
785.756	39.6
785.934	39.52
786.112	39.9
786.289	38.68
786.467	31.05
786.645	27.5
786.823	32.07
787	37.22
787.178	36.56
787.356	37.25
787.533	34.94
787.711	41.12
787.889	40.5
788.066	39.06
788.244	41.27
788.421	47.37
788.599	44.45
788.776	43.77
788.954	41.37
789.131	38.49
789.309	39.73
789.486	36.92
789.664	37.69
789.841	41.39
790.019	37.43
790.196	39.35
790.373	36.68
790.551	43.19
790.728	44.03
790.906	42.56
791.083	55.92
791.26	53.66
791.437	53.07
791.615	49.13
791.792	48.57
791.969	53.71
792.146	55.12
792.324	53.94
792.501	48.33
792.678	48.61
792.855	48.74
793.032	45.44
793.209	45.84
793.387	46.83
793.564	49.03
793.741	44.84
793.918	39.17
794.095	36.08
794.272	37.84
794.449	40.72
794.626	40.46
794.803	45.59
794.98	41.32
795.157	41.98
795.334	45.67
795.511	39.73
795.688	38.39
795.864	45.18
796.041	44.77
796.218	45.42
796.395	44.18
796.572	44.92
796.749	42.8
796.925	42.08
797.102	42.71
797.279	44.15
797.456	43.92
797.632	44.98
797.809	41.49
797.986	40.29
798.162	39.17
798.339	37.75
798.516	35.97
798.692	32.05
798.869	31.55
799.046	35.1
799.222	34.85
799.399	38.09
799.575	38.49
799.752	38.93
799.928	40.68
800.105	37.78
800.281	37.55
800.458	37.39
800.634	39.4
800.811	45.09
800.987	43.1
801.163	40.41
801.34	43.27
801.516	47.25
801.692	48.24
801.869	52.03
802.045	48.8
802.221	52.51
802.398	51.24
802.574	52.76
802.75	48.14
802.926	43.54
803.103	48.1
803.279	49.14
803.455	48.98
803.631	45.73
803.807	43.84
803.983	44.49
804.16	41.74
804.336	40.71
804.512	40.88
804.688	43.05
804.864	41.6
805.04	39.94
805.216	41.36
805.392	41.06
805.568	41.43
805.744	39.97
805.92	44.04
806.096	42.06
806.272	39.09
806.448	35.37
806.623	37.31
806.799	43.23
806.975	38.47
807.151	35.35
807.327	39.43
807.503	43.01
807.678	42.13
807.854	42.07
808.03	48.24
808.206	51.22
808.381	51.22
808.557	45.19
808.733	45
808.908	46.2
809.084	44.5
809.26	37.49
809.435	38.86
809.611	35.14
809.787	36.19
809.962	37.71
810.138	38.2
810.313	39.56
810.489	43.48
810.664	43.39
810.84	49.81
811.015	47.95
811.191	51.02
811.366	47.98
811.542	57.69
811.717	59.22
811.892	54.16
812.068	58.74
812.243	56.28
812.419	51.29
812.594	48.02
812.769	39.6
812.944	42.83
813.12	42.62
813.295	42.35
813.47	39.6
813.645	32.82
813.821	32.74
813.996	29.57
814.171	27.69
814.346	34.59
814.521	37.22
814.697	39.21
814.872	40.37
815.047	35.04
815.222	34.53
815.397	31.51
815.572	37.13
815.747	35.31
815.922	36.82
816.097	38
816.272	38.51
816.447	41.31
816.622	40.06
816.797	38.97
816.972	40.46
817.147	44.08
817.322	46.58
817.496	50.65
817.671	43.45
817.846	35.82
818.021	36.64
818.196	37.47
818.371	38.21
818.545	37.92
818.72	35.9
818.895	34.46
819.069	31.76
819.244	31.72
819.419	28.66
819.594	34.54
819.768	36.41
819.943	34.91
820.117	29.23
820.292	26.42
820.467	27.33
820.641	26.78
820.816	26.43
820.99	25.26
821.165	23.25
821.339	22.41
821.514	21.52
821.688	21.37
821.863	21.72
822.037	22.88
822.212	22.01
822.386	22.07
822.56	22.01
822.735	21.49
822.909	20.55
823.084	22.11
823.258	21.29
823.432	21.34
823.606	20.85
823.781	19.54
823.955	18.54
824.129	19.8
824.303	17.41
824.478	16.65
824.652	17.89
824.826	20.58
825	18.77
825.174	20.6
825.348	21.24
825.523	22.27
825.697	22.12
825.871	24.04
826.045	22.44
826.219	22.74
826.393	22.78
826.567	24.52
826.741	23.25
826.915	23.65
827.089	22.84
827.263	20.96
827.437	20.91
827.611	24.15
827.784	20.76
827.958	19.34
828.132	21.46
828.306	24.15
828.48	21.44
828.654	22.95
828.827	22.44
829.001	23.66
829.175	29.18
829.349	31.88
829.522	25.75
829.696	30.71
829.87	36.28
830.044	37.95
830.217	39.87
830.391	39.09
830.565	36.05
830.738	38.55
830.912	39.68
831.085	37.76
831.259	31.81
831.432	39.68
831.606	38.98
831.779	41.15
831.953	35.49
832.126	34.28
832.3	33.99
832.473	33.14
832.647	32.87
832.82	31.54
832.994	28.2
833.167	27.78
833.34	23.23
833.514	23.94
833.687	23.14
833.86	25.78
834.034	23.91
834.207	23.18
834.38	25.95
834.553	24.95
834.727	24.33
834.9	27.57
835.073	32.12
835.246	32.65
835.419	31.78
835.593	31.67
835.766	34.24
835.939	33.92
836.112	41.53
836.285	43.01
836.458	44.7
836.631	47.86
836.804	48.64
836.977	48.96
837.15	46.6
837.323	55.63
837.496	59.84
837.669	42.49
837.842	41.81
838.015	33.88
838.188	35.83
838.361	41.91
838.533	40.65
838.706	43.86
838.879	43.38
839.052	46.76
839.225	44.99
839.398	50.58
839.57	60.89
839.743	63.9
839.916	62.28
840.088	56.94
840.261	52.28
840.434	54.09
840.607	52.33
840.779	57.84
840.952	62.08
841.124	60.01
841.297	57.07
841.47	56.99
841.642	56.42
841.815	62.72
841.987	64.02
842.16	74.05
842.332	74.33
842.505	82.28
842.677	68.04
842.85	71.11
843.022	62.37
843.194	67.3
843.367	65.77
843.539	66.9
843.712	64.43
843.884	65.42
844.056	57.55
844.229	48.44
844.401	38.47
844.573	39.09
844.745	26.07
844.918	33.86
845.09	38.77
845.262	48.87
845.434	41.37
845.606	27.15
845.779	32.98
845.951	32.92
846.123	40.92
846.295	41.86
846.467	53.3
846.639	61.76
846.811	55.27
846.983	46.67
847.155	50.37
847.327	53.94
847.499	47.59
847.671	47.83
847.843	42.39
848.015	45.45
848.187	52.3
848.359	31.44
848.531	34.95
848.703	46.23
848.875	43.5
849.047	34.83
849.218	39.41
849.39	52.29
849.562	40.8
849.734	47.99
849.905	48.45
850.077	37.99
850.249	50.85
850.421	52.24
850.592	58.14
850.764	67.51
850.936	71.59
851.107	116.67
851.279	97.28
851.451	127.42
851.622	158.61
851.794	125.27
851.965	131.21
852.137	122.11
852.308	117.93
852.48	95.24
852.651	85.36
852.823	85.11
852.994	56.8
853.166	62.42
853.337	67.97
853.509	47.95
853.68	49.94
853.851	59.38
854.023	68.97
854.194	50.76
854.365	63.35
854.537	76.43
854.708	74.14
854.879	86.08
855.05	84.51
855.222	62.13
855.393	68.9
855.564	66.93
855.735	71.39
855.906	73.3
856.078	82.35
856.249	79.22
856.42	81.07
856.591	77.83
856.762	68.16
856.933	59.27
857.104	67.94
857.275	66.52
857.446	73.59
857.617	79.86
857.788	71.06
857.959	66.34
858.13	71.7
858.301	60.33
858.472	60.53
858.643	69.01
858.814	69.06
858.985	69.22
859.155	60.74
859.326	44.33
859.497	32.05
859.668	43.62
859.839	25.26
860.009	9.32
860.18	20.38
860.351	32.89
860.522	39.9
860.692	33.76
860.863	43.88
861.034	66.87
861.204	122.41
861.375	80.04
861.546	32.75
861.716	68.08
861.887	69.02
862.057	70.44
862.228	75.93
862.398	64.59
862.569	84.65
862.739	67.15
862.91	63.18
863.08	56.73
863.251	69.13
863.421	82.26
863.592	80.48
863.762	78.23
863.932	68.28
864.103	54.95
864.273	46.14
864.443	46.06
864.614	50.98
864.784	61.04
864.954	67.73
865.125	48.35
865.295	39.69
865.465	14.57
865.635	19.23
865.805	60.05
865.976	76.26
866.146	93.58
866.316	76.69
866.486	75.8
866.656	74.02
866.826	75.64
866.996	90.32
867.166	99
867.336	129.33
867.506	114.72
867.676	84.13
867.846	94.12
868.016	51.64
868.186	74.39
868.356	80.12
868.526	69.56
868.696	68.2
868.866	-13.39
869.036	16.9
869.206	3.75
869.376	-21.98
869.545	15.12
869.715	-0.88
869.885	40.67
870.055	51.59
870.224	62.72
870.394	70.51
870.564	67.97
870.734	70.36
870.903	66.68
871.073	83.7
871.243	89.49
871.412	88.04
871.582	90.51
871.751	66.52
871.921	58.69
872.091	65.75
872.26	59.52
872.43	62.66
872.599	68.1
872.769	76.38
872.938	69.5
873.108	78.6
873.277	91.01
873.446	63.49
873.616	56.56
873.785	61.01
873.955	58.4
874.124	57.5
874.293	55.42
874.463	58.94
874.632	58.48
874.801	52.43
874.971	46.07
875.14	27.23
875.309	47.6
875.478	49.06
875.647	39.48
875.817	35.58
875.986	41.13
876.155	50.11
876.324	44.92
876.493	52.38
876.662	62.2
876.831	49.61
877	58.75
877.17	65.21
877.339	59.61
877.508	59.58
877.677	56.87
877.846	59.76
878.015	48.24
878.184	48
878.352	41.34
878.521	27.6
878.69	32.38
878.859	28.35
879.028	29.87
879.197	32.95
879.366	39.75
879.534	36.66
879.703	32.45
879.872	25.52
880.041	22.5
880.21	17.2
880.378	31.59
880.547	31.41
880.716	27.74
880.884	25.51
881.053	27
881.222	24.1
881.39	23.23
881.559	22.83
881.727	22.2
881.896	21.92
882.065	23.91
882.233	19.74
882.402	19.77
882.57	18.17
882.739	19.17
882.907	19.22
883.076	19.02
883.244	19.85
883.412	19.12
883.581	18.92
883.749	19.38
883.918	18.01
884.086	17.49
884.254	18.12
884.423	26.71
884.591	25.88
884.759	29.55
884.927	28.19
885.096	27.44
885.264	31.74
885.432	38.17
885.6	44.24
885.769	46.09
885.937	51.41
886.105	47.01
886.273	36.95
886.441	36.47
886.609	20.24
886.777	28.29
886.945	29.75
887.113	16.64
887.281	-25.33
887.449	-24.18
887.617	-3.46
887.785	-12.82
887.953	1.36
888.121	-24.26
888.289	-36.84
888.457	-27.92
888.625	-50.48
888.793	-29.1
888.961	-16.78
889.129	20.66
889.296	34.16
889.464	25.37
889.632	34.37
889.8	33.82
889.967	47.22
890.135	36.93
