Data from JASIL_2931_Reflection_2.txt Node
Date: Sat Nov 07 20:50:43 EST 2015
User: Geneva
Spectrometer: USB4E03002
Autoset integration time: false
Trigger mode: 4
Integration Time (sec): 1.000000E-1
Scans to average: 10
Electric dark correction enabled: true
Nonlinearity correction enabled: false
Boxcar width: 5
Stray light correction enabled: false
XAxis mode: Wavelengths
Stop averaging: false
Number of Pixels in Spectrum: 3648
>>>>>Begin Spectral Data<<<<<
177.575	-36.06
177.794	13.54
178.014	-42.12
178.233	80.95
178.452	64.73
178.672	127.73
178.891	101.89
179.11	0
179.33	815.69
179.549	-139.49
179.768	-61.99
179.987	-216.45
180.207	76.13
180.426	77.61
180.645	73.25
180.864	76.12
181.084	80.28
181.303	51.54
181.522	49.85
181.741	63.52
181.96	64
182.179	62.71
182.398	63.5
182.618	49.16
182.837	41.05
183.056	48.13
183.275	37.48
183.494	53.62
183.713	85.96
183.932	89.45
184.151	96.6
184.37	80.31
184.589	59.64
184.808	61.7
185.027	67.07
185.246	68.81
185.465	63.63
185.684	62.96
185.903	59.72
186.122	56.85
186.341	59.62
186.56	56.1
186.779	59.37
186.998	57.05
187.216	63.91
187.435	66.17
187.654	61.23
187.873	59.89
188.092	59.4
188.311	54.54
188.53	63.22
188.748	63.58
188.967	55.76
189.186	64.54
189.405	76.34
189.623	74.69
189.842	72.69
190.061	68.84
190.28	59.59
190.498	68.41
190.717	47.71
190.936	29.34
191.154	20.86
191.373	33.4
191.592	9.25
191.81	14.13
192.029	24.17
192.248	-4.04
192.466	19.01
192.685	25.29
192.904	19.68
193.122	29.49
193.341	26.75
193.559	33.14
193.778	32.23
193.996	36.4
194.215	33.55
194.433	33.91
194.652	37.14
194.87	33.56
195.089	46.2
195.307	51.39
195.526	58.78
195.744	65.42
195.963	67.49
196.181	65.51
196.399	55.21
196.618	66.93
196.836	51.13
197.055	46.85
197.273	63.14
197.491	69.42
197.71	85.91
197.928	85.06
198.146	91.92
198.365	78.68
198.583	92.63
198.801	101.1
199.019	88.5
199.238	110.63
199.456	114.35
199.674	74.37
199.892	56.47
200.111	18.57
200.329	32.61
200.547	16.86
200.765	15.73
200.983	11.35
201.202	15.59
201.42	35.7
201.638	18.75
201.856	23.42
202.074	45.6
202.292	47.26
202.51	58.55
202.728	57.42
202.946	42.46
203.165	49.4
203.383	51.42
203.601	53.79
203.819	55.93
204.037	52.22
204.255	54.52
204.473	56.77
204.691	47.24
204.909	40.52
205.127	46.73
205.345	52.56
205.562	49.87
205.78	48.91
205.998	44.74
206.216	36.19
206.434	37.35
206.652	42.8
206.87	43.34
207.088	47.72
207.306	54.94
207.523	52.3
207.741	55.02
207.959	58.52
208.177	53.78
208.395	35.89
208.612	58.03
208.83	59.99
209.048	31.8
209.266	19.73
209.483	20.88
209.701	-2.85
209.919	-9.09
210.136	-2.64
210.354	19.18
210.572	30.38
210.79	49.09
211.007	48.44
211.225	42.97
211.442	50.54
211.66	47.35
211.878	40.89
212.095	50.31
212.313	51.7
212.53	41.04
212.748	32.02
212.966	23.99
213.183	16.39
213.401	16.13
213.618	25.61
213.836	27.61
214.053	22.71
214.271	32.95
214.488	27.84
214.705	25.29
214.923	28.44
215.14	32.15
215.358	35.81
215.575	44.25
215.793	42.38
216.01	26.38
216.227	21.73
216.445	23.35
216.662	15.45
216.879	16.56
217.097	15.12
217.314	21.23
217.531	17.48
217.749	10.77
217.966	6.34
218.183	7.02
218.4	10.25
218.618	6.75
218.835	10.75
219.052	17.77
219.269	16.21
219.487	12.88
219.704	7.58
219.921	7.78
220.138	15.91
220.355	16.85
220.572	15.28
220.79	14.03
221.007	19.47
221.224	22.8
221.441	18.96
221.658	15.61
221.875	21.2
222.092	21.89
222.309	23.55
222.526	19.22
222.743	17.86
222.96	14.5
223.177	16.12
223.394	13.33
223.611	10.48
223.828	11.81
224.045	13.23
224.262	10.83
224.479	12.55
224.696	11.61
224.913	12.2
225.13	14.29
225.347	14.49
225.564	12.66
225.781	10.71
225.997	11.5
226.214	10.67
226.431	10.8
226.648	10.19
226.865	10.04
227.082	9.65
227.298	9.92
227.515	8.27
227.732	7.85
227.949	7.98
228.165	8.34
228.382	7.46
228.599	7.11
228.816	7.07
229.032	6.6
229.249	6.38
229.466	6.45
229.682	5.46
229.899	6.94
230.116	8.13
230.332	9.09
230.549	10.8
230.765	11.93
230.982	13.71
231.199	14.6
231.415	15.26
231.632	15.51
231.848	16.48
232.065	17.44
232.281	17.25
232.498	16.78
232.714	16.1
232.931	14.11
233.147	13.84
233.364	12.41
233.58	12.9
233.797	13.25
234.013	12.83
234.23	12.75
234.446	12.8
234.662	13.59
234.879	14.55
235.095	14.31
235.312	14.79
235.528	14.85
235.744	14.7
235.961	13.59
236.177	13.48
236.393	13.47
236.61	12.83
236.826	12.15
237.042	11.05
237.258	10.55
237.475	11.27
237.691	12.1
237.907	11.99
238.123	11.88
238.339	11.67
238.556	11.04
238.772	10.21
238.988	10.29
239.204	10.7
239.42	10.31
239.636	9.31
239.853	8.92
240.069	8.06
240.285	8.15
240.501	8.23
240.717	8.1
240.933	8.45
241.149	8.84
241.365	8.79
241.581	8.6
241.797	8.62
242.013	8.47
242.229	8.68
242.445	8.73
242.661	8.55
242.877	8.64
243.093	8.8
243.309	8.84
243.525	8.78
243.741	8.62
243.957	8.66
244.173	8.93
244.388	8.62
244.604	8.31
244.82	8.39
245.036	7.65
245.252	7.42
245.468	7.11
245.683	6.93
245.899	6.98
246.115	7.07
246.331	7.15
246.547	6.87
246.762	6.96
246.978	6.99
247.194	6.7
247.409	6.95
247.625	6.86
247.841	6.88
248.057	7
248.272	7.01
248.488	6.94
248.703	6.63
248.919	6.77
249.135	6.84
249.35	6.76
249.566	6.88
249.782	6.91
249.997	7.45
250.213	7.69
250.428	7.66
250.644	7.12
250.859	7.05
251.075	7.11
251.29	7.08
251.506	7
251.721	7.02
251.937	7.11
252.152	6.94
252.368	6.64
252.583	6.52
252.798	6.12
253.014	6.4
253.229	6.36
253.445	6
253.66	5.81
253.875	5.65
254.091	5.01
254.306	5
254.521	5.31
254.737	5.51
254.952	5.75
255.167	6.05
255.383	5.97
255.598	6.24
255.813	6.5
256.028	6.39
256.244	7.19
256.459	6.99
256.674	6.94
256.889	6.82
257.104	6.81
257.32	6.56
257.535	6.21
257.75	6.23
257.965	6.11
258.18	6.23
258.395	6.04
258.61	5.65
258.826	5.89
259.041	5.84
259.256	5.72
259.471	5.64
259.686	5.74
259.901	5.94
260.116	5.97
260.331	5.92
260.546	5.76
260.761	5.88
260.976	6.16
261.191	5.89
261.406	5.69
261.621	5.98
261.836	5.8
262.05	5.62
262.265	5.19
262.48	5.01
262.695	5.01
262.91	5.31
263.125	5.01
263.34	4.86
263.555	5.49
263.769	5.58
263.984	5.64
264.199	5.97
264.414	5.92
264.629	6.13
264.843	6.1
265.058	5.9
265.273	5.71
265.488	6
265.702	5.92
265.917	5.73
266.132	5.87
266.346	6.02
266.561	5.9
266.776	5.95
266.99	6.15
267.205	6.02
267.42	5.97
267.634	5.91
267.849	5.72
268.063	5.65
268.278	5.49
268.492	5.4
268.707	5.17
268.922	4.98
269.136	5.04
269.351	4.79
269.565	5.06
269.78	5.11
269.994	4.94
270.209	5.04
270.423	5.48
270.637	5.32
270.852	5.39
271.066	5.33
271.281	5.44
271.495	5.45
271.709	5.54
271.924	5.44
272.138	5.39
272.353	5.62
272.567	5.47
272.781	5.07
272.996	5.08
273.21	4.94
273.424	4.88
273.638	4.88
273.853	4.73
274.067	4.51
274.281	4.48
274.495	4.6
274.71	4.41
274.924	4.6
275.138	4.69
275.352	4.98
275.566	5.1
275.781	5.25
275.995	5.51
276.209	5.68
276.423	5.56
276.637	5.43
276.851	5.29
277.065	5.4
277.279	5.34
277.493	5.48
277.707	5.02
277.921	5.14
278.135	5.09
278.349	4.72
278.563	4.51
278.777	4.56
278.991	4.71
279.205	4.91
279.419	4.95
279.633	5.12
279.847	4.93
280.061	5.2
280.275	5.11
280.489	5.09
280.703	5.18
280.917	5.05
281.131	5.31
281.344	5.17
281.558	4.97
281.772	4.89
281.986	4.75
282.2	4.79
282.414	4.81
282.627	4.8
282.841	4.7
283.055	4.62
283.269	4.6
283.482	4.45
283.696	4.53
283.91	4.67
284.123	4.7
284.337	4.52
284.551	4.55
284.764	4.34
284.978	4.43
285.192	4.24
285.405	4.34
285.619	4.37
285.833	4.27
286.046	4.23
286.26	4.13
286.473	3.85
286.687	3.98
286.9	3.76
287.114	3.62
287.327	3.58
287.541	3.92
287.754	3.62
287.968	3.53
288.181	3.67
288.395	3.82
288.608	3.95
288.822	4.12
289.035	4.28
289.248	4.45
289.462	4.84
289.675	4.67
289.889	4.38
290.102	4.65
290.315	4.73
290.529	4.81
290.742	4.52
290.955	4.39
291.169	4.57
291.382	4.41
291.595	4.26
291.808	3.9
292.022	3.99
292.235	4.16
292.448	4.25
292.661	4.34
292.875	4.35
293.088	4.4
293.301	4.29
293.514	4.14
293.727	4.26
293.94	4.35
294.153	4.58
294.367	4.49
294.58	4.4
294.793	4.06
295.006	3.98
295.219	3.94
295.432	4.06
295.645	4.12
295.858	4.02
296.071	3.98
296.284	3.85
296.497	3.81
296.71	3.86
296.923	4.03
297.136	4.17
297.349	4.22
297.562	4.07
297.775	4.14
297.988	4.24
298.201	4.24
298.414	4.09
298.626	4.22
298.839	4.29
299.052	4.33
299.265	4.03
299.478	4.17
299.691	3.96
299.903	4
300.116	3.89
300.329	3.83
300.542	3.9
300.755	3.89
300.967	4.05
301.18	4
301.393	3.9
301.605	4
301.818	3.72
302.031	4.01
302.243	4.09
302.456	4.21
302.669	4.04
302.881	4.09
303.094	4.13
303.307	4.28
303.519	4.43
303.732	4.54
303.944	4.75
304.157	4.64
304.37	4.72
304.582	4.72
304.795	4.56
305.007	4.67
305.22	4.64
305.432	4.67
305.645	4.41
305.857	4.41
306.069	4.41
306.282	4.28
306.494	4.59
306.707	4.46
306.919	4.56
307.132	4.51
307.344	4.43
307.556	4.55
307.769	4.73
307.981	4.84
308.193	4.84
308.406	4.59
308.618	4.63
308.83	4.51
309.043	4.48
309.255	4.36
309.467	4.6
309.679	4.73
309.892	4.66
310.104	4.62
310.316	4.46
310.528	4.3
310.74	4.6
310.953	4.67
311.165	4.75
311.377	4.66
311.589	4.65
311.801	4.45
312.013	4.46
312.225	4.67
312.437	4.7
312.649	4.83
312.862	5.02
313.074	4.97
313.286	4.84
313.498	4.94
313.71	5.23
313.922	5.42
314.134	5.58
314.346	5.68
314.558	5.55
314.77	5.52
314.982	5.26
315.193	5.26
315.405	4.93
315.617	4.89
315.829	4.76
316.041	4.74
316.253	4.68
316.465	4.76
316.677	4.73
316.888	4.71
317.1	4.83
317.312	5.24
317.524	5.22
317.736	5.54
317.947	5.87
318.159	5.9
318.371	5.77
318.583	5.8
318.794	5.71
319.006	5.78
319.218	5.74
319.43	5.52
319.641	5.39
319.853	5.36
320.064	5.4
320.276	5.34
320.488	5.4
320.699	5.56
320.911	5.72
321.123	6
321.334	5.91
321.546	5.86
321.757	6.19
321.969	6.21
322.18	6.24
322.392	6.11
322.603	6.05
322.815	6.23
323.026	6.33
323.238	6.25
323.449	6.28
323.661	6.25
323.872	6.51
324.083	6.58
324.295	6.55
324.506	6.6
324.718	6.7
324.929	7.03
325.14	7.21
325.352	7.14
325.563	7.43
325.774	7.3
325.986	7.41
326.197	7.36
326.408	7.3
326.62	7.5
326.831	7.76
327.042	7.97
327.253	7.9
327.464	7.9
327.676	7.96
327.887	7.93
328.098	8.23
328.309	8.32
328.52	8.55
328.732	8.79
328.943	9.05
329.154	9.2
329.365	9.35
329.576	9.61
329.787	9.69
329.998	9.94
330.209	10.04
330.42	10.02
330.631	10.19
330.842	10.17
331.053	10.29
331.264	10.27
331.475	10.39
331.686	10.55
331.897	10.61
332.108	10.66
332.319	10.63
332.53	10.82
332.741	10.93
332.952	10.9
333.163	11.24
333.374	11.32
333.585	11.27
333.795	11.32
334.006	11.16
334.217	11.04
334.428	10.95
334.639	11.03
334.849	10.98
335.06	11.04
335.271	11.14
335.482	10.94
335.692	10.82
335.903	10.76
336.114	10.54
336.325	10.8
336.535	10.79
336.746	10.85
336.957	10.92
337.167	10.88
337.378	10.8
337.589	10.76
337.799	10.82
338.01	10.95
338.22	11.25
338.431	11.41
338.642	11.4
338.852	11.32
339.063	11.28
339.273	11.28
339.484	11.33
339.694	11.49
339.905	11.48
340.115	11.17
340.326	11.12
340.536	11.12
340.746	10.98
340.957	10.84
341.167	10.91
341.378	11
341.588	11.17
341.799	11.09
342.009	10.96
342.219	11.01
342.43	11.33
342.64	11.35
342.85	11.24
343.061	11.36
343.271	11.33
343.481	11.44
343.691	11.36
343.902	11.12
344.112	11.03
344.322	11.06
344.532	11.09
344.743	11.1
344.953	10.94
345.163	11.02
345.373	10.93
345.583	11.01
345.793	10.88
346.004	10.89
346.214	10.95
346.424	11.18
346.634	11.18
346.844	11.33
347.054	11.23
347.264	11.54
347.474	11.41
347.684	11.28
347.894	11.37
348.104	11.33
348.314	11.33
348.524	11.41
348.734	11.31
348.944	11.36
349.154	11.19
349.364	11.16
349.574	11.12
349.784	11.14
349.994	11.29
350.204	11.08
350.413	11.11
350.623	11.07
350.833	10.89
351.043	10.88
351.253	10.88
351.463	10.81
351.672	10.72
351.882	10.6
352.092	10.54
352.302	10.4
352.511	10.48
352.721	10.54
352.931	10.55
353.141	10.67
353.35	10.59
353.56	10.47
353.77	10.57
353.979	10.74
354.189	10.62
354.399	10.72
354.608	10.79
354.818	10.79
355.027	10.69
355.237	10.73
355.447	10.61
355.656	10.6
355.866	10.65
356.075	10.52
356.285	10.43
356.494	10.47
356.704	10.37
356.913	10.43
357.123	10.35
357.332	10.31
357.542	10.41
357.751	10.4
357.96	10.44
358.17	10.42
358.379	10.49
358.589	10.58
358.798	10.52
359.007	10.51
359.217	10.26
359.426	10.28
359.635	10.22
359.845	10.03
360.054	10
360.263	9.85
360.472	9.77
360.682	9.74
360.891	9.66
361.1	9.64
361.309	9.63
361.519	9.68
361.728	9.76
361.937	9.87
362.146	9.9
362.355	9.98
362.564	10.06
362.774	10.14
362.983	10.14
363.192	10.16
363.401	10.19
363.61	10.2
363.819	10.27
364.028	10.19
364.237	10.12
364.446	10.2
364.655	10.18
364.864	10.11
365.073	10.23
365.282	10.15
365.491	10.12
365.7	10.24
365.909	10.17
366.118	10.26
366.327	10.24
366.536	10.23
366.745	10.2
366.954	10.1
367.162	10.18
367.371	9.95
367.58	10
367.789	9.94
367.998	9.85
368.207	9.92
368.415	9.88
368.624	9.82
368.833	9.84
369.042	9.83
369.25	9.88
369.459	9.89
369.668	9.86
369.877	9.88
370.085	9.92
370.294	9.88
370.503	9.9
370.711	9.83
370.92	9.79
371.129	9.79
371.337	9.72
371.546	9.5
371.754	9.46
371.963	9.49
372.171	9.46
372.38	9.37
372.589	9.4
372.797	9.31
373.006	9.21
373.214	9.13
373.423	9.05
373.631	9.09
373.84	9.47
374.048	9.43
374.256	9.39
374.465	9.32
374.673	9.35
374.882	9.17
375.09	9.14
375.298	9.21
375.507	9.26
375.715	9.24
375.923	9.07
376.132	8.91
376.34	8.82
376.548	8.82
376.757	8.88
376.965	8.88
377.173	9.07
377.381	9.15
377.59	9.06
377.798	9.1
378.006	9.17
378.214	9.35
378.423	9.41
378.631	9.54
378.839	9.55
379.047	9.45
379.255	9.36
379.463	9.19
379.671	9.01
379.879	9.04
380.088	8.98
380.296	8.98
380.504	8.96
380.712	8.81
380.92	8.89
381.128	8.79
381.336	8.85
381.544	8.83
381.752	8.95
381.96	8.99
382.168	8.96
382.376	8.96
382.584	8.9
382.791	8.81
382.999	8.81
383.207	8.64
383.415	8.65
383.623	8.6
383.831	8.57
384.039	8.46
384.247	8.42
384.454	8.43
384.662	8.48
384.87	8.48
385.078	8.51
385.285	8.56
385.493	8.63
385.701	8.68
385.909	8.73
386.116	8.8
386.324	8.86
386.532	8.83
386.739	8.73
386.947	8.61
387.155	8.48
387.362	8.5
387.57	8.56
387.778	8.52
387.985	8.59
388.193	8.63
388.4	8.65
388.608	8.56
388.816	8.61
389.023	8.68
389.231	8.71
389.438	8.71
389.646	8.5
389.853	8.39
390.061	8.27
390.268	8.19
390.475	8.07
390.683	7.95
390.89	7.97
391.098	7.93
391.305	7.96
391.512	7.87
391.72	7.95
391.927	7.97
392.135	7.95
392.342	7.99
392.549	7.93
392.756	7.88
392.964	7.9
393.171	7.88
393.378	7.85
393.586	7.8
393.793	7.89
394	7.76
394.207	7.8
394.414	7.81
394.622	7.88
394.829	7.89
395.036	7.82
395.243	7.84
395.45	7.87
395.657	7.91
395.864	7.85
396.072	7.83
396.279	7.84
396.486	7.76
396.693	7.84
396.9	7.75
397.107	7.67
397.314	7.61
397.521	7.64
397.728	7.51
397.935	7.57
398.142	7.6
398.349	7.61
398.556	7.66
398.763	7.73
398.97	7.61
399.177	7.64
399.383	7.73
399.59	7.85
399.797	7.78
400.004	7.82
400.211	7.65
400.418	7.63
400.625	7.57
400.831	7.49
401.038	7.44
401.245	7.35
401.452	7.2
401.658	7.2
401.865	7.25
402.072	7.23
402.279	7.23
402.485	7.26
402.692	7.2
402.899	7.15
403.105	7.23
403.312	7.26
403.519	7.27
403.725	7.36
403.932	7.34
404.138	7.3
404.345	7.24
404.552	7.21
404.758	7.19
404.965	7.11
405.171	7.14
405.378	7.03
405.584	7.03
405.791	7.07
405.997	7.06
406.204	7.01
406.41	6.96
406.617	7
406.823	7.01
407.029	7.05
407.236	7.19
407.442	7.16
407.649	7.27
407.855	7.34
408.061	7.37
408.268	7.36
408.474	7.27
408.68	7.36
408.887	7.31
409.093	7.31
409.299	7.3
409.505	7.3
409.712	7.25
409.918	7.14
410.124	7.02
410.33	7.01
410.537	6.97
410.743	6.99
410.949	6.91
411.155	7
411.361	7.04
411.567	6.96
411.773	6.84
411.98	6.92
412.186	6.92
412.392	6.91
412.598	6.86
412.804	6.92
413.01	6.88
413.216	6.84
413.422	6.76
413.628	6.7
413.834	6.72
414.04	6.75
414.246	6.61
414.452	6.58
414.658	6.56
414.864	6.53
415.07	6.42
415.275	6.49
415.481	6.49
415.687	6.36
415.893	6.33
416.099	6.31
416.305	6.35
416.511	6.42
416.716	6.37
416.922	6.37
417.128	6.32
417.334	6.33
417.539	6.26
417.745	6.23
417.951	6.3
418.157	6.33
418.362	6.31
418.568	6.22
418.774	6.18
418.979	6.16
419.185	6.09
419.391	6.06
419.596	6.04
419.802	6.04
420.008	6
420.213	6.31
420.419	6.23
420.624	6.26
420.83	6.25
421.035	6.22
421.241	6.26
421.446	6.32
421.652	6.33
421.857	6.32
422.063	6.32
422.268	6.33
422.474	6.03
422.679	6.02
422.885	5.99
423.09	5.98
423.295	5.98
423.501	5.91
423.706	5.88
423.911	5.88
424.117	5.9
424.322	5.87
424.527	5.88
424.733	5.85
424.938	5.9
425.143	5.9
425.349	5.92
425.554	5.94
425.759	5.97
425.964	5.95
426.169	5.96
426.375	5.93
426.58	5.92
426.785	5.92
426.99	5.91
427.195	5.87
427.4	5.9
427.605	5.91
427.811	5.94
428.016	6.03
428.221	6.11
428.426	6.13
428.631	6.15
428.836	6.15
429.041	6.12
429.246	6.16
429.451	6.21
429.656	6.14
429.861	6.16
430.066	6.16
430.271	6.08
430.476	5.97
430.681	5.92
430.886	5.92
431.09	5.99
431.295	5.98
431.5	5.95
431.705	5.91
431.91	5.92
432.115	5.92
432.32	5.88
432.524	5.88
432.729	5.93
432.934	5.95
433.139	5.95
433.343	5.93
433.548	5.97
433.753	6.01
433.958	6.02
434.162	6.05
434.367	6.07
434.572	6.05
434.776	6.05
434.981	6.05
435.186	6.06
435.39	6.07
435.595	6.13
435.799	6.08
436.004	6.02
436.209	6.01
436.413	5.94
436.618	5.88
436.822	5.87
437.027	5.83
437.231	5.79
437.436	5.76
437.64	5.72
437.845	5.65
438.049	5.61
438.253	5.59
438.458	5.57
438.662	5.6
438.867	5.62
439.071	5.64
439.275	5.69
439.48	5.69
439.684	5.68
439.888	5.66
440.093	5.62
440.297	5.65
440.501	5.69
440.706	5.74
440.91	5.75
441.114	5.7
441.318	5.72
441.523	5.73
441.727	5.79
441.931	5.84
442.135	5.83
442.339	5.89
442.543	5.9
442.748	5.86
442.952	5.8
443.156	5.74
443.36	5.74
443.564	5.7
443.768	5.65
443.972	5.61
444.176	5.56
444.38	5.62
444.584	5.57
444.788	5.57
444.992	5.54
445.196	5.56
445.4	5.58
445.604	5.58
445.808	5.61
446.012	5.61
446.216	5.59
446.42	5.58
446.624	5.57
446.828	5.57
447.032	5.56
447.235	5.57
447.439	5.58
447.643	5.62
447.847	5.67
448.051	5.64
448.254	5.66
448.458	5.66
448.662	5.68
448.866	5.64
449.069	5.67
449.273	5.71
449.477	5.76
449.681	5.72
449.884	5.7
450.088	5.66
450.292	5.66
450.495	5.69
450.699	5.76
450.902	5.74
451.106	5.74
451.31	5.72
451.513	5.71
451.717	5.66
451.92	5.67
452.124	5.61
452.327	5.6
452.531	5.58
452.734	5.55
452.938	5.53
453.141	5.51
453.345	5.56
453.548	5.58
453.752	5.54
453.955	5.59
454.158	5.59
454.362	5.61
454.565	5.61
454.769	5.64
454.972	5.64
455.175	5.6
455.379	5.61
455.582	5.55
455.785	5.53
455.988	5.59
456.192	5.53
456.395	5.48
456.598	5.51
456.801	5.53
457.005	5.51
457.208	5.46
457.411	5.44
457.614	5.43
457.817	5.42
458.021	5.39
458.224	5.36
458.427	5.38
458.63	5.4
458.833	5.4
459.036	5.4
459.239	5.38
459.442	5.37
459.645	5.4
459.848	5.43
460.051	5.4
460.254	5.39
460.457	5.4
460.66	5.4
460.863	5.43
461.066	5.44
461.269	5.42
461.472	5.47
461.675	5.53
461.878	5.57
462.081	5.55
462.284	5.67
462.486	5.76
462.689	5.76
462.892	5.82
463.095	5.8
463.298	5.76
463.5	5.77
463.703	5.73
463.906	5.74
464.109	5.67
464.311	5.72
464.514	5.67
464.717	5.62
464.92	5.63
465.122	5.61
465.325	5.65
465.528	5.63
465.73	5.58
465.933	5.6
466.135	5.6
466.338	5.62
466.541	5.56
466.743	5.57
466.946	5.59
467.148	5.6
467.351	5.58
467.553	5.53
467.756	5.61
467.958	5.69
468.161	5.69
468.363	5.69
468.566	5.65
468.768	5.64
468.971	5.61
469.173	5.61
469.375	5.59
469.578	5.66
469.78	5.68
469.983	5.64
470.185	5.6
470.387	5.61
470.59	5.56
470.792	5.59
470.994	5.58
471.196	5.59
471.399	5.56
471.601	5.58
471.803	5.52
472.005	5.5
472.208	5.56
472.41	5.51
472.612	5.54
472.814	5.58
473.016	5.64
473.218	5.67
473.421	5.65
473.623	5.65
473.825	5.66
474.027	5.68
474.229	5.68
474.431	5.61
474.633	5.62
474.835	5.6
475.037	5.56
475.239	5.56
475.441	5.54
475.643	5.53
475.845	5.53
476.047	5.52
476.249	5.5
476.451	5.49
476.653	5.52
476.855	5.5
477.057	5.46
477.258	5.49
477.46	5.45
477.662	5.47
477.864	5.52
478.066	5.53
478.268	5.53
478.469	5.55
478.671	5.55
478.873	5.48
479.075	5.48
479.276	5.49
479.478	5.46
479.68	5.43
479.882	5.43
480.083	5.42
480.285	5.4
480.487	5.36
480.688	5.31
480.89	5.32
481.091	5.35
481.293	5.34
481.495	5.31
481.696	5.29
481.898	5.28
482.099	5.25
482.301	5.22
482.502	5.2
482.704	5.2
482.905	5.19
483.107	5.17
483.308	5.17
483.51	5.17
483.711	5.18
483.913	5.17
484.114	5.17
484.315	5.17
484.517	5.18
484.718	5.2
484.92	5.2
485.121	5.2
485.322	5.23
485.524	5.22
485.725	5.23
485.926	5.23
486.127	5.24
486.329	5.24
486.53	5.25
486.731	5.25
486.932	5.26
487.134	5.25
487.335	5.24
487.536	5.25
487.737	5.26
487.938	5.25
488.139	5.24
488.341	5.26
488.542	5.28
488.743	5.27
488.944	5.28
489.145	5.28
489.346	5.29
489.547	5.32
489.748	5.29
489.949	5.29
490.15	5.28
490.351	5.3
490.552	5.31
490.753	5.29
490.954	5.3
491.155	5.27
491.356	5.25
491.557	5.24
491.758	5.27
491.959	5.29
492.159	5.29
492.36	5.32
492.561	5.34
492.762	5.34
492.963	5.35
493.164	5.37
493.364	5.41
493.565	5.44
493.766	5.5
493.967	5.51
494.167	5.53
494.368	5.54
494.569	5.54
494.769	5.5
494.97	5.5
495.171	5.53
495.371	5.54
495.572	5.58
495.773	5.64
495.973	5.58
496.174	5.56
496.375	5.57
496.575	5.58
496.776	5.59
496.976	5.61
497.177	5.66
497.377	5.62
497.578	5.62
497.778	5.62
497.979	5.61
498.179	5.67
498.38	5.71
498.58	5.72
498.78	5.74
498.981	5.76
499.181	5.78
499.382	5.75
499.582	5.82
499.782	5.87
499.983	5.87
500.183	5.88
500.383	5.88
500.584	5.87
500.784	5.85
500.984	5.86
501.184	5.86
501.385	5.87
501.585	5.9
501.785	5.92
501.985	5.9
502.185	5.89
502.386	5.87
502.586	5.89
502.786	5.91
502.986	5.95
503.186	5.99
503.386	6.06
503.586	6.08
503.786	6.09
503.987	6.07
504.187	6.11
504.387	6.16
504.587	6.21
504.787	6.22
504.987	6.25
505.187	6.24
505.387	6.22
505.587	6.23
505.786	6.26
505.986	6.24
506.186	6.24
506.386	6.23
506.586	6.25
506.786	6.27
506.986	6.26
507.186	6.23
507.386	6.27
507.585	6.29
507.785	6.27
507.985	6.26
508.185	6.32
508.384	6.34
508.584	6.34
508.784	6.31
508.984	6.32
509.183	6.35
509.383	6.42
509.583	6.41
509.782	6.4
509.982	6.42
510.182	6.47
510.381	6.44
510.581	6.48
510.781	6.5
510.98	6.57
511.18	6.52
511.379	6.53
511.579	6.54
511.778	6.55
511.978	6.6
512.177	6.62
512.377	6.65
512.576	6.69
512.776	6.7
512.975	6.73
513.175	6.72
513.374	6.78
513.573	6.8
513.773	6.85
513.972	6.89
514.172	6.94
514.371	6.98
514.57	6.95
514.77	6.98
514.969	6.97
515.168	7.01
515.367	7.03
515.567	7.09
515.766	7.12
515.965	7.12
516.164	7.13
516.364	7.11
516.563	7.12
516.762	7.15
516.961	7.16
517.16	7.19
517.359	7.18
517.559	7.2
517.758	7.2
517.957	7.23
518.156	7.23
518.355	7.24
518.554	7.27
518.753	7.29
518.952	7.29
519.151	7.35
519.35	7.4
519.549	7.42
519.748	7.46
519.947	7.51
520.146	7.54
520.345	7.57
520.544	7.6
520.743	7.62
520.942	7.64
521.141	7.67
521.339	7.65
521.538	7.67
521.737	7.73
521.936	7.74
522.135	7.76
522.333	7.75
522.532	7.8
522.731	7.83
522.93	7.82
523.129	7.86
523.327	7.88
523.526	7.88
523.725	7.87
523.923	7.88
524.122	7.89
524.321	7.9
524.519	7.93
524.718	7.9
524.917	7.9
525.115	7.92
525.314	7.94
525.512	7.97
525.711	8.03
525.909	8.03
526.108	8.04
526.306	8.05
526.505	8.04
526.703	8.03
526.902	8.07
527.1	8.07
527.299	8.08
527.497	8.09
527.696	8.11
527.894	8.11
528.092	8.12
528.291	8.13
528.489	8.16
528.688	8.19
528.886	8.23
529.084	8.24
529.283	8.28
529.481	8.33
529.679	8.36
529.877	8.37
530.076	8.4
530.274	8.46
530.472	8.53
530.67	8.55
530.869	8.6
531.067	8.61
531.265	8.65
531.463	8.67
531.661	8.67
531.859	8.68
532.057	8.7
532.255	8.72
532.454	8.73
532.652	8.74
532.85	8.77
533.048	8.77
533.246	8.8
533.444	8.84
533.642	8.88
533.84	8.92
534.038	8.98
534.236	9.06
534.434	9.1
534.632	9.15
534.83	9.14
535.027	9.17
535.225	9.22
535.423	9.26
535.621	9.26
535.819	9.29
536.017	9.31
536.215	9.33
536.412	9.33
536.61	9.37
536.808	9.38
537.006	9.43
537.203	9.5
537.401	9.54
537.599	9.55
537.797	9.61
537.994	9.64
538.192	9.69
538.39	9.73
538.587	9.72
538.785	9.78
538.983	9.84
539.18	9.89
539.378	9.88
539.575	9.91
539.773	9.95
539.97	9.97
540.168	9.97
540.366	9.96
540.563	9.97
540.761	9.99
540.958	10
541.155	9.98
541.353	10
541.55	10.05
541.748	10.05
541.945	10.09
542.143	10.11
542.34	10.15
542.537	10.21
542.735	10.26
542.932	10.34
543.129	10.38
543.327	10.48
543.524	10.53
543.721	10.6
543.919	10.69
544.116	10.72
544.313	10.8
544.51	10.87
544.708	10.93
544.905	10.97
545.102	10.97
545.299	10.99
545.496	11.02
545.693	11.05
545.891	11.03
546.088	11.07
546.285	11.07
546.482	11.08
546.679	11.14
546.876	11.16
547.073	11.19
547.27	11.3
547.467	11.39
547.664	11.41
547.861	11.5
548.058	11.54
548.255	11.59
548.452	11.68
548.649	11.75
548.846	11.78
549.043	11.85
549.24	11.95
549.437	11.95
549.633	11.95
549.83	12.01
550.027	12.04
550.224	12.11
550.421	12.11
550.618	12.18
550.814	12.19
551.011	12.24
551.208	12.29
551.405	12.3
551.601	12.34
551.798	12.42
551.995	12.45
552.191	12.48
552.388	12.48
552.585	12.56
552.781	12.61
552.978	12.66
553.175	12.68
553.371	12.68
553.568	12.69
553.764	12.71
553.961	12.76
554.157	12.83
554.354	12.86
554.55	12.98
554.747	13.01
554.943	13.05
555.14	13.11
555.336	13.17
555.533	13.25
555.729	13.38
555.926	13.44
556.122	13.43
556.318	13.45
556.515	13.48
556.711	13.52
556.907	13.62
557.104	13.65
557.3	13.69
557.496	13.72
557.693	13.79
557.889	13.84
558.085	13.91
558.281	14.01
558.478	14.07
558.674	14.18
558.87	14.21
559.066	14.22
559.262	14.23
559.459	14.28
559.655	14.35
559.851	14.36
560.047	14.31
560.243	14.33
560.439	14.38
560.635	14.43
560.831	14.42
561.027	14.44
561.223	14.48
561.419	14.63
561.615	14.67
561.811	14.63
562.007	14.67
562.203	14.78
562.399	14.84
562.595	14.86
562.791	14.86
562.987	14.9
563.183	14.96
563.379	15.05
563.575	15.01
563.771	15.05
563.966	15.16
564.162	15.18
564.358	15.23
564.554	15.27
564.75	15.31
564.945	15.37
565.141	15.43
565.337	15.47
565.533	15.52
565.728	15.57
565.924	15.61
566.12	15.69
566.315	15.79
566.511	15.84
566.707	15.92
566.902	15.95
567.098	15.98
567.293	16.01
567.489	16.08
567.684	16.05
567.88	16.09
568.076	16.18
568.271	16.2
568.467	16.2
568.662	16.23
568.858	16.23
569.053	16.33
569.248	16.39
569.444	16.37
569.639	16.46
569.835	16.54
570.03	16.57
570.225	16.53
570.421	16.61
570.616	16.61
570.812	16.64
571.007	16.68
571.202	16.65
571.397	16.65
571.593	16.77
571.788	16.76
571.983	16.77
572.178	16.82
572.374	16.87
572.569	16.86
572.764	16.87
572.959	16.84
573.154	16.91
573.35	17
573.545	17.05
573.74	17.04
573.935	17.09
574.13	17.16
574.325	17.15
574.52	17.17
574.715	17.22
574.91	17.33
575.105	17.43
575.3	17.42
575.495	17.41
575.69	17.52
575.885	17.53
576.08	17.5
576.275	17.53
576.47	17.62
576.665	17.72
576.86	17.77
577.055	17.76
577.25	17.8
577.444	17.92
577.639	17.96
577.834	17.96
578.029	18.1
578.224	18.13
578.418	18.2
578.613	18.17
578.808	18.16
579.003	18.17
579.197	18.3
579.392	18.3
579.587	18.28
579.781	18.27
579.976	18.3
580.171	18.28
580.365	18.39
580.56	18.35
580.755	18.43
580.949	18.47
581.144	18.49
581.338	18.5
581.533	18.52
581.727	18.6
581.922	18.67
582.116	18.72
582.311	18.68
582.505	18.7
582.7	18.75
582.894	18.73
583.089	18.74
583.283	18.79
583.478	18.78
583.672	18.87
583.866	18.83
584.061	18.95
584.255	18.96
584.449	19.03
584.644	19.04
584.838	19.02
585.032	19.09
585.226	19.06
585.421	19.07
585.615	19.09
585.809	19.11
586.003	19.11
586.198	19.04
586.392	19.01
586.586	19
586.78	19.06
586.974	19.16
587.168	19.23
587.363	19.27
587.557	19.28
587.751	19.34
587.945	19.29
588.139	19.25
588.333	19.25
588.527	19.34
588.721	19.42
588.915	19.43
589.109	19.35
589.303	19.27
589.497	19.35
589.691	19.32
589.885	19.3
590.079	19.36
590.273	19.42
590.466	19.51
590.66	19.5
590.854	19.48
591.048	19.44
591.242	19.5
591.436	19.55
591.629	19.5
591.823	19.61
592.017	19.56
592.211	19.49
592.404	19.54
592.598	19.5
592.792	19.51
592.986	19.54
593.179	19.57
593.373	19.59
593.567	19.6
593.76	19.65
593.954	19.6
594.147	19.72
594.341	19.8
594.535	19.83
594.728	19.8
594.922	19.81
595.115	19.79
595.309	19.83
595.502	19.84
595.696	19.82
595.889	19.82
596.083	19.8
596.276	19.73
596.47	19.75
596.663	19.72
596.856	19.74
597.05	19.73
597.243	19.79
597.437	19.78
597.63	19.82
597.823	19.89
598.017	19.92
598.21	19.95
598.403	20.03
598.596	20.05
598.79	20.12
598.983	20.19
599.176	20.22
599.369	20.2
599.563	20.21
599.756	20.19
599.949	20.12
600.142	20.09
600.335	20.14
600.528	20.07
600.722	20.07
600.915	20.03
601.108	20.05
601.301	20.07
601.494	20.03
601.687	20.02
601.88	20.01
602.073	20.05
602.266	20.01
602.459	20.01
602.652	20.01
602.845	20
603.038	20.04
603.231	19.95
603.424	19.91
603.617	19.9
603.809	19.85
604.002	19.89
604.195	19.93
604.388	19.99
604.581	19.99
604.774	20.02
604.966	20.04
605.159	20.05
605.352	20.17
605.545	20.24
605.737	20.33
605.93	20.38
606.123	20.33
606.316	20.37
606.508	20.37
606.701	20.44
606.894	20.5
607.086	20.55
607.279	20.49
607.471	20.43
607.664	20.36
607.857	20.43
608.049	20.5
608.242	20.6
608.434	20.57
608.627	20.73
608.819	20.73
609.012	20.75
609.204	20.78
609.397	20.86
609.589	20.93
609.782	21.05
609.974	21.09
610.166	21.2
610.359	21.24
610.551	21.29
610.743	21.3
610.936	21.31
611.128	21.36
611.32	21.4
611.513	21.46
611.705	21.58
611.897	21.58
612.09	21.52
612.282	21.46
612.474	21.4
612.666	21.39
612.858	21.29
613.051	21.25
613.243	21.17
613.435	21.22
613.627	21.15
613.819	21.06
614.011	20.98
614.203	20.97
614.395	20.93
614.588	20.88
614.78	20.9
614.972	20.81
615.164	20.73
615.356	20.69
615.548	20.59
615.74	20.62
615.932	20.61
616.124	20.63
616.315	20.59
616.507	20.51
616.699	20.59
616.891	20.58
617.083	20.67
617.275	20.81
617.467	20.82
617.659	20.83
617.85	20.79
618.042	20.8
618.234	20.8
618.426	20.85
618.618	20.95
618.809	20.93
619.001	20.94
619.193	20.95
619.384	20.88
619.576	20.93
619.768	21.01
619.959	20.96
620.151	21.02
620.343	21.05
620.534	21.05
620.726	21.04
620.917	21.13
621.109	21.09
621.301	21.06
621.492	21.03
621.684	21.02
621.875	20.9
622.067	20.94
622.258	20.83
622.45	20.79
622.641	20.85
622.832	20.85
623.024	20.77
623.215	20.82
623.407	20.78
623.598	20.85
623.789	20.86
623.981	20.81
624.172	20.93
624.363	20.89
624.555	20.9
624.746	20.9
624.937	20.9
625.129	20.84
625.32	20.76
625.511	20.85
625.702	20.81
625.893	20.85
626.085	20.94
626.276	20.86
626.467	20.88
626.658	20.9
626.849	20.85
627.04	20.89
627.231	20.92
627.422	20.99
627.614	20.98
627.805	21.02
627.996	20.95
628.187	20.96
628.378	20.94
628.569	21
628.76	20.96
628.951	20.96
629.142	20.92
629.332	20.95
629.523	20.98
629.714	20.99
629.905	21
630.096	21.01
630.287	21.01
630.478	21.11
630.669	21.1
630.859	21.16
631.05	21.21
631.241	21.27
631.432	21.21
631.623	21.26
631.813	21.19
632.004	21.23
632.195	21.28
632.385	21.23
632.576	21.14
632.767	21.17
632.957	21.19
633.148	21.18
633.339	21.1
633.529	21.14
633.72	21.06
633.91	20.98
634.101	21.04
634.292	20.95
634.482	20.89
634.673	20.88
634.863	20.78
635.054	20.75
635.244	20.73
635.435	20.78
635.625	20.8
635.815	20.84
636.006	21
636.196	20.94
636.387	20.95
636.577	21.04
636.767	20.99
636.958	21.11
637.148	21.04
637.338	21
637.529	21.03
637.719	21
637.909	21.06
638.099	21.05
638.29	21.06
638.48	21.22
638.67	21.22
638.86	21.29
639.05	21.31
639.241	21.4
639.431	21.36
639.621	21.22
639.811	21.28
640.001	21.19
640.191	21.16
640.381	21.12
640.571	21.04
640.761	21.05
640.951	21.07
641.141	21.1
641.331	21.13
641.521	21.16
641.711	21.14
641.901	21.07
642.091	21.09
642.281	21.06
642.471	20.97
642.661	20.95
642.851	21.02
643.041	21.03
643.231	20.94
643.42	20.88
643.61	20.96
643.8	21.04
643.99	21.17
644.18	21.1
644.369	21.12
644.559	21.23
644.749	21.23
644.939	21.16
645.128	21.15
645.318	21.24
645.508	21.26
645.697	21.27
645.887	21.25
646.076	21.22
646.266	21.33
646.456	21.36
646.645	21.32
646.835	21.3
647.024	21.3
647.214	21.28
647.403	21.27
647.593	21.39
647.782	21.43
647.972	21.44
648.161	21.37
648.351	21.33
648.54	21.32
648.73	21.31
648.919	21.45
649.108	21.47
649.298	21.48
649.487	21.51
649.677	21.44
649.866	21.4
650.055	21.48
650.244	21.48
650.434	21.46
650.623	21.44
650.812	21.43
651.002	21.41
651.191	21.45
651.38	21.49
651.569	21.43
651.758	21.42
651.947	21.39
652.137	21.33
652.326	21.33
652.515	21.37
652.704	21.34
652.893	21.42
653.082	21.41
653.271	21.48
653.46	21.49
653.649	21.54
653.838	21.41
654.027	21.37
654.216	21.34
654.405	21.42
654.594	21.38
654.783	21.34
654.972	21.31
655.161	21.23
655.35	21.2
655.539	21.14
655.728	21.07
655.916	21.1
656.105	21.18
656.294	21.28
656.483	21.15
656.672	21.27
656.86	21.24
657.049	21.15
657.238	21.15
657.427	21
657.615	21.06
657.804	21.05
657.993	21.01
658.181	21.02
658.37	20.95
658.559	21.04
658.747	20.95
658.936	20.97
659.125	21.07
659.313	21.04
659.502	21.08
659.69	21.02
659.879	21.01
660.067	21.11
660.256	21.13
660.444	21.23
660.633	21.22
660.821	21.14
661.01	21.22
661.198	21.18
661.387	21.27
661.575	21.37
661.763	21.47
661.952	21.48
662.14	21.51
662.328	21.51
662.517	21.46
662.705	21.5
662.893	21.73
663.082	21.73
663.27	21.68
663.458	21.59
663.646	21.52
663.834	21.55
664.023	21.57
664.211	21.58
664.399	21.55
664.587	21.56
664.775	21.54
664.963	21.49
665.152	21.47
665.34	21.61
665.528	21.69
665.716	21.7
665.904	21.63
666.092	21.64
666.28	21.62
666.468	21.66
666.656	21.59
666.844	21.63
667.032	21.6
667.22	21.68
667.408	21.62
667.596	21.62
667.784	21.71
667.971	21.77
668.159	21.87
668.347	21.76
668.535	21.68
668.723	21.66
668.911	21.54
669.098	21.47
669.286	21.5
669.474	21.57
669.662	21.51
669.849	21.46
670.037	21.38
670.225	21.25
670.413	21.29
670.6	21.41
670.788	21.37
670.976	21.46
671.163	21.55
671.351	21.43
671.538	21.36
671.726	21.51
671.913	21.52
672.101	21.47
672.289	21.63
672.476	21.69
672.664	21.66
672.851	21.75
673.039	21.73
673.226	21.62
673.413	21.67
673.601	21.73
673.788	21.63
673.976	21.48
674.163	21.63
674.35	21.41
674.538	21.38
674.725	21.3
674.912	21.34
675.1	21.44
675.287	21.57
675.474	21.54
675.662	21.58
675.849	21.64
676.036	21.76
676.223	21.73
676.411	21.81
676.598	21.94
676.785	22.04
676.972	22.01
677.159	21.93
677.346	21.9
677.533	21.92
677.721	21.9
677.908	21.88
678.095	21.86
678.282	21.92
678.469	22.02
678.656	21.94
678.843	21.98
679.03	21.98
679.217	22.03
679.404	21.96
679.591	21.89
679.778	21.8
679.964	21.73
680.151	21.77
680.338	21.67
680.525	21.59
680.712	21.54
680.899	21.41
681.086	21.45
681.272	21.3
681.459	21.42
681.646	21.46
681.833	21.58
682.02	21.67
682.206	21.58
682.393	21.55
682.58	21.56
682.766	21.59
682.953	21.68
683.14	21.67
683.326	21.89
683.513	21.92
683.7	22.04
683.886	22.01
684.073	22.01
684.259	22.06
684.446	22.18
684.632	22.17
684.819	22.09
685.005	22.12
685.192	22.05
685.378	21.98
685.565	21.78
685.751	21.71
685.938	21.73
686.124	21.71
686.31	21.71
686.497	21.66
686.683	21.7
686.87	21.83
687.056	21.74
687.242	21.85
687.429	21.82
687.615	21.82
687.801	21.92
687.987	21.79
688.174	21.82
688.36	21.81
688.546	21.81
688.732	21.79
688.918	21.78
689.105	21.79
689.291	21.63
689.477	21.68
689.663	21.75
689.849	21.59
690.035	21.76
690.221	21.7
690.407	21.72
690.593	21.74
690.779	21.82
690.965	21.74
691.151	21.77
691.337	21.9
691.523	21.92
691.709	22.07
691.895	22.25
692.081	22.09
692.267	22.26
692.453	22.28
692.639	22.24
692.825	22.17
693.011	22.28
693.196	22.22
693.382	22.13
693.568	22.1
693.754	22.05
693.94	21.97
694.125	22
694.311	21.93
694.497	22.05
694.682	22.08
694.868	22.18
695.054	22.13
695.239	22.07
695.425	22.12
695.611	22.17
695.796	22.18
695.982	22.13
696.168	22.13
696.353	22.13
696.539	22.01
696.724	21.96
696.91	21.85
697.095	21.82
697.281	21.83
697.466	21.76
697.652	21.55
697.837	21.52
698.023	21.48
698.208	21.5
698.393	21.5
698.579	21.48
698.764	21.52
698.949	21.56
699.135	21.54
699.32	21.56
699.505	21.55
699.691	21.72
699.876	21.66
700.061	21.71
700.246	21.75
700.432	21.64
700.617	21.8
700.802	21.87
700.987	21.8
701.172	21.7
701.358	21.64
701.543	21.75
701.728	21.84
701.913	21.87
702.098	21.88
702.283	21.8
702.468	21.91
702.653	21.7
702.838	21.68
703.023	21.79
703.208	22.04
703.393	22.17
703.578	22.2
703.763	22.23
703.948	22.34
704.133	22.3
704.318	22.23
704.503	22.41
704.688	22.61
704.873	22.59
705.057	22.68
705.242	22.65
705.427	22.64
705.612	22.77
705.797	22.82
705.981	22.77
706.166	22.89
706.351	22.99
706.536	22.8
706.72	22.66
706.905	22.66
707.09	22.66
707.274	22.75
707.459	22.78
707.644	22.65
707.828	22.61
708.013	22.65
708.197	22.6
708.382	22.61
708.567	22.61
708.751	22.54
708.936	22.45
709.12	22.53
709.305	22.45
709.489	22.44
709.673	22.43
709.858	22.34
710.042	22.32
710.227	22.36
710.411	22.36
710.596	22.44
710.78	22.44
710.964	22.55
711.149	22.34
711.333	22.37
711.517	22.43
711.702	22.4
711.886	22.37
712.07	22.23
712.254	22.27
712.438	22.18
712.623	22.1
712.807	22.33
712.991	22.25
713.175	22.19
713.359	22.26
713.544	22.33
713.728	22.4
713.912	22.41
714.096	22.6
714.28	22.43
714.464	22.39
714.648	22.43
714.832	22.28
715.016	22.34
715.2	22.31
715.384	22.16
715.568	21.97
715.752	22
715.936	21.9
716.12	21.83
716.304	21.88
716.488	21.93
716.671	21.82
716.855	21.88
717.039	21.87
717.223	21.95
717.407	22.07
717.59	22.03
717.774	21.93
717.958	22.2
718.142	22.19
718.325	22.11
718.509	22.12
718.693	22.37
718.877	22.2
719.06	22.13
719.244	22.11
719.428	22.13
719.611	22.24
719.795	22.22
719.978	22.18
720.162	22.2
720.345	22.25
720.529	22.2
720.713	21.99
720.896	22.06
721.08	22.05
721.263	22.16
721.446	22.22
721.63	22.18
721.813	21.99
721.997	21.93
722.18	22.1
722.364	22.27
722.547	22.46
722.73	22.52
722.914	22.48
723.097	22.46
723.28	22.5
723.464	22.21
723.647	22.35
723.83	22.63
724.013	22.65
724.197	22.58
724.38	22.53
724.563	22.33
724.746	22.57
724.929	22.76
725.112	22.81
725.296	22.57
725.479	22.63
725.662	22.56
725.845	22.55
726.028	22.31
726.211	22.12
726.394	22.03
726.577	22.07
726.76	21.78
726.943	21.59
727.126	21.48
727.309	21.6
727.492	21.64
727.675	21.56
727.858	21.44
728.041	21.59
728.224	21.6
728.407	21.74
728.589	21.85
728.772	21.95
728.955	22.12
729.138	22.31
729.321	22.34
729.503	22.54
729.686	22.59
729.869	22.56
730.052	22.48
730.234	22.47
730.417	22.35
730.6	22.28
730.782	22.08
730.965	22.07
731.148	21.99
731.33	21.93
731.513	21.62
731.695	21.67
731.878	21.81
732.061	21.94
732.243	22.02
732.426	22.01
732.608	22.09
732.791	22.21
732.973	22.14
733.156	22.07
733.338	22.24
733.52	22.35
733.703	22.32
733.885	22.36
734.068	22.37
734.25	22.31
734.432	22.37
734.615	22.37
734.797	22.59
734.979	22.57
735.162	22.58
735.344	22.55
735.526	22.69
735.708	22.68
735.891	22.73
736.073	22.97
736.255	22.98
736.437	23.02
736.619	23.04
736.802	22.82
736.984	22.85
737.166	23.01
737.348	22.89
737.53	22.87
737.712	22.72
737.894	22.75
738.076	22.56
738.258	22.41
738.44	22.32
738.622	22.15
738.804	22.19
738.986	22.36
739.168	22.3
739.35	22.42
739.532	22.4
739.714	22.42
739.896	22.25
740.078	22.26
740.259	22.55
740.441	22.65
740.623	22.89
740.805	22.65
740.987	22.59
741.168	22.46
741.35	22.45
741.532	22.36
741.714	22.35
741.895	22.41
742.077	22.27
742.259	22.31
742.44	22.31
742.622	22.15
742.804	22.22
742.985	21.84
743.167	21.91
743.348	21.94
743.53	22.09
743.711	22.34
743.893	22.15
744.075	22.35
744.256	22.01
744.438	21.89
744.619	22.18
744.8	22.19
744.982	22.4
745.163	22.11
745.345	22.03
745.526	22.07
745.707	21.88
745.889	21.9
746.07	21.84
746.252	22.2
746.433	22.24
746.614	22.02
746.795	22.59
746.977	22.72
747.158	23.18
747.339	22.87
747.52	22.67
747.702	23.06
747.883	23.44
748.064	23.21
748.245	23.04
748.426	22.79
748.607	22.82
748.788	22.16
748.97	21.71
749.151	21.83
749.332	22.31
749.513	22.59
749.694	22.13
749.875	21.83
750.056	21.85
750.237	21.82
750.418	22.05
750.599	21.87
750.78	22.26
750.96	22.57
751.141	22.53
751.322	22.38
751.503	22.16
751.684	22.63
751.865	22.86
752.046	23
752.226	23.02
752.407	23.05
752.588	23.09
752.769	23.16
752.949	23.18
753.13	23.06
753.311	23.05
753.492	22.87
753.672	22.63
753.853	22.22
754.034	22.38
754.214	22.47
754.395	22.52
754.575	22.72
754.756	22.34
754.937	22.29
755.117	22.18
755.298	22.4
755.478	22.88
755.659	22.77
755.839	22.99
756.02	22.96
756.2	22.74
756.381	22.62
756.561	22.44
756.741	22.87
756.922	22.99
757.102	23.09
757.283	22.83
757.463	22.37
757.643	22.43
757.823	22.18
758.004	21.89
758.184	22.43
758.364	22.71
758.545	22.73
758.725	22.41
758.905	22.49
759.085	22.56
759.265	22.45
759.446	22.48
759.626	22.49
759.806	22.83
759.986	22.81
760.166	22.44
760.346	22.03
760.526	21.84
760.706	22.02
760.886	21.86
761.066	21.8
761.246	21.97
761.426	22.14
761.606	22.09
761.786	21.82
761.966	22.02
762.146	22.1
762.326	22.25
762.506	22.46
762.686	22.42
762.866	22.37
763.046	22.28
763.225	22.29
763.405	22.21
763.585	22.2
763.765	22.37
763.945	22.19
764.124	22.27
764.304	22.26
764.484	22.29
764.664	22.35
764.843	22.52
765.023	22.63
765.203	22.58
765.382	22.9
765.562	23.14
765.741	23.17
765.921	23.4
766.101	23.25
766.28	23.37
766.46	23.4
766.639	23.39
766.819	23.1
766.998	23.18
767.178	23.17
767.357	23.11
767.537	22.75
767.716	22.84
767.896	22.74
768.075	22.74
768.254	22.78
768.434	22.63
768.613	22.45
768.792	22.72
768.972	22.63
769.151	22.45
769.33	22.4
769.51	22.87
769.689	22.81
769.868	22.84
770.047	23.08
770.226	23.15
770.406	23.21
770.585	23.04
770.764	23.16
770.943	23.17
771.122	23.59
771.301	23.63
771.48	23.42
771.66	23.27
771.839	23.14
772.018	23.2
772.197	22.85
772.376	23.08
772.555	23.03
772.734	23.07
772.913	23.13
773.092	23.05
773.271	23.05
773.449	22.95
773.628	23.13
773.807	23.17
773.986	22.9
774.165	22.89
774.344	22.52
774.523	23.09
774.701	23.2
774.88	23
775.059	22.84
775.238	22.58
775.417	22.65
775.595	22.64
775.774	23.07
775.953	23.24
776.131	23.2
776.31	23.37
776.489	23.32
776.667	23.26
776.846	23.66
777.025	23.62
777.203	23.71
777.382	23.74
777.56	23.7
777.739	23.37
777.917	23.26
778.096	23.43
778.274	23.5
778.453	23.58
778.631	22.92
778.81	22.33
778.988	21.98
779.166	22.36
779.345	22.38
779.523	22.35
779.702	22.47
779.88	22.63
780.058	22.68
780.237	22.63
780.415	22.45
780.593	23.1
780.771	23.53
780.95	23.94
781.128	23.41
781.306	23.71
781.484	23.63
781.662	23.85
781.841	23.98
782.019	23.97
782.197	23.81
782.375	23.78
782.553	23.74
782.731	24.52
782.909	24.25
783.087	24.81
783.265	24.55
783.443	24.63
783.621	24
783.799	23.75
783.977	23.9
784.155	24.1
784.333	23.77
784.511	23.6
784.689	23.07
784.867	23.8
785.045	22.97
785.223	22.77
785.4	22.49
785.578	22.92
785.756	22.81
785.934	22.45
786.112	22.27
786.289	23.04
786.467	23.1
786.645	22.95
786.823	22.48
787	22.84
787.178	23.31
787.356	23.5
787.533	23.46
787.711	23.5
787.889	23.86
788.066	23.94
788.244	23.84
788.421	23.98
788.599	23.8
788.776	23.65
788.954	23.67
789.131	23.25
789.309	23.12
789.486	23.33
789.664	23.3
789.841	23.21
790.019	23
790.196	22.82
790.373	22.46
790.551	22.27
790.728	22.58
790.906	22.61
791.083	22.62
791.26	22.97
791.437	22.6
791.615	22.71
791.792	22.82
791.969	23.28
792.146	23.19
792.324	23.98
792.501	24.37
792.678	24.63
792.855	24.39
793.032	24.4
793.209	24.52
793.387	24.51
793.564	24.09
793.741	23.79
793.918	23.51
794.095	23.52
794.272	23.18
794.449	23.21
794.626	23.1
794.803	23.06
794.98	22.88
795.157	22.71
795.334	23.36
795.511	23.54
795.688	23.39
795.864	23.77
796.041	24.07
796.218	23.73
796.395	23.94
796.572	23.97
796.749	24.33
796.925	24.65
797.102	24.58
797.279	24.17
797.456	24.35
797.632	24.61
797.809	24.42
797.986	23.61
798.162	23.98
798.339	23.89
798.516	23.52
798.692	23.72
798.869	23.76
799.046	23.76
799.222	23.93
799.399	23.98
799.575	24.14
799.752	23.94
799.928	24.68
800.105	24.33
800.281	23.86
800.458	24.36
800.634	23.86
800.811	23.69
800.987	23.27
801.163	22.81
801.34	22.57
801.516	22.48
801.692	22.68
801.869	22.66
802.045	22.53
802.221	22.62
802.398	21.96
802.574	22.22
802.75	21.64
802.926	22.14
803.103	21.98
803.279	22.49
803.455	22.61
803.631	22.77
803.807	22.22
803.983	23.37
804.16	23.34
804.336	23
804.512	23.18
804.688	23.59
804.864	24.57
805.04	24.8
805.216	24.25
805.392	23.45
805.568	23.45
805.744	24.22
805.92	23.57
806.096	23.45
806.272	24.14
806.448	23.38
806.623	22.71
806.799	22
806.975	22.41
807.151	22.3
807.327	22.23
807.503	22.69
807.678	22.65
807.854	22.72
808.03	23.4
808.206	23.54
808.381	24.08
808.557	25.01
808.733	23.99
808.908	23.98
809.084	24.21
809.26	24.17
809.435	23.04
809.611	22.47
809.787	22.1
809.962	21.27
810.138	20.79
810.313	21.02
810.489	20.94
810.664	21.51
810.84	21.25
811.015	21.54
811.191	21.8
811.366	22.38
811.542	22.26
811.717	22.39
811.892	23.53
812.068	23.78
812.243	24.35
812.419	23.98
812.594	24.15
812.769	24.47
812.944	24.34
813.12	23.89
813.295	24.21
813.47	24.88
813.645	25.38
813.821	24.47
813.996	24.44
814.171	23.45
814.346	23.87
814.521	23.44
814.697	22.24
814.872	22.4
815.047	22.87
815.222	22.63
815.397	22.32
815.572	22.15
815.747	22.53
815.922	21.98
816.097	22.04
816.272	21.81
816.447	21.54
816.622	22.77
816.797	22.23
816.972	22.99
817.147	23.05
817.322	22.52
817.496	22.19
817.671	22.16
817.846	22.18
818.021	21.85
818.196	21.76
818.371	22.55
818.545	22.17
818.72	22.05
818.895	21.54
819.069	21.55
819.244	22.07
819.419	22.32
819.594	21.97
819.768	22.19
819.943	22.34
820.117	22.27
820.292	22.18
820.467	22.21
820.641	22.33
820.816	22.5
820.99	22.44
821.165	22.37
821.339	22.3
821.514	22.34
821.688	22.34
821.863	22.44
822.037	22.46
822.212	22.44
822.386	22.42
822.56	22.37
822.735	22.26
822.909	22.32
823.084	22.21
823.258	22.26
823.432	22.33
823.606	22.26
823.781	22.15
823.955	22.22
824.129	22.12
824.303	22.17
824.478	22.38
824.652	22.35
824.826	22.26
825	22.51
825.174	22.38
825.348	22.3
825.523	22.67
825.697	22.44
825.871	22.63
826.045	22.75
826.219	22.62
826.393	22.57
826.567	22.84
826.741	22.65
826.915	22.63
827.089	22.64
827.263	22.72
827.437	22.74
827.611	23.06
827.784	22.84
827.958	22.86
828.132	23.27
828.306	23.09
828.48	22.73
828.654	23.06
828.827	22.86
829.001	23.09
829.175	23.03
829.349	22.92
829.522	23.07
829.696	23.64
829.87	24.05
830.044	23.98
830.217	24.35
830.391	24.61
830.565	24.9
830.738	25.48
830.912	25.55
831.085	26.02
831.259	26.41
831.432	25.7
831.606	24.78
831.779	24.53
831.953	24.48
832.126	24.56
832.3	24.44
832.473	24.19
832.647	23.73
832.82	23.45
832.994	23.1
833.167	22.74
833.34	22.83
833.514	22.83
833.687	22.81
833.86	22.37
834.034	22.09
834.207	22.41
834.38	22.13
834.553	22.54
834.727	22.6
834.9	22.74
835.073	22.57
835.246	22.25
835.419	22.27
835.593	22.72
835.766	23.14
835.939	23.41
836.112	23.03
836.285	23.67
836.458	23.21
836.631	23.16
836.804	22.72
836.977	22.77
837.15	23.89
837.323	25.03
837.496	23.76
837.669	23.65
837.842	23.98
838.015	24.83
838.188	24.57
838.361	25.34
838.533	25.37
838.706	24.8
838.879	25.08
839.052	25.62
839.225	24.99
839.398	25.6
839.57	25.58
839.743	25.07
839.916	24.6
840.088	24.02
840.261	24.44
840.434	24.67
840.607	25.52
840.779	25.6
840.952	24.97
841.124	25.46
841.297	26.24
841.47	26.07
841.642	26.07
841.815	26.02
841.987	27.4
842.16	26.4
842.332	26.54
842.505	26.7
842.677	27.65
842.85	27.62
843.022	26.33
843.194	26.88
843.367	27.6
843.539	29.27
843.712	29.3
843.884	28.94
844.056	30.02
844.229	29.46
844.401	30.3
844.573	30.66
844.745	29.03
844.918	28.9
845.09	27.74
845.262	27.39
845.434	27.39
845.606	28.04
845.779	28.44
845.951	28.73
846.123	29.29
846.295	28.77
846.467	29.24
846.639	29.9
846.811	31.59
846.983	31.94
847.155	31.87
847.327	31.76
847.499	31.24
847.671	29.41
847.843	27.82
848.015	26.86
848.187	26.9
848.359	25.27
848.531	26.43
848.703	26.27
848.875	27.52
849.047	28.26
849.218	26.38
849.39	26.02
849.562	29.12
849.734	28.5
849.905	28.75
850.077	29.36
850.249	29.72
850.421	29.44
850.592	28.38
850.764	27.47
850.936	26.45
851.107	26.13
851.279	25.32
851.451	23.41
851.622	25.1
851.794	28
851.965	27.22
852.137	26.59
852.308	23.54
852.48	23.56
852.651	23.38
852.823	23.58
852.994	26.49
853.166	28.6
853.337	30.44
853.509	30.2
853.68	28.28
853.851	27.8
854.023	28.21
854.194	29.4
854.365	29.01
854.537	29.31
854.708	29.19
854.879	27.59
855.05	27.79
855.222	27.53
855.393	26.16
855.564	24.78
855.735	25.92
855.906	25.91
856.078	27.22
856.249	28.87
856.42	25.44
856.591	25.57
856.762	26.3
856.933	24.99
857.104	23.48
857.275	24.95
857.446	25.09
857.617	22.45
857.788	22.65
857.959	22.38
858.13	22.74
858.301	26.33
858.472	27.23
858.643	25.29
858.814	25.16
858.985	23.34
859.155	24.2
859.326	26.33
859.497	30.31
859.668	29.41
859.839	29.44
860.009	30.15
860.18	27.46
860.351	27.85
860.522	30.41
860.692	32.84
860.863	34.42
861.034	33.55
861.204	32.92
861.375	30.03
861.546	29.29
861.716	29.32
861.887	26.99
862.057	28.44
862.228	27.29
862.398	23.82
862.569	22.62
862.739	24.18
862.91	22.88
863.08	22.7
863.251	21.83
863.421	22.57
863.592	22.04
863.762	23.1
863.932	23.91
864.103	23.5
864.273	24.29
864.443	24.02
864.614	23.63
864.784	24.75
864.954	24.19
865.125	27.12
865.295	27.76
865.465	29.95
865.635	28.9
865.805	29.04
865.976	28.15
866.146	29.8
866.316	30.26
866.486	29.79
866.656	29.23
866.826	29.49
866.996	29.47
867.166	29.99
867.336	28.53
867.506	29.58
867.676	28.58
867.846	28.96
868.016	28.59
868.186	26.54
868.356	27.05
868.526	27.01
868.696	26.95
868.866	27.25
869.036	25.53
869.206	26.23
869.376	25.52
869.545	25.13
869.715	26.08
869.885	24.22
870.055	26.4
870.224	25.74
870.394	24.86
870.564	26.21
870.734	23.78
870.903	24.52
871.073	24.38
871.243	26.87
871.412	26.98
871.582	27.58
871.751	29.03
871.921	29.06
872.091	28.78
872.26	29.14
872.43	25.72
872.599	25.35
872.769	26.45
872.938	25.5
873.108	23.15
873.277	21.58
873.446	22.92
873.616	23.12
873.785	22.22
873.955	24.45
874.124	23.86
874.293	26.8
874.463	26.3
874.632	22.71
874.801	22.27
874.971	23.52
875.14	25.8
875.309	24.19
875.478	24.04
875.647	24.26
875.817	24.05
875.986	23.64
876.155	22.48
876.324	24.15
876.493	28.81
876.662	30
876.831	30.09
877	29.05
877.17	30.25
877.339	31.86
877.508	33.03
877.677	30.95
877.846	31.48
878.015	31.61
878.184	31.08
878.352	30
878.521	30.37
878.69	29.31
878.859	29.36
879.028	28.35
879.197	26.51
879.366	26.87
879.534	27.14
879.703	25.94
879.872	26.04
880.041	26.58
880.21	26.04
880.378	25.09
880.547	25.04
880.716	24.96
880.884	24.35
881.053	24.5
881.222	24.04
881.39	24.05
881.559	24.39
881.727	23.84
881.896	23.39
882.065	22.94
882.233	23.35
882.402	23.22
882.57	22.87
882.739	23.13
882.907	23.26
883.076	23.42
883.244	23.31
883.412	23.86
883.581	24.43
883.749	24.72
883.918	25.51
884.086	25.46
884.254	26.35
884.423	27.07
884.591	26.88
884.759	26.13
884.927	25.89
885.096	25.38
885.264	24.92
885.432	24.8
885.6	24.11
885.769	24.08
885.937	24
886.105	22.9
886.273	22.41
886.441	23.43
886.609	24.76
886.777	24.03
886.945	23.79
887.113	23.33
887.281	23.8
887.449	26.2
887.617	26.26
887.785	26.05
887.953	24.72
888.121	23.1
888.289	22.02
888.457	22.29
888.625	22.07
888.793	22.38
888.961	21.94
889.129	21.13
889.296	19.59
889.464	19.08
889.632	18.59
889.8	19.79
889.967	22.87
890.135	25.85
