Data from JASIL_2964_Reflection_1.txt Node
Date: Sat Nov 07 21:27:30 EST 2015
User: Geneva
Spectrometer: USB4E03002
Autoset integration time: false
Trigger mode: 4
Integration Time (sec): 1.000000E-1
Scans to average: 10
Electric dark correction enabled: true
Nonlinearity correction enabled: false
Boxcar width: 5
Stray light correction enabled: false
XAxis mode: Wavelengths
Stop averaging: false
Number of Pixels in Spectrum: 3648
>>>>>Begin Spectral Data<<<<<
177.575	82.6
177.794	163.15
178.014	121.98
178.233	255.06
178.452	128.66
178.672	66.94
178.891	166.84
179.11	150.14
179.33	189.4
179.549	142.54
179.768	29.99
179.987	-7.79
180.207	-95.86
180.426	489.22
180.645	174.16
180.864	192.84
181.084	177.62
181.303	228.08
181.522	149.39
181.741	130.6
181.96	131.44
182.179	105.12
182.398	103.94
182.618	95.79
182.837	100.32
183.056	133.66
183.275	97.35
183.494	86.04
183.713	112.48
183.932	202.39
184.151	513.54
184.37	171.28
184.589	97.51
184.808	82.17
185.027	102.44
185.246	91.08
185.465	70.76
185.684	79.62
185.903	67.52
186.122	62.27
186.341	62.34
186.56	49.74
186.779	61.02
186.998	78.12
187.216	92.71
187.435	86.22
187.654	92.62
187.873	105.89
188.092	102.31
188.311	95.84
188.53	84.68
188.748	97.91
188.967	91.66
189.186	93.15
189.405	101.49
189.623	71.18
189.842	51.02
190.061	42.31
190.28	56.79
190.498	57.19
190.717	48.52
190.936	42.08
191.154	-30.31
191.373	-479.14
191.592	-84.58
191.81	-184.32
192.029	-15.04
192.248	2.93
192.466	47
192.685	36.23
192.904	23.39
193.122	50.4
193.341	51.69
193.559	76.95
193.778	63.17
193.996	87.21
194.215	95.89
194.433	113.63
194.652	122.25
194.87	100.63
195.089	83.69
195.307	119.98
195.526	122.23
195.744	98.52
195.963	85.96
196.181	84.35
196.399	81.48
196.618	83.53
196.836	89.73
197.055	86.84
197.273	105.97
197.491	102.45
197.71	82.16
197.928	75.52
198.146	82.6
198.365	93.19
198.583	108.6
198.801	77.02
199.019	67.71
199.238	44.89
199.456	37.79
199.674	33.1
199.892	36.13
200.111	19.2
200.329	26.97
200.547	21.83
200.765	5.22
200.983	-5.03
201.202	23.45
201.42	29.74
201.638	33.81
201.856	36.02
202.074	33.76
202.292	30.69
202.51	42.11
202.728	35.64
202.946	23.86
203.165	21.37
203.383	35.51
203.601	23.39
203.819	6.48
204.037	6.27
204.255	10.39
204.473	15.21
204.691	11.85
204.909	0.87
205.127	29.15
205.345	51.65
205.562	52.21
205.78	49.15
205.998	50.05
206.216	59.29
206.434	74.33
206.652	69.88
206.87	66.94
207.088	67.29
207.306	67.94
207.523	57.95
207.741	35.36
207.959	45.84
208.177	45.48
208.395	45.88
208.612	41.27
208.83	37.23
209.048	39.43
209.266	32.58
209.483	3.1
209.701	-12.42
209.919	-29.32
210.136	0.83
210.354	23.11
210.572	22.86
210.79	27.03
211.007	34.23
211.225	27.29
211.442	29.61
211.66	34.1
211.878	44.07
212.095	103.13
212.313	105.54
212.53	99.91
212.748	94.52
212.966	103.4
213.183	98.03
213.401	90.83
213.618	98.04
213.836	93.98
214.053	99.59
214.271	97.35
214.488	29.57
214.705	12.61
214.923	14.47
215.14	19.23
215.358	27.99
215.575	24.66
215.793	34.44
216.01	25.82
216.227	30.56
216.445	26.92
216.662	24.63
216.879	28.46
217.097	39.09
217.314	37.59
217.531	35.95
217.749	25.13
217.966	29.78
218.183	21.39
218.4	33.12
218.618	30.11
218.835	30.99
219.052	33.6
219.269	30.1
219.487	31.13
219.704	29.61
219.921	25.69
220.138	34.69
220.355	32.01
220.572	36.73
220.79	25.38
221.007	28.76
221.224	28.86
221.441	28.2
221.658	28.3
221.875	27.27
222.092	25.92
222.309	20.51
222.526	16.21
222.743	18.27
222.96	13.11
223.177	14.36
223.394	11.46
223.611	9.51
223.828	7.73
224.045	7.9
224.262	6.96
224.479	7.93
224.696	10.95
224.913	12.38
225.13	13.01
225.347	13.41
225.564	14.39
225.781	13.29
225.997	14.29
226.214	13.04
226.431	12.84
226.648	12.2
226.865	12.85
227.082	12.69
227.298	11.57
227.515	10.79
227.732	10.13
227.949	10.72
228.165	9.98
228.382	9.03
228.599	9.8
228.816	10.21
229.032	9.73
229.249	9.49
229.466	9.33
229.682	9.36
229.899	9.57
230.116	10.92
230.332	11.17
230.549	13.12
230.765	14.07
230.982	14.35
231.199	14.17
231.415	15.27
231.632	15.46
231.848	15.26
232.065	16.24
232.281	16.9
232.498	16.65
232.714	15.11
232.931	15.26
233.147	16.26
233.364	14.58
233.58	15.32
233.797	14.66
234.013	14.8
234.23	15.82
234.446	14.58
234.662	14.14
234.879	14.41
235.095	14.57
235.312	13.67
235.528	13.11
235.744	13.04
235.961	12.13
236.177	13.83
236.393	13.55
236.61	12.89
236.826	13.15
237.042	13.16
237.258	13.19
237.475	13.51
237.691	13.45
237.907	13.4
238.123	13.52
238.339	13.14
238.556	11.77
238.772	11.43
238.988	12.03
239.204	12.63
239.42	12.53
239.636	11.63
239.853	11.19
240.069	10.86
240.285	10.62
240.501	10.8
240.717	10.84
240.933	11.08
241.149	10.9
241.365	10.86
241.581	10.65
241.797	10.54
242.013	10.17
242.229	10.36
242.445	10.48
242.661	10.38
242.877	10.05
243.093	9.73
243.309	9.62
243.525	9.37
243.741	9.13
243.957	8.8
244.173	9.08
244.388	9.12
244.604	8.92
244.82	9.14
245.036	9.09
245.252	9.25
245.468	9.37
245.683	9.38
245.899	9.63
246.115	9.51
246.331	9.55
246.547	9.28
246.762	9.49
246.978	9.59
247.194	9.27
247.409	9.29
247.625	9.13
247.841	8.88
248.057	9
248.272	8.75
248.488	8.95
248.703	8.8
248.919	9.02
249.135	8.64
249.35	8.4
249.566	8.69
249.782	8.35
249.997	8.67
250.213	8.88
250.428	8.92
250.644	8.76
250.859	8.24
251.075	8.57
251.29	8.29
251.506	8.46
251.721	8.5
251.937	8.43
252.152	8.75
252.368	8.45
252.583	8.69
252.798	8.03
253.014	8.62
253.229	9.26
253.445	8.75
253.66	8.97
253.875	8.71
254.091	8.32
254.306	8.27
254.521	7.35
254.737	7.34
254.952	6.46
255.167	6.87
255.383	6.2
255.598	5.73
255.813	5.91
256.028	5.56
256.244	5.48
256.459	5.66
256.674	5.97
256.889	6.15
257.104	6.31
257.32	6.72
257.535	6.65
257.75	6.59
257.965	6.57
258.18	6.59
258.395	6.71
258.61	6.66
258.826	6.71
259.041	6.4
259.256	6.4
259.471	6.36
259.686	6.46
259.901	6.52
260.116	6.52
260.331	6.41
260.546	6.42
260.761	6.49
260.976	6.56
261.191	6.4
261.406	6.5
261.621	6.61
261.836	6.45
262.05	6.13
262.265	5.83
262.48	6.03
262.695	6.47
262.91	6.72
263.125	6.43
263.34	6.95
263.555	6.92
263.769	6.98
263.984	7.12
264.199	7.15
264.414	7.48
264.629	7.28
264.843	7.06
265.058	6.75
265.273	6.55
265.488	6.64
265.702	6.27
265.917	6.68
266.132	6.89
266.346	6.81
266.561	7.11
266.776	7.04
266.99	7.55
267.205	7.63
267.42	7.48
267.634	7.18
267.849	6.87
268.063	6.97
268.278	6.73
268.492	6.84
268.707	7.18
268.922	7.04
269.136	6.82
269.351	6.49
269.565	6.67
269.78	6.79
269.994	6.96
270.209	7.16
270.423	7.13
270.637	7.1
270.852	6.95
271.066	6.55
271.281	6.52
271.495	6.6
271.709	6.56
271.924	6.35
272.138	6.19
272.353	6.24
272.567	6.19
272.781	6.1
272.996	6.14
273.21	6
273.424	5.95
273.638	5.88
273.853	5.82
274.067	5.83
274.281	6.09
274.495	6.15
274.71	6
274.924	5.89
275.138	5.97
275.352	5.92
275.566	6.22
275.781	6.57
275.995	6.71
276.209	6.78
276.423	6.6
276.637	6.31
276.851	6.22
277.065	6.15
277.279	6.12
277.493	6.1
277.707	5.9
277.921	5.89
278.135	5.69
278.349	5.71
278.563	5.53
278.777	5.5
278.991	5.91
279.205	6.25
279.419	6.67
279.633	6.61
279.847	6.64
280.061	6.8
280.275	6.53
280.489	6.48
280.703	6.3
280.917	6.2
281.131	6.35
281.344	5.9
281.558	5.68
281.772	5.32
281.986	5.5
282.2	5.51
282.414	5.53
282.627	5.62
282.841	5.78
283.055	5.74
283.269	5.61
283.482	5.56
283.696	5.78
283.91	5.9
284.123	5.86
284.337	5.7
284.551	5.5
284.764	5.51
284.978	5.59
285.192	5.41
285.405	5.46
285.619	5.77
285.833	5.6
286.046	5.45
286.26	5.36
286.473	5.36
286.687	5.51
286.9	5.62
287.114	5.43
287.327	5.5
287.541	5.62
287.754	5.71
287.968	5.4
288.181	5.47
288.395	5.49
288.608	5.46
288.822	5.59
289.035	5.6
289.248	5.66
289.462	5.98
289.675	5.9
289.889	5.92
290.102	5.87
290.315	6.08
290.529	6.08
290.742	6
290.955	6.1
291.169	6.06
291.382	5.82
291.595	5.78
291.808	5.54
292.022	5.58
292.235	5.37
292.448	5.47
292.661	5.48
292.875	5.62
293.088	5.58
293.301	5.71
293.514	5.59
293.727	5.68
293.94	5.72
294.153	5.56
294.367	5.43
294.58	5.33
294.793	5.05
295.006	4.94
295.219	5.05
295.432	5.14
295.645	5.18
295.858	5.23
296.071	5.29
296.284	5.16
296.497	5.3
296.71	5.27
296.923	5.44
297.136	5.56
297.349	5.75
297.562	5.58
297.775	5.69
297.988	5.68
298.201	5.76
298.414	5.69
298.626	5.91
298.839	5.8
299.052	6
299.265	5.69
299.478	5.66
299.691	5.31
299.903	5.38
300.116	5.2
300.329	5.03
300.542	5.14
300.755	5.31
300.967	5.36
301.18	5.37
301.393	5.02
301.605	5.14
301.818	5.03
302.031	5.19
302.243	5.22
302.456	5.51
302.669	5.48
302.881	5.47
303.094	5.37
303.307	5.36
303.519	5.52
303.732	5.71
303.944	5.89
304.157	5.89
304.37	5.94
304.582	6
304.795	5.86
305.007	5.94
305.22	5.95
305.432	5.93
305.645	5.68
305.857	5.72
306.069	5.69
306.282	5.66
306.494	5.96
306.707	5.94
306.919	5.93
307.132	5.73
307.344	5.55
307.556	5.39
307.769	5.5
307.981	5.54
308.193	5.5
308.406	5.42
308.618	5.48
308.83	5.34
309.043	5.43
309.255	5.41
309.467	5.48
309.679	5.66
309.892	5.74
310.104	5.66
310.316	5.61
310.528	5.61
310.74	5.82
310.953	5.91
311.165	6.02
311.377	5.78
311.589	5.73
311.801	5.8
312.013	5.8
312.225	5.94
312.437	6.21
312.649	6.34
312.862	6.39
313.074	6.3
313.286	6.11
313.498	5.83
313.71	6.16
313.922	6.29
314.134	6.48
314.346	6.42
314.558	6.39
314.77	6.2
314.982	6.16
315.193	6.17
315.405	6.01
315.617	6
315.829	6.18
316.041	6.14
316.253	5.87
316.465	5.72
316.677	5.6
316.888	5.31
317.1	5.43
317.312	5.82
317.524	5.83
317.736	6.03
317.947	6.34
318.159	6.53
318.371	6.55
318.583	6.89
318.794	6.95
319.006	7.07
319.218	7.18
319.43	6.92
319.641	6.6
319.853	6.61
320.064	6.61
320.276	6.8
320.488	6.7
320.699	6.69
320.911	6.62
321.123	6.84
321.334	7.01
321.546	7.11
321.757	7.23
321.969	7.24
322.18	7.3
322.392	7.08
322.603	6.91
322.815	6.92
323.026	7.03
323.238	6.98
323.449	6.78
323.661	6.64
323.872	6.74
324.083	6.74
324.295	6.69
324.506	6.47
324.718	6.54
324.929	6.64
325.14	6.97
325.352	7.06
325.563	7.28
325.774	7.2
325.986	7.34
326.197	7.21
326.408	7.25
326.62	7.51
326.831	7.85
327.042	8.13
327.253	8.32
327.464	8.14
327.676	8.11
327.887	8.03
328.098	8.06
328.309	8.05
328.52	8.37
328.732	8.73
328.943	8.81
329.154	9.03
329.365	9.01
329.576	9.01
329.787	8.89
329.998	9.05
330.209	9.18
330.42	9.6
330.631	9.66
330.842	9.78
331.053	9.75
331.264	9.67
331.475	9.48
331.686	9.72
331.897	9.71
332.108	9.9
332.319	9.86
332.53	9.83
332.741	9.7
332.952	9.68
333.163	9.54
333.374	9.65
333.585	9.74
333.795	9.86
334.006	9.7
334.217	9.64
334.428	9.87
334.639	9.95
334.849	10.15
335.06	10.24
335.271	10.28
335.482	10.37
335.692	10.24
335.903	10.19
336.114	10.2
336.325	10.39
336.535	10.31
336.746	10.02
336.957	10.01
337.167	10.02
337.378	9.99
337.589	10.11
337.799	10.08
338.01	10.14
338.22	10.38
338.431	10.16
338.642	10.17
338.852	10.19
339.063	10.26
339.273	10.21
339.484	10.2
339.694	10.18
339.905	10.09
340.115	9.98
340.326	9.79
340.536	9.62
340.746	9.69
340.957	9.55
341.167	9.5
341.378	9.39
341.588	9.59
341.799	9.38
342.009	9.34
342.219	9.39
342.43	9.52
342.64	9.5
342.85	9.47
343.061	9.49
343.271	9.53
343.481	9.62
343.691	9.64
343.902	9.46
344.112	9.54
344.322	9.66
344.532	9.71
344.743	9.69
344.953	9.72
345.163	9.85
345.373	9.86
345.583	9.9
345.793	9.75
346.004	9.83
346.214	9.93
346.424	10.01
346.634	10.01
346.844	9.94
347.054	9.92
347.264	10.13
347.474	9.89
347.684	9.93
347.894	9.77
348.104	9.78
348.314	9.87
348.524	9.83
348.734	9.82
348.944	9.73
349.154	9.62
349.364	9.62
349.574	9.43
349.784	9.49
349.994	9.44
350.204	9.35
350.413	9.46
350.623	9.38
350.833	9.07
351.043	8.98
351.253	9.07
351.463	9.11
351.672	8.83
351.882	8.82
352.092	8.71
352.302	8.76
352.511	8.82
352.721	8.76
352.931	8.73
353.141	8.8
353.35	8.68
353.56	8.46
353.77	8.63
353.979	9.02
354.189	9.09
354.399	9.26
354.608	9.2
354.818	9.2
355.027	9.29
355.237	9.34
355.447	9.46
355.656	9.58
355.866	9.58
356.075	9.42
356.285	9.19
356.494	9.09
356.704	8.93
356.913	9
357.123	8.94
357.332	8.87
357.542	8.84
357.751	8.79
357.96	8.64
358.17	8.76
358.379	8.75
358.589	8.71
358.798	8.72
359.007	8.84
359.217	8.72
359.426	8.84
359.635	8.7
359.845	8.69
360.054	8.63
360.263	8.7
360.472	8.64
360.682	8.64
360.891	8.71
361.1	8.76
361.309	8.7
361.519	8.7
361.728	8.64
361.937	8.8
362.146	8.78
362.355	8.84
362.564	8.85
362.774	8.81
362.983	8.76
363.192	8.76
363.401	8.64
363.61	8.59
363.819	8.6
364.028	8.67
364.237	8.53
364.446	8.61
364.655	8.53
364.864	8.54
365.073	8.66
365.282	8.73
365.491	8.71
365.7	8.76
365.909	8.81
366.118	8.94
366.327	8.79
366.536	8.81
366.745	8.68
366.954	8.72
367.162	8.68
367.371	8.5
367.58	8.42
367.789	8.4
367.998	8.43
368.207	8.63
368.415	8.53
368.624	8.56
368.833	8.56
369.042	8.65
369.25	8.76
369.459	8.73
369.668	8.72
369.877	8.84
370.085	8.81
370.294	8.77
370.503	8.59
370.711	8.49
370.92	8.45
371.129	8.38
371.337	8.32
371.546	8.12
371.754	8.13
371.963	8.14
372.171	8.08
372.38	7.99
372.589	8.04
372.797	7.93
373.006	7.86
373.214	7.82
373.423	7.88
373.631	7.83
373.84	7.91
374.048	7.81
374.256	7.82
374.465	7.79
374.673	7.82
374.882	7.57
375.09	7.57
375.298	7.63
375.507	7.64
375.715	7.66
375.923	7.6
376.132	7.65
376.34	7.63
376.548	7.59
376.757	7.55
376.965	7.54
377.173	7.73
377.381	7.81
377.59	7.81
377.798	7.78
378.006	7.72
378.214	7.73
378.423	7.65
378.631	7.69
378.839	7.75
379.047	7.74
379.255	7.8
379.463	7.75
379.671	7.61
379.879	7.57
380.088	7.58
380.296	7.71
380.504	7.73
380.712	7.74
380.92	7.88
381.128	7.78
381.336	7.73
381.544	7.66
381.752	7.64
381.96	7.65
382.168	7.64
382.376	7.72
382.584	7.65
382.791	7.67
382.999	7.64
383.207	7.5
383.415	7.43
383.623	7.49
383.831	7.48
384.039	7.47
384.247	7.5
384.454	7.61
384.662	7.62
384.87	7.54
385.078	7.41
385.285	7.34
385.493	7.29
385.701	7.33
385.909	7.32
386.116	7.28
386.324	7.33
386.532	7.27
386.739	7.15
386.947	7.05
387.155	6.94
387.362	7.05
387.57	7.18
387.778	7.21
387.985	7.33
388.193	7.34
388.4	7.49
388.608	7.36
388.816	7.35
389.023	7.32
389.231	7.3
389.438	7.42
389.646	7.31
389.853	7.2
390.061	7.22
390.268	7.18
390.475	7.1
390.683	6.98
390.89	6.96
391.098	6.94
391.305	6.98
391.512	6.93
391.72	6.87
391.927	6.81
392.135	6.85
392.342	6.74
392.549	6.7
392.756	6.66
392.964	6.65
393.171	6.65
393.378	6.75
393.586	6.74
393.793	6.84
394	6.77
394.207	6.8
394.414	6.75
394.622	6.83
394.829	6.8
395.036	6.83
395.243	6.8
395.45	6.8
395.657	6.66
395.864	6.61
396.072	6.62
396.279	6.69
396.486	6.68
396.693	6.7
396.9	6.69
397.107	6.65
397.314	6.63
397.521	6.72
397.728	6.69
397.935	6.68
398.142	6.66
398.349	6.57
398.556	6.56
398.763	6.57
398.97	6.51
399.177	6.46
399.383	6.46
399.59	6.49
399.797	6.4
400.004	6.46
400.211	6.51
400.418	6.5
400.625	6.45
400.831	6.45
401.038	6.46
401.245	6.36
401.452	6.27
401.658	6.27
401.865	6.28
402.072	6.32
402.279	6.33
402.485	6.33
402.692	6.3
402.899	6.32
403.105	6.37
403.312	6.36
403.519	6.44
403.725	6.53
403.932	6.55
404.138	6.53
404.345	6.43
404.552	6.36
404.758	6.4
404.965	6.4
405.171	6.4
405.378	6.27
405.584	6.25
405.791	6.22
405.997	6.19
406.204	6.11
406.41	5.98
406.617	6.04
406.823	6.07
407.029	5.98
407.236	6.01
407.442	6.05
407.649	6.16
407.855	6.18
408.061	6.18
408.268	6.22
408.474	6.23
408.68	6.36
408.887	6.3
409.093	6.25
409.299	6.32
409.505	6.27
409.712	6.23
409.918	6.12
410.124	6.13
410.33	6.14
410.537	6.11
410.743	6.12
410.949	6.1
411.155	6.14
411.361	6.21
411.567	6.11
411.773	6.12
411.98	6.08
412.186	6.14
412.392	6.09
412.598	6.14
412.804	6.07
413.01	6.07
413.216	6.05
413.422	6.05
413.628	6.07
413.834	6.06
414.04	6.05
414.246	6.04
414.452	6
414.658	6.02
414.864	5.98
415.07	5.99
415.275	6.04
415.481	5.97
415.687	5.88
415.893	5.82
416.099	5.85
416.305	5.88
416.511	5.87
416.716	5.85
416.922	5.85
417.128	5.84
417.334	5.87
417.539	5.81
417.745	5.86
417.951	5.9
418.157	5.92
418.362	5.92
418.568	5.91
418.774	5.89
418.979	5.86
419.185	5.83
419.391	5.83
419.596	5.8
419.802	5.79
420.008	5.73
420.213	5.65
420.419	5.6
420.624	5.58
420.83	5.56
421.035	5.58
421.241	5.62
421.446	5.67
421.652	5.65
421.857	5.63
422.063	5.61
422.268	5.64
422.474	5.72
422.679	5.76
422.885	5.76
423.09	5.75
423.295	5.73
423.501	5.7
423.706	5.59
423.911	5.63
424.117	5.64
424.322	5.67
424.527	5.66
424.733	5.6
424.938	5.61
425.143	5.61
425.349	5.58
425.554	5.6
425.759	5.63
425.964	5.66
426.169	5.65
426.375	5.64
426.58	5.63
426.785	5.61
426.99	5.66
427.195	5.61
427.4	5.62
427.605	5.6
427.811	5.59
428.016	5.61
428.221	5.68
428.426	5.64
428.631	5.64
428.836	5.6
429.041	5.58
429.246	5.54
429.451	5.59
429.656	5.57
429.861	5.58
430.066	5.61
430.271	5.55
430.476	5.48
430.681	5.47
430.886	5.5
431.09	5.6
431.295	5.62
431.5	5.64
431.705	5.58
431.91	5.57
432.115	5.58
432.32	5.59
432.524	5.59
432.729	5.58
432.934	5.59
433.139	5.55
433.343	5.54
433.548	5.51
433.753	5.49
433.958	5.48
434.162	5.47
434.367	5.47
434.572	5.42
434.776	5.47
434.981	5.45
435.186	5.43
435.39	5.45
435.595	5.44
435.799	5.47
436.004	5.51
436.209	5.56
436.413	5.56
436.618	5.54
436.822	5.57
437.027	5.52
437.231	5.54
437.436	5.53
437.64	5.51
437.845	5.48
438.049	5.44
438.253	5.4
438.458	5.37
438.662	5.39
438.867	5.36
439.071	5.38
439.275	5.42
439.48	5.43
439.684	5.44
439.888	5.4
440.093	5.39
440.297	5.41
440.501	5.43
440.706	5.43
440.91	5.47
441.114	5.48
441.318	5.45
441.523	5.43
441.727	5.43
441.931	5.49
442.135	5.49
442.339	5.48
442.543	5.51
442.748	5.48
442.952	5.48
443.156	5.43
443.36	5.46
443.564	5.45
443.768	5.43
443.972	5.37
444.176	5.32
444.38	5.31
444.584	5.31
444.788	5.28
444.992	5.28
445.196	5.27
445.4	5.27
445.604	5.24
445.808	5.24
446.012	5.27
446.216	5.31
446.42	5.27
446.624	5.31
446.828	5.29
447.032	5.29
447.235	5.29
447.439	5.28
447.643	5.28
447.847	5.29
448.051	5.29
448.254	5.25
448.458	5.22
448.662	5.3
448.866	5.24
449.069	5.25
449.273	5.29
449.477	5.32
449.681	5.34
449.884	5.36
450.088	5.34
450.292	5.36
450.495	5.4
450.699	5.46
450.902	5.38
451.106	5.42
451.31	5.42
451.513	5.33
451.717	5.3
451.92	5.27
452.124	5.19
452.327	5.23
452.531	5.2
452.734	5.19
452.938	5.12
453.141	5.15
453.345	5.17
453.548	5.14
453.752	5.18
453.955	5.19
454.158	5.18
454.362	5.2
454.565	5.13
454.769	5.15
454.972	5.15
455.175	5.13
455.379	5.15
455.582	5.13
455.785	5.17
455.988	5.17
456.192	5.17
456.395	5.15
456.598	5.25
456.801	5.28
457.005	5.25
457.208	5.2
457.411	5.21
457.614	5.18
457.817	5.17
458.021	5.15
458.224	5.17
458.427	5.2
458.63	5.22
458.833	5.14
459.036	5.16
459.239	5.18
459.442	5.18
459.645	5.19
459.848	5.19
460.051	5.17
460.254	5.19
460.457	5.17
460.66	5.13
460.863	5.17
461.066	5.23
461.269	5.22
461.472	5.22
461.675	5.23
461.878	5.28
462.081	5.29
462.284	5.34
462.486	5.31
462.689	5.32
462.892	5.33
463.095	5.29
463.298	5.24
463.5	5.23
463.703	5.22
463.906	5.27
464.109	5.21
464.311	5.23
464.514	5.24
464.717	5.22
464.92	5.25
465.122	5.28
465.325	5.35
465.528	5.39
465.73	5.37
465.933	5.35
466.135	5.34
466.338	5.36
466.541	5.32
466.743	5.35
466.946	5.37
467.148	5.33
467.351	5.32
467.553	5.28
467.756	5.28
467.958	5.33
468.161	5.36
468.363	5.32
468.566	5.28
468.768	5.27
468.971	5.23
469.173	5.23
469.375	5.23
469.578	5.25
469.78	5.19
469.983	5.22
470.185	5.14
470.387	5.18
470.59	5.18
470.792	5.2
470.994	5.25
471.196	5.23
471.399	5.22
471.601	5.22
471.803	5.13
472.005	5.19
472.208	5.14
472.41	5.15
472.612	5.1
472.814	5.12
473.016	5.15
473.218	5.17
473.421	5.18
473.623	5.16
473.825	5.16
474.027	5.22
474.229	5.22
474.431	5.24
474.633	5.26
474.835	5.24
475.037	5.25
475.239	5.22
475.441	5.19
475.643	5.19
475.845	5.23
476.047	5.25
476.249	5.23
476.451	5.22
476.653	5.17
476.855	5.17
477.057	5.14
477.258	5.15
477.46	5.16
477.662	5.15
477.864	5.14
478.066	5.07
478.268	5.09
478.469	5.12
478.671	5.12
478.873	5.09
479.075	5.08
479.276	5.12
479.478	5.11
479.68	5.08
479.882	5.11
480.083	5.15
480.285	5.2
480.487	5.19
480.688	5.16
480.89	5.17
481.091	5.21
481.293	5.23
481.495	5.22
481.696	5.21
481.898	5.2
482.099	5.17
482.301	5.14
482.502	5.13
482.704	5.12
482.905	5.11
483.107	5.09
483.308	5.08
483.51	5.06
483.711	5.05
483.913	5.05
484.114	5.06
484.315	5.06
484.517	5.07
484.718	5.08
484.92	5.09
485.121	5.1
485.322	5.12
485.524	5.12
485.725	5.13
485.926	5.14
486.127	5.14
486.329	5.12
486.53	5.12
486.731	5.11
486.932	5.1
487.134	5.07
487.335	5.06
487.536	5.06
487.737	5.08
487.938	5.08
488.139	5.07
488.341	5.08
488.542	5.1
488.743	5.09
488.944	5.09
489.145	5.1
489.346	5.11
489.547	5.13
489.748	5.12
489.949	5.11
490.15	5.09
490.351	5.12
490.552	5.13
490.753	5.1
490.954	5.1
491.155	5.09
491.356	5.08
491.557	5.09
491.758	5.08
491.959	5.08
492.159	5.07
492.36	5.08
492.561	5.06
492.762	5.05
492.963	5.07
493.164	5.08
493.364	5.13
493.565	5.17
493.766	5.17
493.967	5.21
494.167	5.24
494.368	5.29
494.569	5.32
494.769	5.31
494.97	5.29
495.171	5.3
495.371	5.31
495.572	5.34
495.773	5.36
495.973	5.33
496.174	5.33
496.375	5.33
496.575	5.31
496.776	5.31
496.976	5.33
497.177	5.35
497.377	5.37
497.578	5.42
497.778	5.37
497.979	5.39
498.179	5.43
498.38	5.42
498.58	5.45
498.78	5.46
498.981	5.48
499.181	5.52
499.382	5.51
499.582	5.56
499.782	5.53
499.983	5.53
500.183	5.51
500.383	5.54
500.584	5.52
500.784	5.55
500.984	5.58
501.184	5.57
501.385	5.57
501.585	5.58
501.785	5.57
501.985	5.58
502.185	5.64
502.386	5.65
502.586	5.67
502.786	5.75
502.986	5.74
503.186	5.77
503.386	5.82
503.586	5.82
503.786	5.84
503.987	5.86
504.187	5.94
504.387	5.95
504.587	5.94
504.787	5.95
504.987	5.98
505.187	5.98
505.387	5.96
505.587	5.92
505.786	5.96
505.986	5.96
506.186	5.96
506.386	5.93
506.586	5.91
506.786	5.94
506.986	5.93
507.186	5.88
507.386	5.91
507.585	5.96
507.785	6.01
507.985	6.03
508.185	6.05
508.384	6.03
508.584	6.03
508.784	6.06
508.984	6.1
509.183	6.16
509.383	6.21
509.583	6.24
509.782	6.25
509.982	6.24
510.182	6.26
510.381	6.31
510.581	6.37
510.781	6.38
510.98	6.39
511.18	6.41
511.379	6.41
511.579	6.41
511.778	6.4
511.978	6.42
512.177	6.45
512.377	6.5
512.576	6.51
512.776	6.56
512.975	6.62
513.175	6.69
513.374	6.72
513.573	6.74
513.773	6.79
513.972	6.85
514.172	6.9
514.371	6.95
514.57	6.91
514.77	6.96
514.969	6.92
515.168	6.94
515.367	6.97
515.567	6.97
515.766	6.98
515.965	7.01
516.164	7.02
516.364	7.04
516.563	7.08
516.762	7.13
516.961	7.11
517.16	7.16
517.359	7.2
517.559	7.19
517.758	7.23
517.957	7.27
518.156	7.31
518.355	7.35
518.554	7.34
518.753	7.31
518.952	7.38
519.151	7.44
519.35	7.49
519.549	7.47
519.748	7.53
519.947	7.57
520.146	7.57
520.345	7.56
520.544	7.59
520.743	7.66
520.942	7.71
521.141	7.69
521.339	7.67
521.538	7.65
521.737	7.73
521.936	7.72
522.135	7.74
522.333	7.78
522.532	7.8
522.731	7.8
522.93	7.81
523.129	7.86
523.327	7.89
523.526	7.9
523.725	7.94
523.923	7.93
524.122	7.97
524.321	7.96
524.519	8
524.718	8.02
524.917	8.05
525.115	8.04
525.314	8.05
525.512	8.07
525.711	8.11
525.909	8.11
526.108	8.11
526.306	8.13
526.505	8.14
526.703	8.14
526.902	8.18
527.1	8.15
527.299	8.17
527.497	8.19
527.696	8.2
527.894	8.21
528.092	8.22
528.291	8.25
528.489	8.27
528.688	8.3
528.886	8.31
529.084	8.32
529.283	8.36
529.481	8.4
529.679	8.41
529.877	8.43
530.076	8.47
530.274	8.52
530.472	8.55
530.67	8.58
530.869	8.6
531.067	8.62
531.265	8.64
531.463	8.68
531.661	8.7
531.859	8.75
532.057	8.8
532.255	8.82
532.454	8.82
532.652	8.86
532.85	8.86
533.048	8.87
533.246	8.87
533.444	8.88
533.642	8.91
533.84	8.92
534.038	8.93
534.236	8.95
534.434	8.97
534.632	9
534.83	9
535.027	9.05
535.225	9.11
535.423	9.19
535.621	9.22
535.819	9.24
536.017	9.28
536.215	9.29
536.412	9.29
536.61	9.32
536.808	9.35
537.006	9.38
537.203	9.39
537.401	9.39
537.599	9.4
537.797	9.45
537.994	9.46
538.192	9.51
538.39	9.55
538.587	9.58
538.785	9.58
538.983	9.6
539.18	9.66
539.378	9.71
539.575	9.75
539.773	9.78
539.97	9.8
540.168	9.81
540.366	9.8
540.563	9.81
540.761	9.85
540.958	9.9
541.155	9.93
541.353	9.94
541.55	9.95
541.748	9.97
541.945	9.99
542.143	9.99
542.34	10.04
542.537	10.08
542.735	10.13
542.932	10.15
543.129	10.16
543.327	10.21
543.524	10.27
543.721	10.34
543.919	10.38
544.116	10.44
544.313	10.48
544.51	10.48
544.708	10.52
544.905	10.57
545.102	10.56
545.299	10.58
545.496	10.6
545.693	10.61
545.891	10.62
546.088	10.64
546.285	10.65
546.482	10.7
546.679	10.73
546.876	10.75
547.073	10.78
547.27	10.86
547.467	10.93
547.664	10.96
547.861	11
548.058	11.01
548.255	11.05
548.452	11.05
548.649	11.09
548.846	11.14
549.043	11.14
549.24	11.17
549.437	11.19
549.633	11.21
549.83	11.24
550.027	11.27
550.224	11.31
550.421	11.33
550.618	11.41
550.814	11.45
551.011	11.49
551.208	11.61
551.405	11.65
551.601	11.69
551.798	11.69
551.995	11.71
552.191	11.69
552.388	11.69
552.585	11.76
552.781	11.79
552.978	11.83
553.175	11.84
553.371	11.83
553.568	11.81
553.764	11.8
553.961	11.88
554.157	11.95
554.354	11.98
554.55	12.09
554.747	12.06
554.943	12.05
555.14	12.06
555.336	12.08
555.533	12.12
555.729	12.2
555.926	12.23
556.122	12.18
556.318	12.14
556.515	12.21
556.711	12.23
556.907	12.26
557.104	12.33
557.3	12.29
557.496	12.36
557.693	12.39
557.889	12.36
558.085	12.42
558.281	12.47
558.478	12.5
558.674	12.55
558.87	12.5
559.066	12.52
559.262	12.55
559.459	12.62
559.655	12.6
559.851	12.59
560.047	12.62
560.243	12.62
560.439	12.66
560.635	12.7
560.831	12.66
561.027	12.71
561.223	12.72
561.419	12.71
561.615	12.68
561.811	12.7
562.007	12.71
562.203	12.74
562.399	12.75
562.595	12.76
562.791	12.73
562.987	12.82
563.183	12.88
563.379	12.95
563.575	12.98
563.771	13.06
563.966	13.11
564.162	13.14
564.358	13.17
564.554	13.22
564.75	13.26
564.945	13.32
565.141	13.31
565.337	13.32
565.533	13.35
565.728	13.38
565.924	13.41
566.12	13.42
566.315	13.48
566.511	13.47
566.707	13.49
566.902	13.45
567.098	13.48
567.293	13.47
567.489	13.48
567.684	13.49
567.88	13.46
568.076	13.43
568.271	13.49
568.467	13.47
568.662	13.54
568.858	13.52
569.053	13.64
569.248	13.63
569.444	13.66
569.639	13.68
569.835	13.66
570.03	13.74
570.225	13.71
570.421	13.75
570.616	13.77
570.812	13.77
571.007	13.8
571.202	13.77
571.397	13.75
571.593	13.75
571.788	13.77
571.983	13.76
572.178	13.74
572.374	13.79
572.569	13.78
572.764	13.8
572.959	13.8
573.154	13.79
573.35	13.83
573.545	13.89
573.74	13.88
573.935	13.88
574.13	13.92
574.325	13.91
574.52	13.92
574.715	13.89
574.91	13.91
575.105	13.94
575.3	13.97
575.495	13.98
575.69	13.99
575.885	14.07
576.08	14.09
576.275	14.16
576.47	14.21
576.665	14.21
576.86	14.25
577.055	14.27
577.25	14.32
577.444	14.39
577.639	14.38
577.834	14.4
578.029	14.4
578.224	14.38
578.418	14.35
578.613	14.34
578.808	14.44
579.003	14.43
579.197	14.45
579.392	14.4
579.587	14.34
579.781	14.36
579.976	14.32
580.171	14.3
580.365	14.42
580.56	14.43
580.755	14.5
580.949	14.51
581.144	14.5
581.338	14.53
581.533	14.55
581.727	14.58
581.922	14.59
582.116	14.65
582.311	14.64
582.505	14.64
582.7	14.67
582.894	14.62
583.089	14.63
583.283	14.6
583.478	14.56
583.672	14.61
583.866	14.6
584.061	14.55
584.255	14.55
584.449	14.57
584.644	14.58
584.838	14.55
585.032	14.54
585.226	14.49
585.421	14.53
585.615	14.55
585.809	14.51
586.003	14.49
586.198	14.56
586.392	14.56
586.586	14.55
586.78	14.46
586.974	14.49
587.168	14.53
587.363	14.5
587.557	14.49
587.751	14.49
587.945	14.49
588.139	14.53
588.333	14.5
588.527	14.53
588.721	14.55
588.915	14.59
589.109	14.56
589.303	14.49
589.497	14.51
589.691	14.58
589.885	14.63
590.079	14.6
590.273	14.6
590.466	14.6
590.66	14.63
590.854	14.62
591.048	14.58
591.242	14.6
591.436	14.61
591.629	14.62
591.823	14.56
592.017	14.58
592.211	14.68
592.404	14.71
592.598	14.72
592.792	14.79
592.986	14.88
593.179	14.95
593.373	14.94
593.567	14.96
593.76	15.01
593.954	15.03
594.147	15.06
594.341	15.02
594.535	15.07
594.728	15.12
594.922	15.05
595.115	15
595.309	15.02
595.502	15.05
595.696	15.02
595.889	15
596.083	14.97
596.276	14.89
596.47	14.9
596.663	14.89
596.856	14.84
597.05	14.85
597.243	14.79
597.437	14.78
597.63	14.82
597.823	14.85
598.017	14.87
598.21	14.94
598.403	14.93
598.596	14.9
598.79	14.92
598.983	14.92
599.176	14.92
599.369	14.97
599.563	14.98
599.756	14.94
599.949	14.96
600.142	14.98
600.335	14.98
600.528	14.98
600.722	15.05
600.915	14.99
601.108	15.04
601.301	15.03
601.494	15.05
601.687	15.01
601.88	15.1
602.073	15.1
602.266	15.05
602.459	15.02
602.652	15.02
602.845	15.04
603.038	15.09
603.231	15.04
603.424	15.08
603.617	15.08
603.809	15.05
604.002	15
604.195	14.98
604.388	15.02
604.581	14.99
604.774	15
604.966	14.97
605.159	14.89
605.352	14.94
605.545	14.96
605.737	15
605.93	15
606.123	14.93
606.316	14.96
606.508	14.98
606.701	15.1
606.894	15.15
607.086	15.13
607.279	15.16
607.471	15.14
607.664	15.1
607.857	15.16
608.049	15.27
608.242	15.39
608.434	15.46
608.627	15.5
608.819	15.44
609.012	15.47
609.204	15.46
609.397	15.51
609.589	15.56
609.782	15.52
609.974	15.47
610.166	15.46
610.359	15.45
610.551	15.39
610.743	15.38
610.936	15.38
611.128	15.4
611.32	15.43
611.513	15.46
611.705	15.41
611.897	15.43
612.09	15.42
612.282	15.35
612.474	15.31
612.666	15.44
612.858	15.39
613.051	15.44
613.243	15.38
613.435	15.4
613.627	15.43
613.819	15.42
614.011	15.52
614.203	15.48
614.395	15.48
614.588	15.45
614.78	15.33
614.972	15.39
615.164	15.28
615.356	15.18
615.548	15.21
615.74	15.14
615.932	15.2
616.124	15.07
616.315	15.11
616.507	15.12
616.699	15.21
616.891	15.22
617.083	15.25
617.275	15.41
617.467	15.44
617.659	15.38
617.85	15.44
618.042	15.44
618.234	15.43
618.426	15.4
618.618	15.47
618.809	15.43
619.001	15.5
619.193	15.45
619.384	15.36
619.576	15.43
619.768	15.49
619.959	15.37
620.151	15.35
620.343	15.41
620.534	15.44
620.726	15.39
620.917	15.5
621.109	15.46
621.301	15.46
621.492	15.41
621.684	15.35
621.875	15.34
622.067	15.4
622.258	15.39
622.45	15.37
622.641	15.4
622.832	15.4
623.024	15.33
623.215	15.29
623.407	15.34
623.598	15.49
623.789	15.54
623.981	15.52
624.172	15.56
624.363	15.55
624.555	15.58
624.746	15.54
624.937	15.58
625.129	15.51
625.32	15.49
625.511	15.52
625.702	15.41
625.893	15.41
626.085	15.49
626.276	15.53
626.467	15.51
626.658	15.5
626.849	15.48
627.04	15.41
627.231	15.46
627.422	15.54
627.614	15.56
627.805	15.63
627.996	15.66
628.187	15.6
628.378	15.57
628.569	15.61
628.76	15.58
628.951	15.59
629.142	15.58
629.332	15.53
629.523	15.47
629.714	15.4
629.905	15.34
630.096	15.29
630.287	15.31
630.478	15.31
630.669	15.36
630.859	15.37
631.05	15.41
631.241	15.43
631.432	15.49
631.623	15.6
631.813	15.63
632.004	15.67
632.195	15.7
632.385	15.67
632.576	15.73
632.767	15.7
632.957	15.73
633.148	15.73
633.339	15.7
633.529	15.69
633.72	15.62
633.91	15.53
634.101	15.56
634.292	15.52
634.482	15.47
634.673	15.38
634.863	15.38
635.054	15.39
635.244	15.43
635.435	15.45
635.625	15.44
635.815	15.42
636.006	15.52
636.196	15.47
636.387	15.47
636.577	15.51
636.767	15.51
636.958	15.49
637.148	15.44
637.338	15.39
637.529	15.5
637.719	15.48
637.909	15.53
638.099	15.5
638.29	15.56
638.48	15.77
638.67	15.85
638.86	15.9
639.05	15.97
639.241	16.05
639.431	16.07
639.621	15.98
639.811	16.09
640.001	15.96
640.191	15.97
640.381	15.87
640.571	15.7
640.761	15.63
640.951	15.59
641.141	15.52
641.331	15.41
641.521	15.4
641.711	15.5
641.901	15.46
642.091	15.57
642.281	15.61
642.471	15.55
642.661	15.61
642.851	15.63
643.041	15.63
643.231	15.65
643.42	15.75
643.61	15.63
643.8	15.47
643.99	15.42
644.18	15.45
644.369	15.4
644.559	15.52
644.749	15.48
644.939	15.36
645.128	15.31
645.318	15.29
645.508	15.29
645.697	15.4
645.887	15.52
646.076	15.56
646.266	15.51
646.456	15.51
646.645	15.45
646.835	15.5
647.024	15.57
647.214	15.63
647.403	15.65
647.593	15.69
647.782	15.71
647.972	15.61
648.161	15.5
648.351	15.49
648.54	15.55
648.73	15.56
648.919	15.56
649.108	15.64
649.298	15.67
649.487	15.67
649.677	15.62
649.866	15.6
650.055	15.67
650.244	15.76
650.434	15.74
650.623	15.67
650.812	15.69
651.002	15.57
651.191	15.61
651.38	15.56
651.569	15.62
651.758	15.59
651.947	15.52
652.137	15.49
652.326	15.46
652.515	15.48
652.704	15.55
652.893	15.55
653.082	15.57
653.271	15.62
653.46	15.56
653.649	15.54
653.838	15.51
654.027	15.61
654.216	15.61
654.405	15.75
654.594	15.78
654.783	15.73
654.972	15.77
655.161	15.76
655.35	15.66
655.539	15.78
655.728	15.72
655.916	15.74
656.105	15.76
656.294	15.77
656.483	15.62
656.672	15.63
656.86	15.62
657.049	15.51
657.238	15.56
657.427	15.53
657.615	15.54
657.804	15.5
657.993	15.58
658.181	15.51
658.37	15.49
658.559	15.56
658.747	15.63
658.936	15.67
659.125	15.76
659.313	15.77
659.502	15.76
659.69	15.71
659.879	15.79
660.067	15.77
660.256	15.88
660.444	15.95
660.633	15.92
660.821	15.83
661.01	15.87
661.198	15.88
661.387	15.87
661.575	15.99
661.763	16.03
661.952	15.98
662.14	15.98
662.328	15.86
662.517	15.87
662.705	15.85
662.893	15.89
663.082	15.79
663.27	15.73
663.458	15.68
663.646	15.58
663.834	15.68
664.023	15.72
664.211	15.72
664.399	15.79
664.587	15.75
664.775	15.73
664.963	15.71
665.152	15.79
665.34	15.8
665.528	15.86
665.716	15.97
665.904	15.79
666.092	15.86
666.28	15.81
666.468	15.82
666.656	15.78
666.844	15.82
667.032	15.81
667.22	15.78
667.408	15.77
667.596	15.7
667.784	15.64
667.971	15.87
668.159	15.83
668.347	15.8
668.535	15.72
668.723	15.71
668.911	15.75
669.098	15.71
669.286	15.7
669.474	15.77
669.662	15.8
669.849	15.78
670.037	15.57
670.225	15.58
670.413	15.58
670.6	15.68
670.788	15.71
670.976	15.79
671.163	15.82
671.351	15.89
671.538	15.86
671.726	15.93
671.913	15.96
672.101	15.9
672.289	15.88
672.476	16.02
672.664	15.94
672.851	15.92
673.039	15.77
673.226	15.71
673.413	15.66
673.601	15.77
673.788	15.77
673.976	15.67
674.163	15.76
674.35	15.61
674.538	15.59
674.725	15.6
674.912	15.68
675.1	15.71
675.287	15.82
675.474	15.78
675.662	15.87
675.849	15.71
676.036	15.85
676.223	15.99
676.411	16.1
676.598	16.06
676.785	16.1
676.972	16.04
677.159	16.08
677.346	16.03
677.533	16.07
677.721	15.93
677.908	16.12
678.095	16.08
678.282	16.09
678.469	16.09
678.656	16.12
678.843	16.14
679.03	16.18
679.217	16.2
679.404	16.23
679.591	16.25
679.778	16.25
679.964	16.15
680.151	16.18
680.338	16.15
680.525	16.29
680.712	16.3
680.899	16.27
681.086	16.24
681.272	16.21
681.459	16.23
681.646	16.24
681.833	16.21
682.02	16.29
682.206	16.29
682.393	16.25
682.58	16.05
682.766	16.06
682.953	15.98
683.14	16.02
683.326	16.09
683.513	16.05
683.7	16.04
683.886	16.06
684.073	15.96
684.259	15.93
684.446	15.92
684.632	15.99
684.819	15.92
685.005	15.97
685.192	15.96
685.378	15.91
685.565	15.9
685.751	15.86
685.938	15.82
686.124	15.85
686.31	15.89
686.497	15.86
686.683	15.89
686.87	15.9
687.056	15.89
687.242	15.87
687.429	15.8
687.615	15.75
687.801	15.9
687.987	15.81
688.174	15.74
688.36	15.81
688.546	15.89
688.732	15.89
688.918	15.95
689.105	15.96
689.291	15.98
689.477	16.07
689.663	16.29
689.849	16.17
690.035	16.32
690.221	16.45
690.407	16.25
690.593	16.2
690.779	16.25
690.965	16.22
691.151	16.32
691.337	16.43
691.523	16.43
691.709	16.28
691.895	16.32
692.081	16.2
692.267	16.17
692.453	16.2
692.639	16.16
692.825	16.21
693.011	16.1
693.196	15.95
693.382	15.92
693.568	15.87
693.754	15.8
693.94	15.75
694.125	15.83
694.311	15.93
694.497	16.11
694.682	16.13
694.868	16.2
695.054	16.33
695.239	16.36
695.425	16.34
695.611	16.45
695.796	16.61
695.982	16.71
696.168	16.64
696.353	16.59
696.539	16.5
696.724	16.41
696.91	16.38
697.095	16.39
697.281	16.43
697.466	16.38
697.652	16.31
697.837	16.26
698.023	16.17
698.208	16.24
698.393	16.28
698.579	16.25
698.764	16.27
698.949	16.19
699.135	16.13
699.32	16.18
699.505	16.22
699.691	16.17
699.876	16.23
700.061	16.24
700.246	16.19
700.432	16.07
700.617	16.15
700.802	16.31
700.987	16.3
701.172	16.47
701.358	16.34
701.543	16.37
701.728	16.38
701.913	16.27
702.098	16.43
702.283	16.65
702.468	16.7
702.653	16.6
702.838	16.54
703.023	16.55
703.208	16.33
703.393	16.41
703.578	16.45
703.763	16.53
703.948	16.58
704.133	16.44
704.318	16.15
704.503	16.21
704.688	16.35
704.873	16.28
705.057	16.41
705.242	16.49
705.427	16.59
705.612	16.45
705.797	16.56
705.981	16.47
706.166	16.51
706.351	16.63
706.536	16.53
706.72	16.48
706.905	16.4
707.09	16.36
707.274	16.27
707.459	16.08
707.644	16.23
707.828	16.08
708.013	16.09
708.197	16.1
708.382	15.98
708.567	16.08
708.751	16.07
708.936	16.17
709.12	16.19
709.305	16.26
709.489	16.44
709.673	16.39
709.858	16.3
710.042	16.41
710.227	16.3
710.411	16.38
710.596	16.5
710.78	16.54
710.964	16.5
711.149	16.48
711.333	16.57
711.517	16.58
711.702	16.42
711.886	16.62
712.07	16.65
712.254	16.76
712.438	16.7
712.623	16.56
712.807	16.53
712.991	16.44
713.175	16.44
713.359	16.42
713.544	16.41
713.728	16.52
713.912	16.38
714.096	16.31
714.28	16.27
714.464	16.28
714.648	16.42
714.832	16.42
715.016	16.53
715.2	16.45
715.384	16.48
715.568	16.4
715.752	16.33
715.936	16.52
716.12	16.54
716.304	16.51
716.488	16.64
716.671	16.55
716.855	16.49
717.039	16.43
717.223	16.46
717.407	16.26
717.59	16.18
717.774	16.41
717.958	16.32
718.142	16.22
718.325	16.23
718.509	16.14
718.693	15.98
718.877	15.78
719.06	15.85
719.244	15.65
719.428	15.59
719.611	15.78
719.795	15.61
719.978	15.61
720.162	15.71
720.345	15.78
720.529	15.72
720.713	16
720.896	16.27
721.08	16.25
721.263	16.47
721.446	16.66
721.63	16.56
721.813	16.81
721.997	16.78
722.18	16.8
722.364	16.94
722.547	16.98
722.73	16.87
722.914	16.93
723.097	17.04
723.28	17.09
723.464	17.16
723.647	17.18
723.83	17.12
724.013	17
724.197	16.97
724.38	16.84
724.563	16.67
724.746	16.63
724.929	16.7
725.112	16.73
725.296	16.65
725.479	16.59
725.662	16.64
725.845	16.53
726.028	16.45
726.211	16.38
726.394	16.39
726.577	16.67
726.76	16.62
726.943	16.41
727.126	16.31
727.309	16.38
727.492	16.25
727.675	16.21
727.858	16.03
728.041	16.31
728.224	16.24
728.407	16.35
728.589	16.37
728.772	16.36
728.955	16.5
729.138	16.6
729.321	16.62
729.503	16.92
729.686	16.88
729.869	16.96
730.052	16.99
730.234	17.1
730.417	16.92
730.6	16.78
730.782	16.64
730.965	16.63
731.148	16.48
731.33	16.5
731.513	16.21
731.695	16.23
731.878	16.26
732.061	16.15
732.243	16.22
732.426	16.21
732.608	16.25
732.791	16.36
732.973	16.4
733.156	16.66
733.338	16.62
733.52	16.55
733.703	16.57
733.885	16.75
734.068	16.77
734.25	16.74
734.432	16.79
734.615	16.89
734.797	16.9
734.979	16.88
735.162	16.61
735.344	16.54
735.526	16.65
735.708	16.55
735.891	16.38
736.073	16.44
736.255	16.53
736.437	16.61
736.619	16.4
736.802	16.45
736.984	16.35
737.166	16.36
737.348	16.27
737.53	16.23
737.712	16.09
737.894	16.19
738.076	16.06
738.258	15.82
738.44	15.84
738.622	15.89
738.804	15.92
738.986	16.06
739.168	16.11
739.35	16.32
739.532	16.48
739.714	16.58
739.896	16.49
740.078	16.73
740.259	16.89
740.441	16.89
740.623	16.99
740.805	16.95
740.987	16.89
741.168	16.62
741.35	16.46
741.532	16.58
741.714	16.69
741.895	16.62
742.077	16.47
742.259	16.54
742.44	16.46
742.622	16.35
742.804	16.37
742.985	16.21
743.167	16.21
743.348	16.23
743.53	16.31
743.711	16.49
743.893	16.48
744.075	16.36
744.256	16.09
744.438	16.08
744.619	16.26
744.8	16.21
744.982	16.49
745.163	16.95
745.345	17.17
745.526	17.21
745.707	16.85
745.889	16.89
746.07	16.82
746.252	17.16
746.433	17.19
746.614	17.12
746.795	17.38
746.977	17.54
747.158	17.44
747.339	17.27
747.52	16.94
747.702	17.21
747.883	17.03
748.064	17.26
748.245	17.23
748.426	17.03
748.607	17.04
748.788	16.91
748.97	16.54
749.151	16.76
749.332	16.86
749.513	17.11
749.694	16.9
749.875	17.08
750.056	16.98
750.237	16.59
750.418	16.55
750.599	16.25
750.78	16.05
750.96	16.18
751.141	16.02
751.322	15.99
751.503	15.59
751.684	15.74
751.865	15.95
752.046	16.18
752.226	16.38
752.407	16.65
752.588	16.99
752.769	17.26
752.949	17.32
753.13	17
753.311	17.08
753.492	17.24
753.672	17.42
753.853	17.07
754.034	17.12
754.214	17.11
754.395	17.02
754.575	17.38
754.756	17.1
754.937	17.06
755.117	17.21
755.298	17.08
755.478	17.21
755.659	17.1
755.839	17.44
756.02	17.3
756.2	17.08
756.381	17.07
756.561	16.66
756.741	16.89
756.922	16.72
757.102	16.83
757.283	16.75
757.463	16.82
757.643	16.6
757.823	16.52
758.004	16.35
758.184	16.88
758.364	16.88
758.545	16.97
758.725	16.78
758.905	16.79
759.085	16.71
759.265	16.63
759.446	16.46
759.626	16.69
759.806	16.69
759.986	16.75
760.166	16.33
760.346	16.22
760.526	16.04
760.706	16.12
760.886	16.27
761.066	16.08
761.246	16.38
761.426	16.44
761.606	16.13
761.786	16
761.966	16.18
762.146	16.22
762.326	16.36
762.506	16.41
762.686	16.4
762.866	16.2
763.046	16.28
763.225	16.23
763.405	16.15
763.585	16.42
763.765	16.57
763.945	16.26
764.124	16.37
764.304	16.25
764.484	16.4
764.664	16.49
764.843	16.74
765.023	17.07
765.203	17.04
765.382	17.31
765.562	17.31
765.741	17.15
765.921	17.33
766.101	17.3
766.28	17.38
766.46	17.21
766.639	17.29
766.819	16.99
766.998	16.74
767.178	16.74
767.357	16.63
767.537	16.29
767.716	16.32
767.896	16.35
768.075	16.21
768.254	16.23
768.434	16.44
768.613	15.98
768.792	16.18
768.972	16.19
769.151	16.18
769.33	16.52
769.51	16.65
769.689	16.54
769.868	16.64
770.047	17.01
770.226	17.19
770.406	17.11
770.585	17.5
770.764	17.57
770.943	17.54
771.122	17.56
771.301	17.29
771.48	17.72
771.66	17.97
771.839	17.9
772.018	17.53
772.197	17.35
772.376	17.35
772.555	17.35
772.734	17.39
772.913	17.69
773.092	17.72
773.271	17.57
773.449	17.22
773.628	17.36
773.807	17.14
773.986	16.92
774.165	16.94
774.344	16.94
774.523	17.02
774.701	16.79
774.88	16.35
775.059	16.54
775.238	16.71
775.417	16.48
775.595	16.12
775.774	16.83
775.953	17.26
776.131	17.28
776.31	17.32
776.489	17.01
776.667	17
776.846	17.31
777.025	17.13
777.203	17.05
777.382	17.3
777.56	17.4
777.739	16.67
777.917	16.67
778.096	16.69
778.274	16.62
778.453	17.01
778.631	16.97
778.81	16.61
778.988	16.44
779.166	16.5
779.345	16.54
779.523	16.55
779.702	17.16
779.88	17.05
780.058	16.91
780.237	16.86
780.415	16.88
780.593	17.06
780.771	17.13
780.95	17.34
781.128	17.49
781.306	17.61
781.484	17.62
781.662	17.23
781.841	17.44
782.019	17.34
782.197	17.22
782.375	17.08
782.553	17.41
782.731	17.78
782.909	17.89
783.087	17.94
783.265	18.24
783.443	18.61
783.621	18.55
783.799	18.87
783.977	19.38
784.155	19.44
784.333	19.2
784.511	18.87
784.689	18.61
784.867	18.44
785.045	17.69
785.223	17.39
785.4	16.98
785.578	16.76
785.756	16.43
785.934	16.07
786.112	15.99
786.289	16.2
786.467	15.8
786.645	15.99
786.823	15.71
787	16.16
787.178	16.48
787.356	16.42
787.533	16.69
787.711	16.64
787.889	17.35
788.066	17.73
788.244	17.53
788.421	18.28
788.599	18.31
788.776	18.35
788.954	18.35
789.131	17.83
789.309	17.99
789.486	18.04
789.664	18.37
789.841	17.47
790.019	17.2
790.196	17.44
790.373	16.85
790.551	16.23
790.728	16.77
790.906	16.44
791.083	15.81
791.26	15.81
791.437	15.53
791.615	15.17
791.792	15.31
791.969	15.32
792.146	15.21
792.324	16.06
792.501	16.9
792.678	16.66
792.855	16.51
793.032	17.22
793.209	17.6
793.387	18.37
793.564	18.1
793.741	18.05
793.918	17.57
794.095	17.54
794.272	17.22
794.449	16.82
794.626	17.21
794.803	17.44
794.98	17.24
795.157	17.01
795.334	16.65
795.511	16.48
795.688	16.44
795.864	16.74
796.041	17.71
796.218	17.54
796.395	17.85
796.572	17.3
796.749	17.54
796.925	17.75
797.102	17.72
797.279	17.74
797.456	18.17
797.632	18.24
797.809	18.46
797.986	17.37
798.162	17.24
798.339	16.87
798.516	16.85
798.692	16.91
798.869	17.44
799.046	16.95
799.222	17.17
799.399	16.76
799.575	17.43
799.752	17.28
799.928	17.09
800.105	17.07
800.281	17.26
800.458	17.83
800.634	17.72
800.811	17.06
800.987	17.48
801.163	17.04
801.34	17.14
801.516	16.68
801.692	16.6
801.869	17.05
802.045	17.41
802.221	17.36
802.398	17.03
802.574	17.03
802.75	16.78
802.926	16.69
803.103	16.08
803.279	16.48
803.455	16.61
803.631	17.28
803.807	16.63
803.983	16.24
804.16	16.16
804.336	15.21
804.512	15.35
804.688	16.31
804.864	16.45
805.04	17.27
805.216	17.43
805.392	17.15
805.568	16.98
805.744	18.02
805.92	18.54
806.096	18.75
806.272	19.98
806.448	19.19
806.623	18.51
806.799	18.55
806.975	18.91
807.151	19.1
807.327	18.94
807.503	19.19
807.678	18.62
807.854	18.21
808.03	18.23
808.206	17.94
808.381	18.45
808.557	18.31
808.733	18.11
808.908	17.78
809.084	17.58
809.26	17.93
809.435	17.77
809.611	18.04
809.787	17.7
809.962	17.35
810.138	17.38
810.313	17.48
810.489	18.21
810.664	18.65
810.84	17.88
811.015	17.98
811.191	17.22
811.366	16.54
811.542	16.32
811.717	17.01
811.892	16.85
812.068	17.15
812.243	17.78
812.419	17.51
812.594	17.46
812.769	18.29
812.944	18.02
813.12	17.5
813.295	17.99
813.47	18.36
813.645	18.03
813.821	18.7
813.996	18.26
814.171	18.11
814.346	18.09
814.521	17.72
814.697	17.2
814.872	17.4
815.047	18.04
815.222	17.32
815.397	17.43
815.572	17.4
815.747	17.44
815.922	17.66
816.097	17.61
816.272	17.06
816.447	17.47
816.622	18.31
816.797	17.71
816.972	18.16
817.147	18.31
817.322	18.05
817.496	17.84
817.671	18.33
817.846	18.21
818.021	17.23
818.196	17.44
818.371	17.41
818.545	17.23
818.72	17.26
818.895	17.5
819.069	17.82
819.244	17.68
819.419	17.79
819.594	17.49
819.768	17.44
819.943	17.71
820.117	17.7
820.292	17.68
820.467	17.59
820.641	17.72
820.816	17.59
820.99	17.46
821.165	17.41
821.339	17.28
821.514	17.13
821.688	17.1
821.863	16.93
822.037	16.94
822.212	16.8
822.386	16.64
822.56	16.53
822.735	16.33
822.909	16.25
823.084	16.06
823.258	16.1
823.432	16.1
823.606	16.02
823.781	16.12
823.955	16.03
824.129	15.93
824.303	16.19
824.478	16.33
824.652	16.5
824.826	16.52
825	16.81
825.174	16.55
825.348	16.31
825.523	16.29
825.697	15.95
825.871	15.93
826.045	16.16
826.219	16.11
826.393	15.94
826.567	16.04
826.741	16.2
826.915	16.31
827.089	16.46
827.263	16.87
827.437	16.98
827.611	17.25
827.784	17.25
827.958	17.35
828.132	17.47
828.306	17.69
828.48	17.7
828.654	17.78
828.827	17.5
829.001	18.05
829.175	17.56
829.349	17.98
829.522	18.08
829.696	18.48
829.87	17.99
830.044	18.16
830.217	18.56
830.391	18.68
830.565	19.23
830.738	19.21
830.912	18.54
831.085	19.11
831.259	18.61
831.432	19.18
831.606	18.46
831.779	18.56
831.953	17.72
832.126	17.38
832.3	17.23
832.473	16.87
832.647	16.73
832.82	16.83
832.994	16.61
833.167	16.28
833.34	15.91
833.514	16.13
833.687	16.24
833.86	16.23
834.034	16.34
834.207	16.19
834.38	15.69
834.553	16.13
834.727	16.27
834.9	16.52
835.073	16.47
835.246	16.88
835.419	16.77
835.593	17.35
835.766	17.85
835.939	17.62
836.112	18.18
836.285	18.89
836.458	18.61
836.631	18.3
836.804	17.78
836.977	18.4
837.15	18.46
837.323	18.33
837.496	16.61
837.669	16.6
837.842	16.39
838.015	16.58
838.188	16.72
838.361	17
838.533	17.26
838.706	15.87
838.879	15.88
839.052	15.41
839.225	15.98
839.398	17.29
839.57	16.47
839.743	16.61
839.916	16.54
840.088	16.75
840.261	16.44
840.434	16.85
840.607	17.53
840.779	18.16
840.952	17.99
841.124	18.31
841.297	18.52
841.47	19.1
841.642	19.29
841.815	18.89
841.987	17.76
842.16	18.3
842.332	17.15
842.505	17.76
842.677	17.97
842.85	18.39
843.022	18.16
843.194	18.35
843.367	18.72
843.539	18.08
843.712	17.59
843.884	17.41
844.056	17.09
844.229	18.62
844.401	18.99
844.573	18.96
844.745	17.64
844.918	18.45
845.09	17.97
845.262	17
845.434	18.91
845.606	19.35
845.779	21.46
845.951	22.6
846.123	21.59
846.295	21.57
846.467	19.8
846.639	20.18
846.811	19.26
846.983	18.16
847.155	18.48
847.327	17.61
847.499	18.33
847.671	16.48
847.843	14.56
848.015	13.83
848.187	15.69
848.359	17.42
848.531	18.99
848.703	19.15
848.875	21.74
849.047	22.2
849.218	23.12
849.39	23.97
849.562	26.16
849.734	26.3
849.905	27.5
850.077	27.63
850.249	27.35
850.421	28.77
850.592	30.07
850.764	27.03
850.936	28.3
851.107	27.22
851.279	25.9
851.451	25.33
851.622	25.59
851.794	26.24
851.965	24.79
852.137	23.4
852.308	21.51
852.48	21.67
852.651	21.61
852.823	20.98
852.994	21.16
853.166	21.19
853.337	20.32
853.509	22.13
853.68	20.98
853.851	21.47
854.023	21.65
854.194	21.01
854.365	19.05
854.537	18.93
854.708	20.75
854.879	19.16
855.05	20.08
855.222	21.75
855.393	19.89
855.564	18.81
855.735	17.45
855.906	16.86
856.078	15.72
856.249	19.76
856.42	17.79
856.591	14.72
856.762	17.03
856.933	15.5
857.104	13.79
857.275	15.07
857.446	17.24
857.617	17.52
857.788	18.19
857.959	18.08
858.13	14.31
858.301	16.38
858.472	17.2
858.643	16.5
858.814	18.52
858.985	21.13
859.155	19.13
859.326	20.14
859.497	21.55
859.668	20.92
859.839	22.04
860.009	22.62
860.18	23.34
860.351	25.99
860.522	26.51
860.692	25.68
860.863	24.87
861.034	25.68
861.204	23.57
861.375	24.72
861.546	25.36
861.716	25.26
861.887	23.14
862.057	24.01
862.228	21.81
862.398	19.64
862.569	20.82
862.739	18.66
862.91	20.48
863.08	20.12
863.251	16.42
863.421	15.39
863.592	16.77
863.762	19.28
863.932	17.02
864.103	16.46
864.273	17.63
864.443	17.43
864.614	17.39
864.784	18.14
864.954	19.2
865.125	21.98
865.295	23.22
865.465	22.5
865.635	22.94
865.805	25.03
865.976	23.73
866.146	23.7
866.316	21.98
866.486	23.93
866.656	21.26
866.826	19.15
866.996	17.64
867.166	18.9
867.336	20.34
867.506	20.31
867.676	18
867.846	17.46
868.016	17.07
868.186	15.06
868.356	13.24
868.526	14.59
868.696	15.83
868.866	16.78
869.036	14.03
869.206	14.45
869.376	13.66
869.545	14.48
869.715	18
869.885	18.42
870.055	20.2
870.224	21.23
870.394	20.97
870.564	23.31
870.734	21.84
870.903	23.03
871.073	22.72
871.243	23.45
871.412	24.53
871.582	23.91
871.751	25.85
871.921	26.76
872.091	24.14
872.26	25.27
872.43	25.09
872.599	25.08
872.769	24.86
872.938	23.51
873.108	23.61
873.277	22.26
873.446	24.55
873.616	24.21
873.785	26.52
873.955	28.81
874.124	27.15
874.293	24.92
874.463	25.86
874.632	24.51
874.801	23.9
874.971	23.23
875.14	25.4
875.309	21.73
875.478	19.19
875.647	17.23
875.817	15.44
875.986	14.45
876.155	14.63
876.324	12.37
876.493	14.92
876.662	17.23
876.831	16.45
877	15.77
877.17	19.42
877.339	21.23
877.508	23.42
877.677	26.27
877.846	27.58
878.015	28.75
878.184	29.1
878.352	28.72
878.521	28.13
878.69	25.89
878.859	24.81
879.028	22.82
879.197	22.66
879.366	20.46
879.534	19.81
879.703	18.6
879.872	17.99
880.041	19.12
880.21	19.11
880.378	18.47
880.547	19.74
880.716	19.63
880.884	18.66
881.053	18.16
881.222	17.96
881.39	17.71
881.559	17.8
881.727	17.73
881.896	16.95
882.065	16.48
882.233	16.56
882.402	16.11
882.57	15.79
882.739	16.14
882.907	16.36
883.076	16.44
883.244	16.65
883.412	16.7
883.581	16.84
883.749	17.13
883.918	17.69
884.086	18.06
884.254	18.27
884.423	18.79
884.591	19.31
884.759	18.43
884.927	18.35
885.096	17.29
885.264	17.71
885.432	17.2
885.6	17.35
885.769	16.37
885.937	16.2
886.105	15.09
886.273	16.37
886.441	15.75
886.609	17.14
886.777	16.61
886.945	17.57
887.113	18.02
887.281	17.13
887.449	19.3
887.617	21.48
887.785	21.13
887.953	23.37
888.121	20.27
888.289	21.77
888.457	23.43
888.625	26.82
888.793	27.43
888.961	24.31
889.129	25.33
889.296	24.01
889.464	22.68
889.632	22.93
889.8	21.52
889.967	23.35
890.135	22.7
