Data from JASIL_3082_Reflection_01.txt Node
Date: Mon Nov 09 11:59:36 EST 2015
User: Geneva
Spectrometer: USB4E03002
Autoset integration time: false
Trigger mode: 4
Integration Time (sec): 1.000000E-1
Scans to average: 10
Electric dark correction enabled: false
Nonlinearity correction enabled: false
Boxcar width: 5
Stray light correction enabled: false
XAxis mode: Wavelengths
Stop averaging: false
Number of Pixels in Spectrum: 3648
>>>>>Begin Spectral Data<<<<<
177.575	181.1
177.794	-10.53
178.014	332.65
178.233	179.77
178.452	257.25
178.672	216.04
178.891	169.88
179.11	277.08
179.33	144.13
179.549	68.37
179.768	57.29
179.987	74.47
180.207	111.02
180.426	71.46
180.645	84.73
180.864	28.29
181.084	39.18
181.303	4.74
181.522	86.43
181.741	463.64
181.96	-23.03
182.179	40
182.398	-13.1
182.618	14.63
182.837	-73.11
183.056	-40.21
183.275	-641.67
183.494	178.99
183.713	5850
183.932	800
184.151	64.71
184.37	61.18
184.589	89.79
184.808	79.92
185.027	73.45
185.246	86.87
185.465	106.8
185.684	155.72
185.903	511.7
186.122	615.09
186.341	468.6
186.56	1023.68
186.779	-231.69
186.998	-319.1
187.216	-1312
187.435	-145.65
187.654	3085.71
187.873	352.94
188.092	204
188.311	184.71
188.53	202.23
188.748	200
188.967	180.74
189.186	169.76
189.405	176.24
189.623	193.51
189.842	205.34
190.061	351.75
190.28	376.5
190.498	1359.09
190.717	606.02
190.936	331.25
191.154	231.89
191.373	273.04
191.592	330.07
191.81	456.32
192.029	179.93
192.248	151.75
192.466	126.46
192.685	118.82
192.904	80.96
193.122	78.87
193.341	95.75
193.559	108.3
193.778	132.13
193.996	139.17
194.215	176.43
194.433	220.76
194.652	162.96
194.87	201.91
195.089	249.4
195.307	558.76
195.526	825.93
195.744	1254.29
195.963	388.81
196.181	626.88
196.399	273.41
196.618	214.53
196.836	181.84
197.055	206.78
197.273	216.55
197.491	199.75
197.71	145.69
197.928	157.21
198.146	158.71
198.365	175.06
198.583	180.71
198.801	141.8
199.019	195.43
199.238	475.93
199.456	509.17
199.674	1100
199.892	-3536.36
200.111	-393.51
200.329	14500
200.547	261.93
200.765	132.65
200.983	122.38
201.202	198.29
201.42	156.92
201.638	128.15
201.856	126.62
202.074	103.59
202.292	125.72
202.51	137.1
202.728	123.73
202.946	146.18
203.165	157.12
203.383	155.92
203.601	125.64
203.819	100.14
204.037	111.91
204.255	151.87
204.473	177.67
204.691	145.41
204.909	161.03
205.127	138.43
205.345	118.79
205.562	145.14
205.78	142.09
205.998	161.23
206.216	228.04
206.434	174.9
206.652	153.35
206.87	130.1
207.088	108.25
207.306	98.31
207.523	97.66
207.741	136.43
207.959	1018.18
208.177	-198.44
208.395	612.5
208.612	733.33
208.83	448.78
209.048	270.87
209.266	14866.67
209.483	-556.82
209.701	-176.77
209.919	-148.84
210.136	-294.95
210.354	1379.03
210.572	1860.78
210.79	-620
211.007	-1164.06
211.225	-271.63
211.442	-122.63
211.66	-168.22
211.878	-134.69
212.095	-877.42
212.313	561.54
212.53	1206.06
212.748	-222.22
212.966	-634.29
213.183	1450
213.401	-65.73
213.618	25.79
213.836	128.97
214.053	0.75
214.271	-230.77
214.488	51.87
214.705	34.34
214.923	40.48
215.14	23.91
215.358	26.2
215.575	-17.39
215.793	-28.69
216.01	-112.21
216.227	-16.1
216.445	57.38
216.662	133.82
216.879	37.82
217.097	46.98
217.314	61.61
217.531	-4.55
217.749	-131.25
217.966	1120
218.183	4700
218.4	26.85
218.618	185.29
218.835	-432.35
219.052	-88.67
219.269	-62.31
219.487	-130.11
219.704	-1352
219.921	-710.61
220.138	486.84
220.355	1220.97
220.572	354.93
220.79	244.36
221.007	301.51
221.224	314.12
221.441	283.7
221.658	217.7
221.875	178.11
222.092	180.81
222.309	179.01
222.526	162.85
222.743	127.94
222.96	115.92
223.177	89.88
223.394	68.54
223.611	77.68
223.828	74.73
224.045	74.48
224.262	80.16
224.479	93.06
224.696	69.15
224.913	66.42
225.13	27.2
225.347	32.22
225.564	51.07
225.781	48.76
225.997	33.17
226.214	30.36
226.431	30.3
226.648	22.29
226.865	17.23
227.082	26.91
227.298	24.32
227.515	29.04
227.732	35.09
227.949	31.66
228.165	32.33
228.382	35.32
228.599	37.02
228.816	39.5
229.032	46.68
229.249	45.29
229.466	45.37
229.682	46.74
229.899	40.53
230.116	36.8
230.332	28.99
230.549	27.4
230.765	19.2
230.982	21.74
231.199	14.26
231.415	10.39
231.632	17.58
231.848	17.14
232.065	14.62
232.281	13.19
232.498	5.76
232.714	18.34
232.931	20.66
233.147	24.27
233.364	24.36
233.58	31.76
233.797	34.62
234.013	38.55
234.23	33.33
234.446	35.29
234.662	37.65
234.879	39.12
235.095	36.36
235.312	30.57
235.528	30.61
235.744	17.25
235.961	15.88
236.177	13.75
236.393	17.6
236.61	19.33
236.826	15.88
237.042	18.54
237.258	28.67
237.475	31.58
237.691	42.14
237.907	46.78
238.123	60.89
238.339	61.11
238.556	64.15
238.772	50.42
238.988	46.11
239.204	49.06
239.42	44.41
239.636	45.36
239.853	40.32
240.069	36.98
240.285	33.02
240.501	33.21
240.717	29.17
240.933	29.68
241.149	28.88
241.365	30.29
241.581	29.81
241.797	28.9
242.013	26.79
242.229	28.95
242.445	26.53
242.661	27.39
242.877	23.86
243.093	25.08
243.309	23.37
243.525	25.64
243.741	27.81
243.957	24.94
244.173	24.89
244.388	21.08
244.604	17.62
244.82	18.73
245.036	18.75
245.252	18.44
245.468	16.09
245.683	11.85
245.899	14.16
246.115	11.86
246.331	12.93
246.547	10.48
246.762	9.78
246.978	10.16
247.194	8.68
247.409	5.43
247.625	4.26
247.841	2.03
248.057	5.71
248.272	2.73
248.488	1.65
248.703	-1.95
248.919	5.3
249.135	9.26
249.35	4.69
249.566	8.05
249.782	8.45
249.997	12.16
250.213	15.57
250.428	11.44
250.644	7.67
250.859	7.7
251.075	5.97
251.29	4.34
251.506	-0.46
251.721	0
251.937	1.33
252.152	5.19
252.368	3.48
252.583	4.67
252.798	12.15
253.014	19.16
253.229	20.38
253.445	22.64
253.66	19.47
253.875	27.58
254.091	32.48
254.306	34.57
254.521	31.32
254.737	26.5
254.952	24.06
255.167	22
255.383	22.06
255.598	26.27
255.813	30.17
256.028	29.19
256.244	25.86
256.459	28.11
256.674	21.31
256.889	23.63
257.104	24.3
257.32	23.53
257.535	19.18
257.75	13.06
257.965	10.5
258.18	8.89
258.395	7.94
258.61	7.32
258.826	5.24
259.041	5.42
259.256	3.48
259.471	2.39
259.686	2.63
259.901	3.46
260.116	5.3
260.331	4.56
260.546	3.36
260.761	5.66
260.976	4.94
261.191	3.85
261.406	6.23
261.621	6.26
261.836	7.26
262.05	1.46
262.265	2.18
262.48	5.18
262.695	10.55
262.91	12.13
263.125	16.42
263.34	16.42
263.555	14.84
263.769	16.33
263.984	18.45
264.199	17.27
264.414	23.16
264.629	21.58
264.843	20.09
265.058	14.64
265.273	14.78
265.488	9.75
265.702	7.45
265.917	11.17
266.132	11.48
266.346	8.91
266.561	11.68
266.776	11.71
266.99	7.38
267.205	6.72
267.42	9.64
267.634	6.75
267.849	9.84
268.063	9.25
268.278	8.01
268.492	5.73
268.707	5.83
268.922	3.82
269.136	-2.58
269.351	2.71
269.565	3.02
269.78	2
269.994	4.11
270.209	0.79
270.423	4.18
270.637	3.41
270.852	4.2
271.066	5.87
271.281	3.48
271.495	5.14
271.709	5.3
271.924	2.7
272.138	1.1
272.353	1.57
272.567	3.46
272.781	4.44
272.996	5.79
273.21	8.3
273.424	5.5
273.638	9.03
273.853	8.53
274.067	4.49
274.281	7.27
274.495	10.1
274.71	11.04
274.924	8.26
275.138	7.13
275.352	1.2
275.566	-6.12
275.781	-4.61
275.995	-0.85
276.209	3.01
276.423	9.91
276.637	8.52
276.851	5.96
277.065	5.69
277.279	6.83
277.493	8.35
277.707	10.54
277.921	14.17
278.135	14.51
278.349	9.02
278.563	4.47
278.777	2.94
278.991	-1.64
279.205	1.74
279.419	0.6
279.633	-1.5
279.847	-3.17
280.061	-1.69
280.275	-2.25
280.489	0.3
280.703	1.54
280.917	4.71
281.131	3.1
281.344	8.51
281.558	4.58
281.772	3.88
281.986	5.7
282.2	3.5
282.414	4.01
282.627	3.15
282.841	0.61
283.055	-0.11
283.269	0.46
283.482	1.44
283.696	-1.31
283.91	2.46
284.123	1.84
284.337	3.03
284.551	4.44
284.764	5.11
284.978	5.08
285.192	3.93
285.405	5.62
285.619	2.01
285.833	2.24
286.046	3.29
286.26	2.28
286.473	1.58
286.687	1.31
286.9	5.8
287.114	2.19
287.327	3.07
287.541	3.27
287.754	3.09
287.968	3.89
288.181	4.77
288.395	5.95
288.608	5.2
288.822	6.16
289.035	4.51
289.248	1.55
289.462	3.52
289.675	4.33
289.889	5.92
290.102	5.02
290.315	10.91
290.529	10.03
290.742	10.02
290.955	11.36
291.169	13.76
291.382	15.6
291.595	12.43
291.808	11.66
292.022	10.06
292.235	10.17
292.448	9.82
292.661	4.23
292.875	2.88
293.088	3.86
293.301	2.37
293.514	1.71
293.727	4.61
293.94	6.85
294.153	9.15
294.367	9.01
294.58	8.5
294.793	7.73
295.006	6.72
295.219	7.79
295.432	6.35
295.645	8.63
295.858	6.38
296.071	5.07
296.284	4.82
296.497	4.76
296.71	6.82
296.923	6.76
297.136	9.24
297.349	11.89
297.562	10.97
297.775	10.42
297.988	10.8
298.201	12.01
298.414	11.67
298.626	11.8
298.839	11.2
299.052	9.13
299.265	9.28
299.478	8.08
299.691	7.55
299.903	9.51
300.116	10.54
300.329	7.74
300.542	7.1
300.755	6.22
300.967	6.35
301.18	7.01
301.393	8.57
301.605	8.04
301.818	6.66
302.031	6.64
302.243	5.99
302.456	5.24
302.669	6.29
302.881	8.57
303.094	9.67
303.307	11.14
303.519	10.89
303.732	7.46
303.944	9.62
304.157	11.13
304.37	10.3
304.582	9.48
304.795	11.65
305.007	9.78
305.22	11.46
305.432	11.76
305.645	10.62
305.857	6.58
306.069	6.97
306.282	5.56
306.494	4.69
306.707	4.14
306.919	6.69
307.132	1.17
307.344	3.68
307.556	2.41
307.769	0.25
307.981	-2.71
308.193	1.49
308.406	2.78
308.618	0.91
308.83	2.16
309.043	3.26
309.255	1.46
309.467	2.36
309.679	1.62
309.892	-0.09
310.104	3.42
310.316	5.38
310.528	3.9
310.74	4.48
310.953	6.94
311.165	5.9
311.377	5.59
311.589	8.1
311.801	9.6
312.013	7.49
312.225	7.73
312.437	3.21
312.649	3.91
312.862	3.88
313.074	1.35
313.286	-0.35
313.498	1.75
313.71	4.01
313.922	3.64
314.134	4.21
314.346	7.17
314.558	9.13
314.77	10.53
314.982	8.89
315.193	8.44
315.405	9.83
315.617	10.41
315.829	8.14
316.041	8.04
316.253	5.21
316.465	6.97
316.677	6.9
316.888	7.75
317.1	9.76
317.312	11.12
317.524	13.42
317.736	13.61
317.947	16.13
318.159	17.6
318.371	14.31
318.583	17.39
318.794	18.59
319.006	18.74
319.218	18.93
319.43	18.15
319.641	19.29
319.853	16.08
320.064	15.5
320.276	10.98
320.488	9.68
320.699	10.72
320.911	8.62
321.123	6.14
321.334	6.2
321.546	4.29
321.757	5.14
321.969	5.33
322.18	5.21
322.392	7.35
322.603	8.34
322.815	9.79
323.026	10
323.238	10.81
323.449	11.57
323.661	11.88
323.872	9.41
324.083	8.42
324.295	5.32
324.506	6.78
324.718	3.24
324.929	7.73
325.14	8.03
325.352	8.9
325.563	9.18
325.774	9.79
325.986	9.09
326.197	10.34
326.408	13
326.62	17.11
326.831	17.38
327.042	19.92
327.253	16.54
327.464	17.24
327.676	19.54
327.887	18.68
328.098	15.91
328.309	14.89
328.52	18.2
328.732	13.37
328.943	12.62
329.154	11.62
329.365	11.13
329.576	8.49
329.787	5.17
329.998	3.12
330.209	2.71
330.42	4.72
330.631	7.48
330.842	7.26
331.053	8.54
331.264	5.58
331.475	8.03
331.686	10.02
331.897	12.06
332.108	13.8
332.319	12.26
332.53	14.23
332.741	15.03
332.952	13.05
333.163	12.38
333.374	14.64
333.585	15.16
333.795	16.41
334.006	16.64
334.217	16.3
334.428	18.22
334.639	18.84
334.849	19.66
335.06	16.41
335.271	14.91
335.482	13.59
335.692	11.55
335.903	11.24
336.114	9.28
336.325	7.05
336.535	5.66
336.746	5.22
336.957	5.48
337.167	2.77
337.378	6.52
337.589	10.46
337.799	11.26
338.01	11.65
338.22	11.38
338.431	10.79
338.642	9.65
338.852	11.16
339.063	8.34
339.273	7.84
339.484	9.79
339.694	9.65
339.905	8.23
340.115	10.01
340.326	10.58
340.536	10.04
340.746	8.82
340.957	10.48
341.167	10.79
341.378	11.39
341.588	12.8
341.799	11.56
342.009	13.35
342.219	11.69
342.43	8.08
342.64	6.27
342.85	8.01
343.061	9.29
343.271	7.52
343.481	8.1
343.691	9.09
343.902	5.93
344.112	5.41
344.322	2.87
344.532	2.83
344.743	3.66
344.953	3.16
345.163	3.32
345.373	4.11
345.583	7.05
345.793	4.75
346.004	2.94
346.214	5.29
346.424	4.44
346.634	7.72
346.844	8.45
347.054	9.63
347.264	10.7
347.474	10.57
347.684	8.61
347.894	3.74
348.104	4.33
348.314	3.19
348.524	2.9
348.734	3.81
348.944	1.46
349.154	2.62
349.364	3.45
349.574	4.89
349.784	2.79
349.994	4.26
350.204	7.52
350.413	8.42
350.623	7.88
350.833	7.39
351.043	7.58
351.253	9.08
351.463	9.02
351.672	7.45
351.882	7.15
352.092	8.83
352.302	9.14
352.511	8.82
352.721	8.68
352.931	10.36
353.141	10.73
353.35	10.38
353.56	9.33
353.77	8.11
353.979	7.88
354.189	7.35
354.399	6.75
354.608	6.5
354.818	8.15
355.027	8.9
355.237	9.23
355.447	9.72
355.656	9.77
355.866	9.66
356.075	10.13
356.285	11.1
356.494	11.94
356.704	12.89
356.913	12.75
357.123	12.18
357.332	11.45
357.542	10.86
357.751	9.26
357.96	8.07
358.17	8.65
358.379	9.58
358.589	10.03
358.798	9.74
359.007	10.18
359.217	10.97
359.426	9.77
359.635	11.52
359.845	12.36
360.054	11.96
360.263	12.92
360.472	11.68
360.682	11.54
360.891	11.29
361.1	10.16
361.309	8.29
361.519	7.68
361.728	7.11
361.937	4.77
362.146	5.55
362.355	7.22
362.564	7.63
362.774	7.66
362.983	9.3
363.192	9.2
363.401	9.65
363.61	11.88
363.819	12.7
364.028	14.73
364.237	14.81
364.446	12.24
364.655	11.17
364.864	9.34
365.073	10.68
365.282	9.4
365.491	8.11
365.7	9.09
365.909	7.67
366.118	7.83
366.327	8.23
366.536	8.97
366.745	10.35
366.954	10.83
367.162	13.07
367.371	11.63
367.58	9.84
367.789	11.27
367.998	10.17
368.207	10.88
368.415	10.15
368.624	7.31
368.833	6.29
369.042	5.68
369.25	6.11
369.459	6.64
369.668	7.88
369.877	9.49
370.085	8.13
370.294	8.79
370.503	10.96
370.711	11.21
370.92	13.56
371.129	13.7
371.337	13.48
371.546	13.2
371.754	12.22
371.963	10.92
372.171	9.25
372.38	9.93
372.589	10.2
372.797	6.91
373.006	7.5
373.214	6.14
373.423	7.38
373.631	6.26
373.84	4.69
374.048	4.67
374.256	4.69
374.465	6.1
374.673	6.32
374.882	6.68
375.09	7.78
375.298	6.65
375.507	6.14
375.715	6.17
375.923	8.18
376.132	8.58
376.34	9.7
376.548	10.25
376.757	8.41
376.965	8.89
377.173	8.53
377.381	9.15
377.59	10.68
377.798	11.77
378.006	10
378.214	9.93
378.423	10.91
378.631	9.4
378.839	9.35
379.047	10.64
379.255	10.26
379.463	9.53
379.671	9.98
379.879	8.24
380.088	6.85
380.296	7.43
380.504	7.18
380.712	7.57
380.92	6.42
381.128	6.15
381.336	6.05
381.544	6.17
381.752	5.64
381.96	4.75
382.168	5.17
382.376	5.67
382.584	5.6
382.791	5.66
382.999	5.52
383.207	5.9
383.415	5.54
383.623	5.98
383.831	6.94
384.039	8.32
384.247	7.91
384.454	5.84
384.662	7.08
384.87	6.92
385.078	7.08
385.285	5.23
385.493	7.08
385.701	7.81
385.909	7.67
386.116	6.61
386.324	7.22
386.532	6.75
386.739	8.76
386.947	8.85
387.155	10.7
387.362	11.26
387.57	12.09
387.778	11.77
387.985	11.28
388.193	12.03
388.4	11.69
388.608	9.6
388.816	9.78
389.023	10.36
389.231	9.71
389.438	8.77
389.646	8.46
389.853	8.48
390.061	7.73
390.268	8.12
390.475	8.07
390.683	7.42
390.89	8.49
391.098	8.65
391.305	8.04
391.512	7.41
391.72	8.17
391.927	7.25
392.135	7.92
392.342	8.37
392.549	7.79
392.756	6.81
392.964	8.85
393.171	8.31
393.378	8.38
393.586	9.79
393.793	10.72
394	9.47
394.207	8.45
394.414	9.42
394.622	8.66
394.829	9.82
395.036	10.26
395.243	8.68
395.45	8.09
395.657	9
395.864	6.52
396.072	6.33
396.279	7.18
396.486	9.31
396.693	8.19
396.9	8.67
397.107	9.17
397.314	9.44
397.521	9.62
397.728	10.81
397.935	9.77
398.142	11.27
398.349	11.44
398.556	12.34
398.763	12.7
398.97	13.14
399.177	13.01
399.383	12.9
399.59	13.07
399.797	13.32
400.004	12.5
400.211	12.95
400.418	13
400.625	12.4
400.831	12.28
401.038	12.52
401.245	13.64
401.452	13.76
401.658	12.9
401.865	13.08
402.072	12.27
402.279	12.19
402.485	12.49
402.692	12.13
402.899	12.32
403.105	10.78
403.312	10.4
403.519	8.09
403.725	7.91
403.932	6.94
404.138	7.12
404.345	6.74
404.552	7.01
404.758	6.29
404.965	6.94
405.171	6.6
405.378	8.13
405.584	7.45
405.791	8.61
405.997	8.56
406.204	10.49
406.41	9.76
406.617	10.41
406.823	10.28
407.029	11.19
407.236	9.61
407.442	8.53
407.649	7.4
407.855	7.91
408.061	7.98
408.268	8.34
408.474	7.6
408.68	8.48
408.887	9.21
409.093	9.59
409.299	9.52
409.505	9.83
409.712	11.56
409.918	11.43
410.124	11.63
410.33	11.3
410.537	10.98
410.743	11.17
410.949	11.35
411.155	10.55
411.361	10.36
411.567	10.47
411.773	10.47
411.98	10.31
412.186	9.87
412.392	8.47
412.598	8.97
412.804	9.44
413.01	9.43
413.216	7.85
413.422	7.62
413.628	7.98
413.834	7.08
414.04	6.95
414.246	7.02
414.452	7.1
414.658	7.15
414.864	7
415.07	7.16
415.275	7.65
415.481	8.16
415.687	9.12
415.893	8.86
416.099	8.46
416.305	8.34
416.511	7.88
416.716	7.95
416.922	8.42
417.128	9.12
417.334	8.71
417.539	8.17
417.745	7.6
417.951	6.64
418.157	6.51
418.362	6.56
418.568	6.38
418.774	5.93
418.979	5.86
419.185	5.6
419.391	4.78
419.596	5.21
419.802	5.02
420.008	5.75
420.213	5.85
420.419	5.88
420.624	6.18
420.83	6.01
421.035	6.3
421.241	6.61
421.446	6.74
421.652	6.96
421.857	6.93
422.063	7.02
422.268	7.06
422.474	7.46
422.679	7.26
422.885	6.86
423.09	7.02
423.295	7.23
423.501	7.24
423.706	7.43
423.911	7.36
424.117	7.05
424.322	6.86
424.527	6.76
424.733	6.92
424.938	6.75
425.143	7.63
425.349	8.38
425.554	8.5
425.759	9.08
425.964	8.98
426.169	9.11
426.375	8.71
426.58	8.62
426.785	8.72
426.99	8.17
427.195	8.58
427.4	8.61
427.605	8.19
427.811	8.08
428.016	7.22
428.221	7.09
428.426	6.75
428.631	7.23
428.836	7.61
429.041	7.1
429.246	7.33
429.451	7.55
429.656	6.85
429.861	7.32
430.066	7.08
430.271	7.57
430.476	8.02
430.681	8.33
430.886	7.74
431.09	7.14
431.295	8.04
431.5	7.76
431.705	7.77
431.91	7.9
432.115	7.55
432.32	7.7
432.524	7.09
432.729	7.56
432.934	7.48
433.139	8.28
433.343	8.71
433.548	8.11
433.753	8.84
433.958	9.18
434.162	9.08
434.367	8.58
434.572	8.84
434.776	9.3
434.981	8.47
435.186	8.56
435.39	8.65
435.595	8.76
435.799	8.72
436.004	7.89
436.209	6.86
436.413	6.98
436.618	7.31
436.822	6.99
437.027	6.74
437.231	6.57
437.436	6.69
437.64	6.12
437.845	5.95
438.049	5.9
438.253	5.98
438.458	6.24
438.662	6.68
438.867	6.65
439.071	6.97
439.275	7
439.48	7.46
439.684	7.38
439.888	7.13
440.093	7.49
440.297	7.84
440.501	8.24
440.706	8.33
440.91	8.09
441.114	8.2
441.318	8.05
441.523	7.55
441.727	7.13
441.931	7.08
442.135	7.56
442.339	7.67
442.543	7.28
442.748	6.69
442.952	7.15
443.156	6.97
443.36	6.5
443.564	6.39
443.768	6.71
443.972	7.26
444.176	7.01
444.38	6.9
444.584	6.2
444.788	6.17
444.992	6.6
445.196	6.31
445.4	6.38
445.604	6.74
445.808	6.72
446.012	6.97
446.216	6.69
446.42	6.74
446.624	6.4
446.828	6.97
447.032	6.82
447.235	6.67
447.439	6.75
447.643	6.64
447.847	6.86
448.051	6.44
448.254	6.69
448.458	6.46
448.662	6.8
448.866	7.39
449.069	7.44
449.273	7.79
449.477	7.57
449.681	7.91
449.884	7.84
450.088	7.53
450.292	8.8
450.495	8.24
450.699	8.4
450.902	8.02
451.106	7.58
451.31	7.25
451.513	7.68
451.717	7.88
451.92	7.39
452.124	7.02
452.327	6.67
452.531	6.17
452.734	6.29
452.938	5.83
453.141	5.9
453.345	7.01
453.548	6.81
453.752	6.03
453.955	5.88
454.158	6.09
454.362	6.2
454.565	6.36
454.769	5.85
454.972	5.38
455.175	5.8
455.379	6.21
455.582	5.35
455.785	5.6
455.988	5.46
456.192	5.56
456.395	5.58
456.598	6.09
456.801	5.67
457.005	6.01
457.208	6.6
457.411	6.84
457.614	6.44
457.817	6.03
458.021	6.23
458.224	6.37
458.427	6.37
458.63	6.57
458.833	6.41
459.036	6.95
459.239	6.8
459.442	6.86
459.645	6.39
459.848	6.47
460.051	6.71
460.254	6.45
460.457	6.15
460.66	6.15
460.863	5.72
461.066	5.72
461.269	5.62
461.472	5.85
461.675	5.22
461.878	6.02
462.081	6.4
462.284	6.38
462.486	6.3
462.689	6.15
462.892	6.62
463.095	7.18
463.298	8.12
463.5	8.17
463.703	7.65
463.906	7.82
464.109	7.7
464.311	7.03
464.514	6.59
464.717	6.6
464.92	7.89
465.122	7.02
465.325	6.39
465.528	5.85
465.73	5.21
465.933	5.29
466.135	5.43
466.338	5.11
466.541	5.67
466.743	6.5
466.946	6.77
467.148	6.31
467.351	6.47
467.553	6.75
467.756	6.11
467.958	6.2
468.161	6.73
468.363	6.99
468.566	6.81
468.768	6.6
468.971	7.38
469.173	7.17
469.375	6.63
469.578	7.37
469.78	7.1
469.983	7.35
470.185	7.75
470.387	7.37
470.59	7.35
470.792	7.24
470.994	7.67
471.196	6.77
471.399	7.05
471.601	7.09
471.803	6.8
472.005	6.52
472.208	6.9
472.41	6.57
472.612	6.86
472.814	6.52
473.016	6.56
473.218	6
473.421	6.32
473.623	6.46
473.825	6.35
474.027	6.16
474.229	6.43
474.431	5.87
474.633	6.48
474.835	6.53
475.037	6.52
475.239	6.53
475.441	6.75
475.643	6.7
475.845	6.7
476.047	7.2
476.249	7.01
476.451	7.3
476.653	7.02
476.855	6.43
477.057	6.58
477.258	6.47
477.46	6.84
477.662	6.68
477.864	6.58
478.066	6.09
478.268	6.08
478.469	6.87
478.671	6.32
478.873	6.55
479.075	6.53
479.276	5.89
479.478	6.29
479.68	6.15
479.882	5.89
480.083	5.9
480.285	6.35
480.487	5.59
480.688	5.21
480.89	5.09
481.091	5.42
481.293	5.62
481.495	5.67
481.696	5.71
481.898	5.78
482.099	5.95
482.301	5.74
482.502	5.56
482.704	5.8
482.905	5.68
483.107	5.85
483.308	5.71
483.51	5.73
483.711	5.71
483.913	5.6
484.114	5.53
484.315	5.5
484.517	5.72
484.718	5.71
484.92	5.9
485.121	5.87
485.322	5.89
485.524	5.93
485.725	5.87
485.926	6.16
486.127	6.23
486.329	6.31
486.53	6.09
486.731	6.03
486.932	6.38
487.134	6.08
487.335	6.15
487.536	6.16
487.737	6.31
487.938	6.34
488.139	6.23
488.341	6.19
488.542	6.2
488.743	6.34
488.944	6.25
489.145	5.85
489.346	6.11
489.547	6.02
489.748	5.79
489.949	5.71
490.15	5.73
490.351	5.59
490.552	5.76
490.753	5.78
490.954	5.62
491.155	5.62
491.356	5.66
491.557	5.26
491.758	5.4
491.959	5.76
492.159	5.79
492.36	5.76
492.561	5.79
492.762	5.38
492.963	5.07
493.164	5.27
493.364	5.68
493.565	5.98
493.766	6.76
493.967	6.42
494.167	6.12
494.368	6.38
494.569	6.23
494.769	6.64
494.97	6.66
495.171	7.09
495.371	7.37
495.572	7.15
495.773	6.92
495.973	7
496.174	7.5
496.375	7.7
496.575	7.78
496.776	8.1
496.976	7.88
497.177	8.15
497.377	7.88
497.578	7.73
497.778	7.76
497.979	7.7
498.179	7.32
498.38	6.94
498.58	6.97
498.78	6.86
498.981	6.5
499.181	6.68
499.382	7.23
499.582	7.35
499.782	7.33
499.983	7.06
500.183	7.25
500.383	6.95
500.584	7.17
500.784	7.26
500.984	7.21
501.184	7.66
501.385	7.61
501.585	7.4
501.785	7.39
501.985	7.62
502.185	8.13
502.386	8
502.586	8.22
502.786	8.37
502.986	8.15
503.186	7.89
503.386	7.91
503.586	7.89
503.786	7.4
503.987	7.19
504.187	7.75
504.387	7.62
504.587	7.52
504.787	7.84
504.987	7.26
505.187	7.37
505.387	7.25
505.587	6.74
505.786	6.7
505.986	6.77
506.186	7.18
506.386	6.93
506.586	7.08
506.786	7.12
506.986	7.52
507.186	8.24
507.386	8.55
507.585	8.76
507.785	8.98
507.985	8.94
508.185	8.71
508.384	8.79
508.584	8.52
508.784	7.96
508.984	8.06
509.183	7.57
509.383	7.29
509.583	6.78
509.782	6.98
509.982	7.05
510.182	7.05
510.381	7.27
510.581	7.23
510.781	7.08
510.98	7.59
511.18	7.36
511.379	7.64
511.579	7.28
511.778	7.82
511.978	7.81
512.177	7.8
512.377	8.07
512.576	8.7
512.776	8.05
512.975	8.34
513.175	8.5
513.374	8.59
513.573	8.56
513.773	9.62
513.972	9.07
514.172	9.03
514.371	9.55
514.57	9.92
514.77	9.53
514.969	9.82
515.168	9.53
515.367	9.35
515.567	9.91
515.766	9.82
515.965	9.69
516.164	10.15
516.364	9.92
516.563	9.81
516.762	9.03
516.961	8.93
517.16	9.44
517.359	9.69
517.559	9.42
517.758	9.26
517.957	9.07
518.156	8.84
518.355	8.62
518.554	8.82
518.753	8.56
518.952	8.82
519.151	8.84
519.35	8.35
519.549	8.64
519.748	8.7
519.947	8.15
520.146	8.58
520.345	8.53
520.544	9.23
520.743	9.22
520.942	9.49
521.141	9.48
521.339	9.75
521.538	10.35
521.737	9.94
521.936	10.12
522.135	10.99
522.333	10.47
522.532	10.69
522.731	9.9
522.93	9.7
523.129	9.6
523.327	9.88
523.526	9.73
523.725	9.87
523.923	10.41
524.122	10.32
524.321	10.15
524.519	10.24
524.718	10.15
524.917	10.54
525.115	10.66
525.314	10.82
525.512	10.8
525.711	11.25
525.909	10.94
526.108	10.57
526.306	10.7
526.505	10.67
526.703	10.83
526.902	10.86
527.1	10.67
527.299	10.85
527.497	10.94
527.696	10.87
527.894	10.88
528.092	11.03
528.291	11.4
528.489	11.49
528.688	11.66
528.886	12.04
529.084	12.29
529.283	12.44
529.481	12.51
529.679	12.52
529.877	12.97
530.076	13
530.274	13.01
530.472	12.72
530.67	13.05
530.869	12.68
531.067	12.42
531.265	12.21
531.463	12.3
531.661	12.27
531.859	12.26
532.057	12.28
532.255	12.24
532.454	12.25
532.652	12.36
532.85	11.81
533.048	12.3
533.246	12.41
533.444	12.52
533.642	12.6
533.84	12.8
534.038	12.74
534.236	12.43
534.434	12.46
534.632	12.64
534.83	12.75
535.027	13.07
535.225	13.11
535.423	13.02
535.621	12.96
535.819	12.93
536.017	12.64
536.215	12.67
536.412	12.85
536.61	13.11
536.808	13.26
537.006	13.14
537.203	13.61
537.401	13.57
537.599	13.53
537.797	13.78
537.994	14.03
538.192	14.06
538.39	14.19
538.587	14.35
538.785	14.27
538.983	14.15
539.18	13.91
539.378	13.76
539.575	13.95
539.773	14
539.97	14.17
540.168	14.26
540.366	14.54
540.563	14.56
540.761	14.72
540.958	14.63
541.155	14.77
541.353	15.12
541.55	15.2
541.748	15.04
541.945	15.27
542.143	15.21
542.34	15.31
542.537	15.34
542.735	15.72
542.932	15.78
543.129	16.15
543.327	16.43
543.524	16.95
543.721	17.21
543.919	17.49
544.116	17.56
544.313	17.53
544.51	17.58
544.708	17.59
544.905	17.72
545.102	17.7
545.299	17.85
545.496	17.55
545.693	17.35
545.891	17.59
546.088	17.75
546.285	17.87
546.482	18.88
546.679	19.23
546.876	19.95
547.073	19.52
547.27	19.74
547.467	19.89
547.664	20.11
547.861	20.3
548.058	20.17
548.255	19.97
548.452	20.16
548.649	19.25
548.846	19.4
549.043	19.2
549.24	19.51
549.437	19.82
549.633	19.25
549.83	19.38
550.027	19.51
550.224	20.22
550.421	20.87
550.618	20.72
550.814	20.8
551.011	20.33
551.208	20.26
551.405	20.41
551.601	19.94
551.798	20.19
551.995	20.6
552.191	20.54
552.388	20.05
552.585	19.88
552.781	20.2
552.978	20.28
553.175	20.53
553.371	20.98
553.568	21.01
553.764	21.82
553.961	22.5
554.157	22.39
554.354	22.33
554.55	22.17
554.747	21.92
554.943	21.98
555.14	22.41
555.336	22.4
555.533	22.19
555.729	22.92
555.926	22.38
556.122	22.05
556.318	21.23
556.515	21.26
556.711	21.9
556.907	21.45
557.104	21.35
557.3	21.31
557.496	22
557.693	21.11
557.889	20.85
558.085	20.63
558.281	20.85
558.478	21.83
558.674	22.3
558.87	21.9
559.066	23.27
559.262	23.32
559.459	23.98
559.655	24.22
559.851	25.04
560.047	24.91
560.243	25.94
560.439	26.33
560.635	25.86
560.831	25.54
561.027	25.92
561.223	25.07
561.419	25.16
561.615	24.34
561.811	24.3
562.007	24.47
562.203	24.86
562.399	24.02
562.595	24.14
562.791	24.52
562.987	24.41
563.183	24.33
563.379	24.8
563.575	24.92
563.771	26.12
563.966	25.57
564.162	25.65
564.358	25.95
564.554	26.73
564.75	25.96
564.945	25.85
565.141	25.99
565.337	26.25
565.533	26.35
565.728	26.29
565.924	25.59
566.12	26.31
566.315	26.51
566.511	26.88
566.707	26.53
566.902	26.57
567.098	27.03
567.293	27.3
567.489	26.66
567.684	27.35
567.88	27.48
568.076	27.25
568.271	27.65
568.467	27.32
568.662	26.66
568.858	26.38
569.053	26.56
569.248	26.22
569.444	26.27
569.639	27.3
569.835	27.28
570.03	27.44
570.225	27.46
570.421	26.87
570.616	26.82
570.812	26.8
571.007	27.39
571.202	27.6
571.397	28.06
571.593	28.13
571.788	27.79
571.983	27.1
572.178	27.09
572.374	27.52
572.569	27.28
572.764	27.52
572.959	27.61
573.154	27.04
573.35	27.31
573.545	27.04
573.74	26.95
573.935	26.94
574.13	27.67
574.325	27.72
574.52	27.95
574.715	27.89
574.91	28.48
575.105	28.49
575.3	28.5
575.495	28.68
575.69	28.97
575.885	29.39
576.08	29.86
576.275	29.87
576.47	29.58
576.665	28.87
576.86	29.35
577.055	28.32
577.25	28.91
577.444	29.76
577.639	29.65
577.834	29.91
578.029	29.68
578.224	30.03
578.418	30.45
578.613	31.46
578.808	32.84
579.003	32.79
579.197	33.26
579.392	32.98
579.587	33.15
579.781	34.1
579.976	34.35
580.171	34.98
580.365	34.24
580.56	33.14
580.755	32.84
580.949	32.41
581.144	32.84
581.338	33.1
581.533	33.47
581.727	33.33
581.922	32.23
582.116	32.18
582.311	32.12
582.505	32.84
582.7	33.86
582.894	34.15
583.089	35.03
583.283	35.26
583.478	35.4
583.672	35.73
583.866	35.7
584.061	36.19
584.255	36.41
584.449	36.11
584.644	36.2
584.838	36.03
585.032	36.48
585.226	34.97
585.421	35.1
585.615	35.12
585.809	34.43
586.003	34.76
586.198	34.79
586.392	34.55
586.586	34.88
586.78	34.97
586.974	35.5
587.168	35.48
587.363	36.58
587.557	36.42
587.751	36.1
587.945	36.18
588.139	36.01
588.333	35.71
588.527	35.99
588.721	35.62
588.915	35.43
589.109	34.71
589.303	34.23
589.497	33.7
589.691	33.46
589.885	34.12
590.079	34.38
590.273	34.35
590.466	34.72
590.66	34.48
590.854	34.99
591.048	35.04
591.242	35.59
591.436	35.61
591.629	36.11
591.823	37.02
592.017	36.61
592.211	36.67
592.404	36.73
592.598	36.37
592.792	36.77
592.986	36.72
593.179	36.53
593.373	36.29
593.567	36.57
593.76	37.28
593.954	36.7
594.147	37.22
594.341	37.48
594.535	37.79
594.728	38.44
594.922	38.02
595.115	37.96
595.309	38.87
595.502	38.69
595.696	38.63
595.889	37.61
596.083	37.61
596.276	37.7
596.47	37.77
596.663	37.68
596.856	37.31
597.05	37.38
597.243	37.41
597.437	36.76
597.63	37.05
597.823	36.8
598.017	37.32
598.21	36.7
598.403	36.77
598.596	36.44
598.79	36.53
598.983	36.85
599.176	37.05
599.369	37.62
599.563	37.2
599.756	37.29
599.949	37.77
600.142	38.38
600.335	39.51
600.528	39.97
600.722	40.81
600.915	40.14
601.108	39.42
601.301	39.85
601.494	39.46
601.687	39.86
601.88	39.65
602.073	38.58
602.266	38.28
602.459	37.74
602.652	37.25
602.845	36.91
603.038	37.36
603.231	37.64
603.424	37.29
603.617	37.26
603.809	37.37
604.002	37.73
604.195	39.02
604.388	38.87
604.581	39.34
604.774	39.32
604.966	39.11
605.159	39.08
605.352	39.87
605.545	40.5
605.737	40.15
605.93	40.4
606.123	40.86
606.316	40.63
606.508	41.31
606.701	40.49
606.894	40.3
607.086	40.88
607.279	41.08
607.471	40.66
607.664	40.5
607.857	40.41
608.049	41.14
608.242	40.9
608.434	41.51
608.627	40.8
608.819	41.85
609.012	42.19
609.204	42.03
609.397	42.83
609.589	43.29
609.782	43.66
609.974	45.01
610.166	43.93
610.359	44.16
610.551	44.83
610.743	45.95
610.936	45.9
611.128	46.48
611.32	47.2
611.513	46.65
611.705	47.29
611.897	46.99
612.09	46.92
612.282	48
612.474	47.43
612.666	46.62
612.858	46.68
613.051	46.87
613.243	47.46
613.435	47.34
613.627	48.61
613.819	48.2
614.011	48.89
614.203	48.2
614.395	47.86
614.588	48.15
614.78	48.18
614.972	47.29
615.164	46.94
615.356	46.12
615.548	46.05
615.74	45.8
615.932	45.64
616.124	45.52
616.315	46.59
616.507	47.17
616.699	47.77
616.891	47.91
617.083	47.86
617.275	48.17
617.467	48.63
617.659	49.48
617.85	48.93
618.042	48.79
618.234	48.25
618.426	48.16
618.618	48.25
618.809	48.6
619.001	48.1
619.193	49.67
619.384	50.22
619.576	50.51
619.768	49.75
619.959	49.68
620.151	50.05
620.343	50.42
620.534	50.64
620.726	50.22
620.917	49.77
621.109	50.46
621.301	49.04
621.492	48.92
621.684	48.88
621.875	48.81
622.067	48.29
622.258	48.13
622.45	48.38
622.641	47.19
622.832	47.64
623.024	47.42
623.215	47.29
623.407	47.22
623.598	47.12
623.789	47.43
623.981	47.51
624.172	48.26
624.363	47.16
624.555	47.06
624.746	47.33
624.937	46.5
625.129	47.49
625.32	47.37
625.511	48.39
625.702	48.08
625.893	47.18
626.085	47.1
626.276	47.08
626.467	48.35
626.658	48.1
626.849	48.53
627.04	48.63
627.231	48.09
627.422	48.26
627.614	47.57
627.805	47.39
627.996	48.37
628.187	48.85
628.378	48.36
628.569	48.29
628.76	48.83
628.951	48.26
629.142	48.64
629.332	48.84
629.523	48.59
629.714	48.65
629.905	49.38
630.096	50.28
630.287	50.32
630.478	49.68
630.669	49.49
630.859	48.79
631.05	49.87
631.241	50.54
631.432	51.16
631.623	50.57
631.813	51.32
632.004	51.18
632.195	49.87
632.385	50.72
632.576	51.64
632.767	53.06
632.957	53.7
633.148	54.03
633.339	53.55
633.529	52.83
633.72	53.56
633.91	52.82
634.101	52.48
634.292	52.86
634.482	52.26
634.673	52.3
634.863	51.2
635.054	51.38
635.244	51.25
635.435	51.74
635.625	52.49
635.815	54.23
636.006	55.37
636.196	55.91
636.387	56.78
636.577	56.54
636.767	56.58
636.958	56.42
637.148	55.25
637.338	55.75
637.529	55.74
637.719	55.83
637.909	55.02
638.099	53.98
638.29	54.42
638.48	53.82
638.67	54.84
638.86	55.49
639.05	54.93
639.241	57.14
639.431	55.7
639.621	56.04
639.811	55.5
640.001	55.71
640.191	55.51
640.381	56.66
640.571	56.61
640.761	55.78
640.951	57.37
641.141	58.66
641.331	58.05
641.521	59.16
641.711	58.85
641.901	58.88
642.091	58.7
642.281	60.35
642.471	60.27
642.661	61.47
642.851	61.85
643.041	60.98
643.231	60.47
643.42	60.86
643.61	60.72
643.8	59.88
643.99	60.88
644.18	60.84
644.369	60.69
644.559	59.72
644.749	57.68
644.939	57.61
645.128	56.34
645.318	56.45
645.508	56.33
645.697	56.19
645.887	56.95
646.076	55.67
646.266	55.7
646.456	54.58
646.645	54.49
646.835	55.45
647.024	54.79
647.214	55.66
647.403	56.33
647.593	55
647.782	55.3
647.972	54.73
648.161	55.48
648.351	54.82
648.54	56.36
648.73	56.59
648.919	56.6
649.108	57.55
649.298	56.8
649.487	57.31
649.677	58.51
649.866	59.27
650.055	59.54
650.244	59.48
650.434	60.11
650.623	60.23
650.812	60.41
651.002	60.52
651.191	60.86
651.38	62.42
651.569	62.21
651.758	61.48
651.947	60.62
652.137	61.5
652.326	62.2
652.515	61.67
652.704	60.17
652.893	59.45
653.082	59.27
653.271	59.08
653.46	57.41
653.649	57.66
653.838	57.62
654.027	57.42
654.216	56.14
654.405	55.66
654.594	55.21
654.783	56.22
654.972	56.53
655.161	57.12
655.35	56.76
655.539	57.41
655.728	56.53
655.916	56.46
656.105	56.79
656.294	56.24
656.483	56.3
656.672	56.05
656.86	55.47
657.049	55.37
657.238	54.89
657.427	54.88
657.615	54.36
657.804	54.78
657.993	54.79
658.181	54.7
658.37	56.54
658.559	56.63
658.747	57.96
658.936	58.01
659.125	56.8
659.313	56.86
659.502	57.7
659.69	58.61
659.879	58.19
660.067	59.16
660.256	60.18
660.444	59.88
660.633	59.31
660.821	59.43
661.01	61.53
661.198	64.83
661.387	65.57
661.575	65.82
661.763	66.48
661.952	67.81
662.14	68.66
662.328	68.61
662.517	69.55
662.705	70.65
662.893	70.42
663.082	68.75
663.27	67.71
663.458	68.08
663.646	67.87
663.834	66.93
664.023	65.85
664.211	64.64
664.399	65.57
664.587	64.4
664.775	63.93
664.963	65.12
665.152	66.86
665.34	66.53
665.528	66.73
665.716	66.18
665.904	66.51
666.092	67.06
666.28	67.92
666.468	66.85
666.656	67.47
666.844	68.15
667.032	66.76
667.22	65.15
667.408	66.66
667.596	66.44
667.784	67.53
667.971	67.4
668.159	67.9
668.347	67.8
668.535	67.54
668.723	67.05
668.911	65.86
669.098	66.13
669.286	65.95
669.474	64.61
669.662	65.41
669.849	65.08
670.037	65.12
670.225	64.78
670.413	63.75
670.6	63.3
670.788	64.99
670.976	65.04
671.163	65.71
671.351	67.34
671.538	65.87
671.726	65.7
671.913	66.55
672.101	67.79
672.289	67.05
672.476	68.36
672.664	69.82
672.851	69.42
673.039	70.93
673.226	72.49
673.413	71
673.601	72.61
673.788	70.98
673.976	70.28
674.163	69.84
674.35	70.34
674.538	69.23
674.725	69.97
674.912	68.51
675.1	68.25
675.287	66.29
675.474	66.27
675.662	66.61
675.849	66.91
676.036	67.73
676.223	68.22
676.411	69.91
676.598	71.16
676.785	70.6
676.972	71.75
677.159	71.39
677.346	71.64
677.533	71.94
677.721	71.54
677.908	71.33
678.095	70.12
678.282	69.8
678.469	68.06
678.656	68.42
678.843	68.54
679.03	67.31
679.217	67.31
679.404	66.73
679.591	65.62
679.778	65.35
679.964	65.77
680.151	66.42
680.338	65.51
680.525	66.62
680.712	66.06
680.899	65.5
681.086	65.26
681.272	66.03
681.459	66.38
681.646	66.83
681.833	67.52
682.02	67.52
682.206	66.51
682.393	67.97
682.58	68.35
682.766	67.03
682.953	66.57
683.14	68.28
683.326	69.4
683.513	70.01
683.7	71.5
683.886	71.04
684.073	70.31
684.259	70.73
684.446	71.27
684.632	71.82
684.819	73.53
685.005	73.8
685.192	72.96
685.378	71.98
685.565	71.05
685.751	70.6
685.938	71.92
686.124	71.68
686.31	70.45
686.497	68.35
686.683	67.43
686.87	67.58
687.056	67.96
687.242	67.24
687.429	66.22
687.615	67.23
687.801	67
687.987	66.69
688.174	67.56
688.36	67.75
688.546	69.92
688.732	69.57
688.918	69.59
689.105	68.63
689.291	68.92
689.477	69.46
689.663	67.59
689.849	67.39
690.035	65.72
690.221	65.91
690.407	68.19
690.593	66.52
690.779	65.33
690.965	64.31
691.151	65.12
691.337	66.17
691.523	64.89
691.709	64.92
691.895	64.6
692.081	68.03
692.267	66.98
692.453	64.64
692.639	64.45
692.825	66.12
693.011	67.54
693.196	67.79
693.382	69.17
693.568	71.12
693.754	73.07
693.94	73.3
694.125	73.71
694.311	75.08
694.497	76.75
694.682	77.89
694.868	77.99
695.054	76.13
695.239	76.77
695.425	73.64
695.611	72.15
695.796	71.05
695.982	70.83
696.168	68.55
696.353	67.26
696.539	65.84
696.724	63.58
696.91	61.31
697.095	61.23
697.281	60.07
697.466	61.38
697.652	61.88
697.837	61.34
698.023	61.5
698.208	61.03
698.393	61.08
698.579	61.31
698.764	62.35
698.949	63.66
699.135	64.46
699.32	65.68
699.505	65.86
699.691	66.54
699.876	67.57
700.061	69.14
700.246	70.35
700.432	71.35
700.617	71.74
700.802	71.82
700.987	75.1
701.172	77.03
701.358	78.15
701.543	79.27
701.728	79.04
701.913	80.01
702.098	79.79
702.283	81.17
702.468	82.89
702.653	83.87
702.838	85.87
703.023	84.25
703.208	83.78
703.393	83.5
703.578	81.74
703.763	82.63
703.948	83.45
704.133	81.15
704.318	80.84
704.503	79
704.688	78.03
704.873	78.09
705.057	78.76
705.242	79.62
705.427	79.88
705.612	81.4
705.797	81.23
705.981	80.48
706.166	83.44
706.351	85.72
706.536	86.59
706.72	87.01
706.905	85.4
707.09	85.03
707.274	84.47
707.459	84.99
707.644	84.08
707.828	84.64
708.013	85.95
708.197	83.51
708.382	81.61
708.567	81.2
708.751	82.87
708.936	84.4
709.12	84.33
709.305	84.03
709.489	83.12
709.673	83.17
709.858	84.41
710.042	82.83
710.227	84.41
710.411	85.37
710.596	86.31
710.78	85.63
710.964	85.48
711.149	83.71
711.333	83.87
711.517	85.34
711.702	86.89
711.886	84.24
712.07	86.83
712.254	87.05
712.438	85.8
712.623	86.23
712.807	85.88
712.991	86.04
713.175	86.25
713.359	84.2
713.544	83.22
713.728	80.21
713.912	79.28
714.096	78.16
714.28	76.96
714.464	74.74
714.648	74.03
714.832	73.99
715.016	71.6
715.2	71.81
715.384	72.58
715.568	71.06
715.752	73.63
715.936	75.22
716.12	72.85
716.304	70.99
716.488	73.1
716.671	73.14
716.855	70.39
717.039	71.27
717.223	71.77
717.407	71.66
717.59	71.12
717.774	67.83
717.958	67.46
718.142	68.9
718.325	70.84
718.509	70.55
718.693	70.94
718.877	74.58
719.06	76.9
719.244	78.25
719.428	79.92
719.611	82.45
719.795	85.48
719.978	87.75
720.162	89.33
720.345	90.26
720.529	90.3
720.713	88.29
720.896	88.94
721.08	88.51
721.263	85.58
721.446	86.09
721.63	83.76
721.813	82.75
721.997	80.39
722.18	78.75
722.364	78.74
722.547	80.87
722.73	80.07
722.914	77.22
723.097	76.09
723.28	76.59
723.464	73.81
723.647	74.47
723.83	76.24
724.013	76.58
724.197	76.93
724.38	77.29
724.563	75.43
724.746	77.83
724.929	76.69
725.112	77.57
725.296	80.12
725.479	80.7
725.662	79.6
725.845	75.58
726.028	73.32
726.211	74.34
726.394	72.46
726.577	71.98
726.76	72.47
726.943	73.94
727.126	73.1
727.309	71.9
727.492	68.87
727.675	68.7
727.858	72.08
728.041	74.49
728.224	71.43
728.407	72.02
728.589	71.81
728.772	70.13
728.955	70.63
729.138	70.46
729.321	70.73
729.503	74.47
729.686	75.49
729.869	75.25
730.052	74.26
730.234	76.35
730.417	77.68
730.6	78.92
730.782	77.25
730.965	79.26
731.148	80.2
731.33	79.23
731.513	80.64
731.695	82.4
731.878	83.01
732.061	85.28
732.243	86.04
732.426	87
732.608	89.12
732.791	92.32
732.973	90.64
733.156	91.7
733.338	93.37
733.52	91.82
733.703	92.47
733.885	92.46
734.068	90.97
734.25	91.93
734.432	92.35
734.615	92.59
734.797	94.93
734.979	96.59
735.162	95.53
735.344	95.51
735.526	99.79
735.708	97.15
735.891	97.42
736.073	96.59
736.255	93.59
736.437	91.62
736.619	89.96
736.802	90.88
736.984	89.04
737.166	89.11
737.348	88.74
737.53	86.36
737.712	86.2
737.894	84.32
738.076	86.84
738.258	91.91
738.44	93.91
738.622	96.08
738.804	98.04
738.986	101.8
739.168	101.41
739.35	103.19
739.532	104.33
739.714	106.5
739.896	111.86
740.078	110.39
740.259	109.39
740.441	111.78
740.623	111.97
740.805	110.29
740.987	110.6
741.168	112.34
741.35	114.3
741.532	114.46
741.714	116.74
741.895	117.67
742.077	119.06
742.259	118.7
742.44	120.63
742.622	117.92
742.804	118.89
742.985	118.89
743.167	120.35
743.348	120.71
743.53	124.95
743.711	121.63
743.893	118.27
744.075	118.09
744.256	119.6
744.438	115.86
744.619	115.76
744.8	115.13
744.982	115.19
745.163	118.96
745.345	118.19
745.526	117.73
745.707	118.33
745.889	118.96
746.07	117.03
746.252	114.24
746.433	116.38
746.614	117.03
746.795	113.89
746.977	113.34
747.158	108.43
747.339	105.48
747.52	104.95
747.702	105.43
747.883	107.68
748.064	113.02
748.245	113.18
748.426	112.14
748.607	112.56
748.788	116.14
748.97	124.35
749.151	126.35
749.332	129.06
749.513	137.27
749.694	135.14
749.875	133.35
750.056	128
750.237	128
750.418	130.06
750.599	129.21
750.78	131.99
750.96	123.99
751.141	128.09
751.322	129.96
751.503	123.51
751.684	127.77
751.865	129.44
752.046	130.55
752.226	134.48
752.407	133.35
752.588	129.06
752.769	120.35
752.949	120.01
753.13	117.88
753.311	120.8
753.492	121.57
753.672	116.35
753.853	115.35
754.034	114.72
754.214	112.82
754.395	111.4
754.575	112.16
754.756	115.16
754.937	115.29
755.117	114.49
755.298	116.17
755.478	111.01
755.659	120.23
755.839	117.14
756.02	118.8
756.2	121.47
756.381	115.85
756.561	119.43
756.741	119.88
756.922	113.79
757.102	113.16
757.283	111.03
757.463	111.34
757.643	102.43
757.823	101.21
758.004	92.76
758.184	88.49
758.364	90.75
758.545	89.53
758.725	86.08
758.905	84.53
759.085	79.36
759.265	71.94
759.446	79.02
759.626	82.24
759.806	84.71
759.986	88.39
760.166	90.2
760.346	85.93
760.526	82.95
760.706	80.18
760.886	82.04
761.066	80.52
761.246	77.11
761.426	71.39
761.606	67.45
761.786	63.29
761.966	64.94
762.146	64.06
762.326	65.81
762.506	65.89
762.686	66.46
762.866	67.41
763.046	68.62
763.225	73.03
763.405	75.24
763.585	76.9
763.765	78.84
763.945	81.08
764.124	80.65
764.304	84
764.484	89.85
764.664	94.16
764.843	98.48
765.023	104.65
765.203	106.64
765.382	107.75
765.562	116.92
765.741	127.27
765.921	134.36
766.101	145.18
766.28	141.58
766.46	138.65
766.639	141.13
766.819	142.97
766.998	141.13
767.178	143.89
767.357	142.38
767.537	136.06
767.716	132.3
767.896	133.69
768.075	129.84
768.254	133.52
768.434	133.55
768.613	130.07
768.792	128.98
768.972	134.95
769.151	129.66
769.33	135.4
769.51	135.92
769.689	140.59
769.868	140.51
770.047	138.82
770.226	137.75
770.406	146.14
770.585	150.42
770.764	146.63
770.943	145.74
771.122	154.79
771.301	148.71
771.48	153.71
771.66	154.72
771.839	159.06
772.018	162.84
772.197	163.24
772.376	165.49
772.555	166.03
772.734	169.65
772.913	170.22
773.092	170.46
773.271	172.68
773.449	183.73
773.628	173.5
773.807	174.68
773.986	177.35
774.165	175.23
774.344	170.6
774.523	169.06
774.701	161.13
774.88	156.8
775.059	152.57
775.238	158.29
775.417	154.89
775.595	149.68
775.774	135.64
775.953	133.81
776.131	135.59
776.31	127.83
776.489	126.44
776.667	131.74
776.846	132.83
777.025	125.95
777.203	126.11
777.382	123.72
777.56	132.57
777.739	141.46
777.917	142.62
778.096	146.06
778.274	157.86
778.453	162.06
778.631	178.6
778.81	181.46
778.988	187.64
779.166	178.59
779.345	179.71
779.523	173.55
779.702	167.32
779.88	161.93
780.058	162.66
780.237	154.08
780.415	149.22
780.593	131.55
780.771	140.56
780.95	143.9
781.128	142.82
781.306	135.4
781.484	137.31
781.662	144.97
781.841	151.54
782.019	151.99
782.197	166.28
782.375	172.47
782.553	183.88
782.731	175.3
782.909	180.44
783.087	184.64
783.265	214.25
783.443	205.49
783.621	195.87
783.799	193.7
783.977	188.85
784.155	166.85
784.333	163.27
784.511	154.86
784.689	151.48
784.867	139.63
785.045	147.65
785.223	128.57
785.4	131.33
785.578	131.55
785.756	129.27
785.934	125.75
786.112	122.95
786.289	121.41
786.467	115.95
786.645	109.84
786.823	123.05
787	122.21
787.178	130.08
787.356	127.91
787.533	125.54
787.711	130.07
787.889	143.86
788.066	154.42
788.244	154.92
788.421	165.82
788.599	165.92
788.776	149.91
788.954	147.44
789.131	143.41
789.309	141.48
789.486	133.86
789.664	135.65
789.841	120.3
790.019	122.45
790.196	122.51
790.373	120.65
790.551	125.5
790.728	135.66
790.906	138.99
791.083	136.67
791.26	134.82
791.437	146.21
791.615	135.02
791.792	150.15
791.969	150.03
792.146	152.49
792.324	149.71
792.501	147.17
792.678	140.07
792.855	135.31
793.032	141.17
793.209	150.12
793.387	147.85
793.564	143.64
793.741	137.07
793.918	130.34
794.095	122.38
794.272	123.05
794.449	121.24
794.626	116.38
794.803	114.27
794.98	110.06
795.157	112.82
795.334	115.31
795.511	123.24
795.688	119.54
795.864	115.91
796.041	121.37
796.218	120.06
796.395	115.33
796.572	117.11
796.749	126.15
796.925	123.05
797.102	123.54
797.279	126.05
797.456	124.31
797.632	131.58
797.809	152.06
797.986	154.93
798.162	149.66
798.339	157.67
798.516	159.68
798.692	153.14
798.869	155.19
799.046	153.39
799.222	143.36
799.399	135.1
799.575	132.17
799.752	116.07
799.928	109.73
800.105	116.55
800.281	119.81
800.458	128.49
800.634	130.8
800.811	130.63
800.987	129.53
801.163	130.17
801.34	145.14
801.516	144.41
801.692	153.38
801.869	154.29
802.045	152.87
802.221	144.58
802.398	141.32
802.574	141.35
802.75	147.42
802.926	154.34
803.103	158.58
803.279	152.22
803.455	163.58
803.631	151.15
803.807	147.71
803.983	151.1
804.16	148.27
804.336	142.72
804.512	128.01
804.688	124.53
804.864	122.02
805.04	121.98
805.216	113.01
805.392	100.26
805.568	103.49
805.744	118.23
805.92	112.14
806.096	123.9
806.272	130.42
806.448	149.09
806.623	153.4
806.799	159.06
806.975	155.15
807.151	181.9
807.327	195.85
807.503	240.25
807.678	223.86
807.854	268.57
808.03	223.36
808.206	213.47
808.381	195.5
808.557	214.2
808.733	199.8
808.908	203.65
809.084	184.14
809.26	186.05
809.435	153.29
809.611	157.48
809.787	136.47
809.962	143.68
810.138	141.96
810.313	145.9
810.489	121.51
810.664	119.21
810.84	125.24
811.015	116.33
811.191	116.03
811.366	124
811.542	120.56
811.717	128.5
811.892	131.85
812.068	130.86
812.243	131.97
812.419	135.22
812.594	133.29
812.769	123.58
812.944	112.84
813.12	128.12
813.295	120.85
813.47	114.1
813.645	105.6
813.821	107.2
813.996	97.03
814.171	81.41
814.346	86.32
814.521	91.86
814.697	111.8
814.872	121.2
815.047	114.95
815.222	114.25
815.397	111.63
815.572	107.9
815.747	110.92
815.922	118.75
816.097	137.1
816.272	130.24
816.447	125.72
816.622	112.15
816.797	111.18
816.972	101.12
817.147	96.73
817.322	98.55
817.496	104.51
817.671	100.87
817.846	93.16
818.021	80.2
818.196	78.69
818.371	65.37
818.545	58.3
818.72	59.34
818.895	57.04
819.069	58.63
819.244	55.79
819.419	53.86
819.594	50.67
819.768	50.09
819.943	51.59
820.117	49.46
820.292	53.11
820.467	53.19
820.641	51.42
820.816	50.42
820.99	49.6
821.165	49.4
821.339	50.57
821.514	50.98
821.688	51.71
821.863	51.95
822.037	53.09
822.212	52.54
822.386	52.7
822.56	53.48
822.735	57.23
822.909	59.45
823.084	60.39
823.258	59.39
823.432	59.71
823.606	62.8
823.781	65.76
823.955	67.34
824.129	68.88
824.303	67.31
824.478	69.25
824.652	66.7
824.826	66.96
825	68.93
825.174	68.82
825.348	68.7
825.523	67.18
825.697	67.39
825.871	66.79
826.045	68.6
826.219	72.85
826.393	72.65
826.567	71.9
826.741	72.32
826.915	71.56
827.089	73.95
827.263	80.41
827.437	80.98
827.611	80.72
827.784	81.46
827.958	84.4
828.132	85.32
828.306	90.14
828.48	93.12
828.654	102.16
828.827	104.52
829.001	106.67
829.175	104.14
829.349	108.84
829.522	121.5
829.696	119
829.87	119.82
830.044	134.01
830.217	136.89
830.391	131.44
830.565	135.62
830.738	147.68
830.912	136.35
831.085	120.51
831.259	127.46
831.432	109.76
831.606	106.11
831.779	95.48
831.953	83.9
832.126	79.17
832.3	86.87
832.473	79.93
832.647	78.14
832.82	72.26
832.994	70.57
833.167	66.36
833.34	71.87
833.514	72.98
833.687	78.92
833.86	83.19
834.034	88.03
834.207	82.76
834.38	86.98
834.553	84.25
834.727	90.03
834.9	89.13
835.073	89.58
835.246	91.86
835.419	93.4
835.593	100.55
835.766	97.06
835.939	85.41
836.112	99.59
836.285	112.49
836.458	119.67
836.631	144.29
836.804	138.4
836.977	147.62
837.15	148.42
837.323	149.88
837.496	129.99
837.669	142.31
837.842	154.99
838.015	157.29
838.188	153.27
838.361	146.78
838.533	136.76
838.706	134.56
838.879	143.57
839.052	140.43
839.225	136.53
839.398	148.17
839.57	155.14
839.743	164.15
839.916	151.1
840.088	152.76
840.261	161.16
840.434	161.96
840.607	190.07
840.779	184.1
840.952	185.64
841.124	191.79
841.297	180.54
841.47	191.5
841.642	185.78
841.815	180.69
841.987	167.58
842.16	156.03
842.332	181.28
842.505	173.94
842.677	167.02
842.85	178.36
843.022	191.09
843.194	165.72
843.367	167.72
843.539	168.17
843.712	163.26
843.884	182.41
844.056	259.19
844.229	225.63
844.401	214.49
844.573	234.55
844.745	229.47
844.918	231.04
845.09	305.71
845.262	280.36
845.434	282.76
845.606	268.01
845.779	336.78
845.951	229.28
846.123	184.25
846.295	199.43
846.467	192.55
846.639	176.59
846.811	209.26
846.983	205.23
847.155	237.72
847.327	241.5
847.499	297.04
847.671	278.59
847.843	593.66
848.015	2525.81
848.187	-1815.56
848.359	2413.16
848.531	-1707.41
848.703	22733.33
848.875	-751.06
849.047	1020.21
849.218	432.89
849.39	459.76
849.562	380.42
849.734	381.07
849.905	643.65
850.077	657.73
850.249	557.85
850.421	2009.8
850.592	682.95
850.764	810.64
850.936	3704
851.107	16750
851.279	761.42
851.451	387.95
851.622	384.51
851.794	271.78
851.965	252.09
852.137	243
852.308	216.01
852.48	287.82
852.651	267.33
852.823	348.64
852.994	275.79
853.166	308.51
853.337	311.37
853.509	256.1
853.68	308.21
853.851	289.15
854.023	342.8
854.194	342.2
854.365	368.72
854.537	283.24
854.708	212.78
854.879	315.99
855.05	281.01
855.222	306.55
855.393	490.77
855.564	309.62
855.735	319.41
855.906	428.52
856.078	314.43
856.249	288.64
856.42	258.52
856.591	289.4
856.762	294.68
856.933	342.51
857.104	306.59
857.275	341.88
857.446	377.82
857.617	298.72
857.788	280.4
857.959	310.85
858.13	312.59
858.301	315.68
858.472	291.7
858.643	211.48
858.814	245.28
858.985	292.76
859.155	323.38
859.326	353.73
859.497	1032.77
859.668	321.22
859.839	415.31
860.009	447.24
860.18	550.39
860.351	508.39
860.522	592.34
860.692	553.18
860.863	372.22
861.034	241.48
861.204	230.11
861.375	176.29
861.546	238.71
861.716	235.37
861.887	203.98
862.057	219.37
862.228	180.82
862.398	222.1
862.569	219.37
862.739	181.72
862.91	156.28
863.08	183.94
863.251	241.15
863.421	268.26
863.592	251.1
863.762	315.12
863.932	587.91
864.103	-582.56
864.273	-1621.43
864.443	-430.83
864.614	-126.79
864.784	-87.61
864.954	-1533.33
865.125	5557.14
865.295	-379.1
865.465	-491.23
865.635	-3825
865.805	407.59
865.976	-5266.67
866.146	-870.45
866.316	-1300
866.486	1176.19
866.656	-498.68
866.826	-233.08
866.996	-1486.54
867.166	742.66
867.336	1202.6
867.506	1287.14
867.676	441.67
867.846	370.34
868.016	355.47
868.186	310.48
868.356	216.03
868.526	150.71
868.696	163.6
868.866	221.04
869.036	464.94
869.206	227.4
869.376	270.03
869.545	3231.58
869.715	1421.05
869.885	297.58
870.055	272.91
870.224	736.05
870.394	-1083.33
870.564	765.67
870.734	685
870.903	230.77
871.073	317.53
871.243	242
871.412	200
871.582	186.72
871.751	216.77
871.921	206.76
872.091	191.21
872.26	169.42
872.43	199.15
872.599	209.48
872.769	203.54
872.938	157.28
873.108	137.76
873.277	120.16
873.446	147.13
873.616	136.94
873.785	127.2
873.955	140.11
874.124	160.13
874.293	171.71
874.463	152.29
874.632	152.06
874.801	220.58
874.971	306.36
875.14	308.25
875.309	293.24
875.478	534.2
875.647	477.78
875.817	239.53
875.986	183.98
876.155	124.85
876.324	128.59
876.493	133.04
876.662	114.58
876.831	87.59
877	100.78
877.17	124.02
877.339	110.89
877.508	113.73
877.677	148.4
877.846	195.89
878.015	259.91
878.184	238.54
878.352	237.47
878.521	247.43
878.69	255.25
878.859	213.79
879.028	129.79
879.197	106.52
879.366	96.05
879.534	92.11
879.703	77.71
879.872	70.78
880.041	71.31
880.21	72.68
880.378	80.72
880.547	74.58
880.716	67.73
880.884	71.68
881.053	71.79
881.222	77.79
881.39	72.36
881.559	69.36
881.727	68.96
881.896	64.6
882.065	60.9
882.233	65.07
882.402	65.7
882.57	63.19
882.739	70.53
882.907	79.05
883.076	75.46
883.244	80.78
883.412	90.33
883.581	105.95
883.749	104.42
883.918	106.85
884.086	98.66
884.254	101.05
884.423	118.77
884.591	128.59
884.759	136.38
884.927	159.78
885.096	132.04
885.264	123.15
885.432	117.18
885.6	122.51
885.769	151.46
885.937	131.2
886.105	161.77
886.273	192.43
886.441	140.9
886.609	328.1
886.777	301.03
886.945	-217.05
887.113	-227.49
887.281	-36300
887.449	-496.3
887.617	0
887.785	-362.11
887.953	-345.85
888.121	-426.63
888.289	-347.15
888.457	-1428.77
888.625	-33533.33
888.793	5140
888.961	11325
889.129	1508.16
889.296	420.69
889.464	1327.08
889.632	410.42
889.8	375.82
889.967	464.44
890.135	236.36
