Data from JASIL_2909_Reflection_2.txt Node
Date: Sat Nov 07 20:25:30 EST 2015
User: Geneva
Spectrometer: USB4E03002
Autoset integration time: false
Trigger mode: 4
Integration Time (sec): 1.000000E-1
Scans to average: 10
Electric dark correction enabled: true
Nonlinearity correction enabled: false
Boxcar width: 5
Stray light correction enabled: false
XAxis mode: Wavelengths
Stop averaging: false
Number of Pixels in Spectrum: 3648
>>>>>Begin Spectral Data<<<<<
177.575	252.9
177.794	223.42
178.014	119.1
178.233	114.39
178.452	100.03
178.672	194.75
178.891	-2327.91
179.11	493.67
179.33	306.08
179.549	209.09
179.768	201.12
179.987	164.85
180.207	150.98
180.426	110.54
180.645	108.39
180.864	103.23
181.084	117.39
181.303	119.14
181.522	107.88
181.741	125.25
181.96	118.53
182.179	123.85
182.398	145.15
182.618	124.14
182.837	120.58
183.056	102.55
183.275	101.22
183.494	79.51
183.713	69.63
183.932	76.19
184.151	69.61
184.37	77.52
184.589	75.59
184.808	66.92
185.027	66.71
185.246	73.54
185.465	84.53
185.684	83.13
185.903	98.57
186.122	115.57
186.341	106.81
186.56	98.54
186.779	90.37
186.998	94.24
187.216	93.47
187.435	97.64
187.654	101.74
187.873	102.3
188.092	108.74
188.311	95.21
188.53	89.78
188.748	83.66
188.967	92.65
189.186	93.4
189.405	93.99
189.623	95.21
189.842	97.65
190.061	93.45
190.28	92.33
190.498	83.77
190.717	92.07
190.936	96.81
191.154	100.72
191.373	101.16
191.592	114.15
191.81	124.05
192.029	108.56
192.248	103.72
192.466	96.61
192.685	97.31
192.904	100.67
193.122	94.09
193.341	86.18
193.559	88.78
193.778	82.95
193.996	70.92
194.215	68.83
194.433	77.74
194.652	83.93
194.87	88.8
195.089	88.5
195.307	90.36
195.526	88.15
195.744	89.33
195.963	95.95
196.181	91.74
196.399	92.94
196.618	90.02
196.836	91.3
197.055	92.39
197.273	91.65
197.491	85.19
197.71	82.25
197.928	86.77
198.146	85.31
198.365	76.7
198.583	70.52
198.801	71.92
199.019	65.76
199.238	59.07
199.456	51.52
199.674	57.53
199.892	67.6
200.111	83.99
200.329	85.69
200.547	86.22
200.765	78.89
200.983	86.74
201.202	81.75
201.42	86.04
201.638	92.48
201.856	92.18
202.074	83.52
202.292	78.42
202.51	67.07
202.728	65.39
202.946	65.42
203.165	75.56
203.383	84.8
203.601	86.71
203.819	87.18
204.037	87.47
204.255	88.32
204.473	76.46
204.691	79.57
204.909	81.27
205.127	78.66
205.345	76.83
205.562	77.77
205.78	68.6
205.998	69.54
206.216	65.52
206.434	66.28
206.652	66.82
206.87	78.31
207.088	77.56
207.306	79.98
207.523	78.36
207.741	81.88
207.959	80.38
208.177	81.29
208.395	79.47
208.612	83.17
208.83	80.47
209.048	75.18
209.266	67.9
209.483	64.04
209.701	67.37
209.919	61.98
210.136	55
210.354	54.72
210.572	60.29
210.79	57.71
211.007	60.19
211.225	56.14
211.442	54.5
211.66	58.3
211.878	62.52
212.095	37.69
212.313	37.97
212.53	45.17
212.748	40.78
212.966	33.47
213.183	30.72
213.401	29.16
213.618	39.2
213.836	43.78
214.053	47.76
214.271	48.82
214.488	64.52
214.705	65.41
214.923	66.04
215.14	64.2
215.358	63.27
215.575	65.15
215.793	64.56
216.01	60.94
216.227	62.98
216.445	62.14
216.662	59.96
216.879	62.61
217.097	64.95
217.314	59.44
217.531	61.92
217.749	69.23
217.966	70.03
218.183	65.51
218.4	60.59
218.618	59.75
218.835	58.51
219.052	58.55
219.269	54.91
219.487	50.99
219.704	49.74
219.921	44.76
220.138	41.08
220.355	36.15
220.572	40.59
220.79	45.36
221.007	45.46
221.224	43.18
221.441	44.93
221.658	51
221.875	49.33
222.092	50.27
222.309	50.12
222.526	50.44
222.743	55.17
222.96	54.97
223.177	50.27
223.394	46.77
223.611	47.32
223.828	43.09
224.045	40.13
224.262	39.6
224.479	37.72
224.696	38.64
224.913	36.8
225.13	34.63
225.347	31.43
225.564	30.52
225.781	28.67
225.997	26.06
226.214	25.51
226.431	21.55
226.648	21.08
226.865	20.94
227.082	19.44
227.298	19.12
227.515	18.68
227.732	18.06
227.949	18.36
228.165	17.9
228.382	17.62
228.599	17.3
228.816	18.07
229.032	18.09
229.249	18.17
229.466	18.68
229.682	18.67
229.899	18.62
230.116	19.32
230.332	18.24
230.549	19.51
230.765	20.4
230.982	19.91
231.199	20.27
231.415	19.86
231.632	19.35
231.848	19.7
232.065	18.88
232.281	19.54
232.498	19.86
232.714	21.24
232.931	20.97
233.147	20.89
233.364	21.2
233.58	20.39
233.797	21
234.013	21.2
234.23	20.45
234.446	19.38
234.662	18.93
234.879	18.3
235.095	17.26
235.312	17.26
235.528	17.6
235.744	18.12
235.961	18.77
236.177	17.2
236.393	17.08
236.61	17.9
236.826	19.29
237.042	19.83
237.258	19.49
237.475	20.07
237.691	20.4
237.907	18.81
238.123	17.92
238.339	17.98
238.556	18.81
238.772	18.56
238.988	17.42
239.204	16.84
239.42	15.99
239.636	15.98
239.853	15.26
240.069	14.63
240.285	15.06
240.501	14.59
240.717	14.06
240.933	13.51
241.149	13.07
241.365	13.3
241.581	13.27
241.797	13.47
242.013	13.39
242.229	13.74
242.445	13.25
242.661	12.84
242.877	12.9
243.093	13.07
243.309	13.21
243.525	13.33
243.741	13.09
243.957	13.15
244.173	12.3
244.388	11.98
244.604	11.18
244.82	11.06
245.036	11.2
245.252	11.17
245.468	10.83
245.683	10.68
245.899	10.47
246.115	10.43
246.331	10.26
246.547	10.18
246.762	10.19
246.978	10.34
247.194	10.32
247.409	10.18
247.625	10.22
247.841	10.3
248.057	10.48
248.272	10.41
248.488	10.16
248.703	10.01
248.919	10.57
249.135	10.34
249.35	10.06
249.566	10.4
249.782	10.41
249.997	10.13
250.213	9.9
250.428	9.69
250.644	10.51
250.859	10.95
251.075	11.12
251.29	10.36
251.506	10.33
251.721	10.34
251.937	10.61
252.152	10.4
252.368	10.53
252.583	10.65
252.798	10.82
253.014	10.36
253.229	9.81
253.445	9.45
253.66	10.4
253.875	10.28
254.091	10.61
254.306	9.82
254.521	10.31
254.737	9.88
254.952	10.02
255.167	9.68
255.383	9.57
255.598	9.91
255.813	9.84
256.028	9.26
256.244	9.32
256.459	9.03
256.674	8.84
256.889	8.01
257.104	7.9
257.32	7.95
257.535	7.81
257.75	7.54
257.965	7.59
258.18	7.67
258.395	7.66
258.61	7.55
258.826	7.39
259.041	7.47
259.256	7.59
259.471	7.75
259.686	7.62
259.901	7.66
260.116	7.75
260.331	7.44
260.546	7.48
260.761	7.55
260.976	7.74
261.191	7.99
261.406	7.9
261.621	7.98
261.836	7.82
262.05	7.65
262.265	7.68
262.48	7.58
262.695	8.11
262.91	8.11
263.125	8.13
263.34	8.11
263.555	8.64
263.769	8.77
263.984	8.53
264.199	8.43
264.414	8.69
264.629	8.82
264.843	8.85
265.058	8.61
265.273	8.19
265.488	7.97
265.702	7.58
265.917	7.17
266.132	7.38
266.346	7.68
266.561	7.81
266.776	7.93
266.99	7.72
267.205	7.89
267.42	8
267.634	8.13
267.849	8.18
268.063	8.48
268.278	8.45
268.492	8.18
268.707	7.68
268.922	7.74
269.136	7.47
269.351	7.25
269.565	7.14
269.78	7.08
269.994	6.87
270.209	6.94
270.423	6.88
270.637	6.81
270.852	6.83
271.066	7.14
271.281	7.07
271.495	7.12
271.709	7.32
271.924	7.35
272.138	7.51
272.353	7.73
272.567	7.55
272.781	7.48
272.996	7.69
273.21	7.74
273.424	7.74
273.638	7.65
273.853	7.51
274.067	7.56
274.281	7.54
274.495	7.39
274.71	7.39
274.924	7.28
275.138	7.48
275.352	7.37
275.566	7.39
275.781	7.52
275.995	7.85
276.209	8.27
276.423	7.96
276.637	7.71
276.851	7.31
277.065	7.27
277.279	7.41
277.493	7.21
277.707	6.97
277.921	7.03
278.135	6.62
278.349	6.22
278.563	6.14
278.777	6.35
278.991	6.74
279.205	7.02
279.419	6.94
279.633	6.94
279.847	7
280.061	7.15
280.275	6.79
280.489	7.01
280.703	6.92
280.917	6.73
281.131	6.69
281.344	6.73
281.558	6.6
281.772	6.54
281.986	6.46
282.2	6.53
282.414	6.57
282.627	6.81
282.841	6.94
283.055	7.24
283.269	7.23
283.482	7.2
283.696	6.77
283.91	6.8
284.123	6.8
284.337	6.94
284.551	6.87
284.764	6.79
284.978	6.76
285.192	6.54
285.405	6.2
285.619	6.22
285.833	6.28
286.046	6.28
286.26	6.34
286.473	6.31
286.687	6.07
286.9	6.19
287.114	6.17
287.327	5.98
287.541	5.89
287.754	6.14
287.968	6.17
288.181	6.14
288.395	6.27
288.608	6.16
288.822	6.25
289.035	6.13
289.248	5.94
289.462	6.01
289.675	6
289.889	6.12
290.102	5.88
290.315	5.81
290.529	5.77
290.742	5.91
290.955	6.01
291.169	5.98
291.382	6.18
291.595	6.32
291.808	6.17
292.022	6.04
292.235	5.98
292.448	5.99
292.661	5.82
292.875	5.65
293.088	5.48
293.301	5.34
293.514	5.16
293.727	5.21
293.94	5.1
294.153	4.99
294.367	5.16
294.58	5.09
294.793	5.37
295.006	5.47
295.219	5.61
295.432	5.52
295.645	5.59
295.858	5.55
296.071	5.39
296.284	5.3
296.497	5.46
296.71	5.42
296.923	5.63
297.136	5.45
297.349	5.53
297.562	5.44
297.775	5.57
297.988	5.62
298.201	5.64
298.414	5.92
298.626	6.1
298.839	6
299.052	6.17
299.265	6.19
299.478	6.13
299.691	6.08
299.903	6.06
300.116	5.99
300.329	5.94
300.542	6.05
300.755	5.94
300.967	5.74
301.18	5.74
301.393	5.64
301.605	5.4
301.818	5.5
302.031	5.48
302.243	5.5
302.456	5.56
302.669	5.47
302.881	5.5
303.094	5.35
303.307	5.27
303.519	5.31
303.732	5.38
303.944	5.48
304.157	5.61
304.37	5.34
304.582	5.44
304.795	5.37
305.007	5.57
305.22	5.73
305.432	5.9
305.645	6.19
305.857	6.29
306.069	6.01
306.282	5.97
306.494	5.89
306.707	6.23
306.919	6.24
307.132	6.12
307.344	5.83
307.556	5.79
307.769	5.71
307.981	5.66
308.193	5.6
308.406	5.73
308.618	5.75
308.83	5.67
309.043	5.56
309.255	5.58
309.467	5.51
309.679	5.65
309.892	5.56
310.104	5.49
310.316	5.45
310.528	5.34
310.74	5.43
310.953	5.37
311.165	5.47
311.377	5.4
311.589	5.47
311.801	5.69
312.013	5.73
312.225	5.76
312.437	5.89
312.649	6.07
312.862	6.15
313.074	5.97
313.286	6
313.498	5.92
313.71	6.15
313.922	6.12
314.134	6.07
314.346	5.96
314.558	6.04
314.77	6.19
314.982	6.04
315.193	6.02
315.405	6.1
315.617	5.95
315.829	5.92
316.041	5.97
316.253	5.78
316.465	5.78
316.677	5.81
316.888	5.72
317.1	5.61
317.312	5.47
317.524	5.57
317.736	5.87
317.947	6.26
318.159	6.27
318.371	5.81
318.583	5.89
318.794	5.67
319.006	5.63
319.218	5.74
319.43	5.76
319.641	5.94
319.853	5.97
320.064	6.03
320.276	5.73
320.488	5.92
320.699	6.24
320.911	6.26
321.123	6.82
321.334	6.96
321.546	7
321.757	7.1
321.969	7.01
322.18	7
322.392	6.71
322.603	6.54
322.815	6.59
323.026	6.34
323.238	6.1
323.449	5.75
323.661	5.7
323.872	5.71
324.083	5.65
324.295	5.6
324.506	5.59
324.718	5.55
324.929	5.75
325.14	5.8
325.352	6.05
325.563	6.44
325.774	6.41
325.986	6.59
326.197	6.61
326.408	6.68
326.62	6.79
326.831	6.69
327.042	6.73
327.253	6.77
327.464	6.65
327.676	6.71
327.887	6.62
328.098	6.72
328.309	6.61
328.52	6.61
328.732	6.66
328.943	6.85
329.154	7.26
329.365	7.52
329.576	7.66
329.787	7.55
329.998	7.58
330.209	7.81
330.42	7.86
330.631	7.89
330.842	7.74
331.053	7.68
331.264	7.66
331.475	7.46
331.686	7.25
331.897	7.24
332.108	7.29
332.319	7.06
332.53	6.96
332.741	6.97
332.952	6.99
333.163	7.11
333.374	7.06
333.585	6.97
333.795	6.91
334.006	6.98
334.217	6.87
334.428	6.88
334.639	7.05
334.849	6.89
335.06	6.85
335.271	6.81
335.482	6.81
335.692	6.85
335.903	6.73
336.114	6.85
336.325	6.85
336.535	7.02
336.746	7.15
336.957	7.17
337.167	7.15
337.378	7.22
337.589	7.24
337.799	7.23
338.01	7.23
338.22	7.28
338.431	7.23
338.642	7.39
338.852	7.26
339.063	6.98
339.273	6.89
339.484	6.87
339.694	7.07
339.905	7.26
340.115	7.38
340.326	7.38
340.536	7.26
340.746	7.21
340.957	7.12
341.167	7.2
341.378	7.43
341.588	7.47
341.799	7.46
342.009	7.32
342.219	7.04
342.43	6.93
342.64	6.83
342.85	6.79
343.061	6.7
343.271	6.74
343.481	6.6
343.691	6.47
343.902	6.34
344.112	6.25
344.322	6.21
344.532	6.26
344.743	6.16
344.953	5.9
345.163	5.93
345.373	6.06
345.583	5.92
345.793	5.95
346.004	6.02
346.214	6.1
346.424	6.29
346.634	6.27
346.844	6.28
347.054	6.38
347.264	6.79
347.474	7.07
347.684	7.02
347.894	7.14
348.104	7.31
348.314	7.33
348.524	7.33
348.734	7.09
348.944	7.04
349.154	7.03
349.364	6.89
349.574	6.7
349.784	6.5
349.994	6.53
350.204	6.27
350.413	6.11
350.623	6.13
350.833	6.02
351.043	5.92
351.253	5.88
351.463	5.88
351.672	5.9
351.882	5.97
352.092	5.94
352.302	5.82
352.511	5.84
352.721	5.73
352.931	5.45
353.141	5.65
353.35	5.97
353.56	5.85
353.77	5.88
353.979	5.87
354.189	5.85
354.399	5.85
354.608	5.82
354.818	5.91
355.027	5.91
355.237	6.17
355.447	5.98
355.656	5.85
355.866	5.89
356.075	5.82
356.285	5.84
356.494	5.87
356.704	5.76
356.913	5.79
357.123	5.78
357.332	5.75
357.542	5.66
357.751	5.73
357.96	5.76
358.17	5.67
358.379	5.63
358.589	5.68
358.798	5.61
359.007	5.67
359.217	5.61
359.426	5.56
359.635	5.68
359.845	5.69
360.054	5.67
360.263	5.68
360.472	5.81
360.682	5.86
360.891	5.65
361.1	5.52
361.309	5.53
361.519	5.5
361.728	5.51
361.937	5.42
362.146	5.31
362.355	5.25
362.564	5.17
362.774	5.19
362.983	5.17
363.192	5.39
363.401	5.6
363.61	5.49
363.819	5.59
364.028	5.66
364.237	5.61
364.446	5.58
364.655	5.68
364.864	5.69
365.073	5.71
365.282	5.67
365.491	5.56
365.7	5.58
365.909	5.8
366.118	5.72
366.327	5.61
366.536	5.74
366.745	5.85
366.954	5.87
367.162	5.87
367.371	5.63
367.58	5.62
367.789	5.73
367.998	5.67
368.207	5.61
368.415	5.69
368.624	5.66
368.833	5.59
369.042	5.69
369.25	5.7
369.459	5.86
369.668	6.02
369.877	6.07
370.085	5.98
370.294	5.97
370.503	5.81
370.711	5.79
370.92	5.81
371.129	5.77
371.337	5.55
371.546	5.45
371.754	5.25
371.963	5.16
372.171	5.08
372.38	5.02
372.589	5.03
372.797	5.08
373.006	5.04
373.214	5.11
373.423	5.23
373.631	5.29
373.84	5.24
374.048	5.3
374.256	5.26
374.465	5.29
374.673	5.33
374.882	5.27
375.09	5.32
375.298	5.36
375.507	5.15
375.715	5.17
375.923	5.07
376.132	5.18
376.34	5.18
376.548	5.19
376.757	5.19
376.965	5.23
377.173	5.25
377.381	5.34
377.59	5.43
377.798	5.49
378.006	5.31
378.214	5.41
378.423	5.3
378.631	5.28
378.839	5.36
379.047	5.27
379.255	5.17
379.463	5.14
379.671	5.02
379.879	4.87
380.088	5.04
380.296	5.14
380.504	5.1
380.712	5.12
380.92	5.07
381.128	5.08
381.336	5
381.544	5.03
381.752	5.09
381.96	5.11
382.168	5.08
382.376	5.03
382.584	5.08
382.791	5.2
382.999	5.28
383.207	5.34
383.415	5.39
383.623	5.53
383.831	5.56
384.039	5.55
384.247	5.54
384.454	5.63
384.662	5.49
384.87	5.43
385.078	5.36
385.285	5.2
385.493	5.12
385.701	5.11
385.909	5.08
386.116	5.16
386.324	5.03
386.532	4.93
386.739	4.87
386.947	4.94
387.155	4.96
387.362	4.99
387.57	5.06
387.778	5.06
387.985	5.04
388.193	5.11
388.4	5.12
388.608	5.22
388.816	5.31
389.023	5.23
389.231	5.25
389.438	5.23
389.646	5.06
389.853	5.09
390.061	5.05
390.268	4.99
390.475	4.9
390.683	4.87
390.89	4.88
391.098	4.88
391.305	4.93
391.512	4.85
391.72	4.81
391.927	4.91
392.135	4.86
392.342	4.84
392.549	4.9
392.756	4.9
392.964	4.85
393.171	4.84
393.378	4.85
393.586	4.85
393.793	4.91
394	4.86
394.207	4.91
394.414	4.92
394.622	4.96
394.829	4.86
395.036	4.95
395.243	4.83
395.45	4.76
395.657	4.82
395.864	4.8
396.072	4.71
396.279	4.81
396.486	4.74
396.693	4.7
396.9	4.61
397.107	4.56
397.314	4.52
397.521	4.62
397.728	4.61
397.935	4.58
398.142	4.51
398.349	4.59
398.556	4.5
398.763	4.45
398.97	4.54
399.177	4.65
399.383	4.75
399.59	4.64
399.797	4.6
400.004	4.56
400.211	4.55
400.418	4.65
400.625	4.61
400.831	4.69
401.038	4.69
401.245	4.66
401.452	4.58
401.658	4.54
401.865	4.51
402.072	4.45
402.279	4.43
402.485	4.35
402.692	4.25
402.899	4.27
403.105	4.25
403.312	4.35
403.519	4.35
403.725	4.35
403.932	4.41
404.138	4.45
404.345	4.45
404.552	4.52
404.758	4.6
404.965	4.61
405.171	4.6
405.378	4.55
405.584	4.54
405.791	4.37
405.997	4.41
406.204	4.42
406.41	4.42
406.617	4.4
406.823	4.32
407.029	4.32
407.236	4.38
407.442	4.41
407.649	4.42
407.855	4.27
408.061	4.45
408.268	4.44
408.474	4.35
408.68	4.34
408.887	4.4
409.093	4.36
409.299	4.36
409.505	4.25
409.712	4.16
409.918	4.14
410.124	4.22
410.33	4.16
410.537	4.15
410.743	4.15
410.949	4.1
411.155	4.11
411.361	4.2
411.567	4.13
411.773	4.21
411.98	4.25
412.186	4.34
412.392	4.36
412.598	4.37
412.804	4.28
413.01	4.22
413.216	4.31
413.422	4.22
413.628	4.15
413.834	4.11
414.04	4.14
414.246	4.16
414.452	4.04
414.658	4.01
414.864	3.94
415.07	3.98
415.275	4.06
415.481	3.95
415.687	3.96
415.893	3.97
416.099	3.94
416.305	3.8
416.511	3.79
416.716	3.77
416.922	3.72
417.128	3.7
417.334	3.67
417.539	3.64
417.745	3.62
417.951	3.62
418.157	3.61
418.362	3.6
418.568	3.63
418.774	3.61
418.979	3.64
419.185	3.69
419.391	3.72
419.596	3.7
419.802	3.67
420.008	3.66
420.213	3.37
420.419	3.38
420.624	3.35
420.83	3.36
421.035	3.35
421.241	3.34
421.446	3.29
421.652	3.24
421.857	3.24
422.063	3.2
422.268	3.2
422.474	3.46
422.679	3.42
422.885	3.48
423.09	3.44
423.295	3.4
423.501	3.37
423.706	3.34
423.911	3.34
424.117	3.35
424.322	3.42
424.527	3.44
424.733	3.42
424.938	3.45
425.143	3.41
425.349	3.45
425.554	3.49
425.759	3.49
425.964	3.57
426.169	3.59
426.375	3.55
426.58	3.53
426.785	3.54
426.99	3.58
427.195	3.59
427.4	3.56
427.605	3.58
427.811	3.56
428.016	3.61
428.221	3.56
428.426	3.58
428.631	3.61
428.836	3.56
429.041	3.59
429.246	3.5
429.451	3.5
429.656	3.59
429.861	3.57
430.066	3.62
430.271	3.56
430.476	3.56
430.681	3.55
430.886	3.59
431.09	3.61
431.295	3.52
431.5	3.54
431.705	3.48
431.91	3.44
432.115	3.44
432.32	3.39
432.524	3.4
432.729	3.35
432.934	3.31
433.139	3.31
433.343	3.3
433.548	3.38
433.753	3.43
433.958	3.5
434.162	3.52
434.367	3.52
434.572	3.52
434.776	3.5
434.981	3.57
435.186	3.61
435.39	3.58
435.595	3.6
435.799	3.55
436.004	3.51
436.209	3.43
436.413	3.37
436.618	3.36
436.822	3.34
437.027	3.34
437.231	3.25
437.436	3.2
437.64	3.2
437.845	3.17
438.049	3.2
438.253	3.15
438.458	3.16
438.662	3.21
438.867	3.23
439.071	3.26
439.275	3.25
439.48	3.34
439.684	3.34
439.888	3.32
440.093	3.35
440.297	3.32
440.501	3.38
440.706	3.38
440.91	3.35
441.114	3.33
441.318	3.28
441.523	3.29
441.727	3.24
441.931	3.27
442.135	3.28
442.339	3.25
442.543	3.26
442.748	3.24
442.952	3.2
443.156	3.2
443.36	3.19
443.564	3.17
443.768	3.13
443.972	3.13
444.176	3.1
444.38	3.09
444.584	3.09
444.788	3.04
444.992	3.03
445.196	3.05
445.4	2.99
445.604	2.95
445.808	2.97
446.012	3
446.216	2.97
446.42	2.98
446.624	2.99
446.828	2.97
447.032	2.97
447.235	2.97
447.439	2.98
447.643	3.08
447.847	3.18
448.051	3.2
448.254	3.21
448.458	3.26
448.662	3.28
448.866	3.26
449.069	3.25
449.273	3.32
449.477	3.33
449.681	3.34
449.884	3.3
450.088	3.27
450.292	3.24
450.495	3.19
450.699	3.21
450.902	3.18
451.106	3.19
451.31	3.23
451.513	3.19
451.717	3.21
451.92	3.2
452.124	3.16
452.327	3.11
452.531	3.14
452.734	3.14
452.938	3.13
453.141	3.14
453.345	3.15
453.548	3.16
453.752	3.18
453.955	3.22
454.158	3.23
454.362	3.25
454.565	3.34
454.769	3.32
454.972	3.39
455.175	3.36
455.379	3.37
455.582	3.35
455.785	3.36
455.988	3.29
456.192	3.21
456.395	3.18
456.598	3.17
456.801	3.11
457.005	3.1
457.208	3.04
457.411	3.05
457.614	3
457.817	2.98
458.021	2.93
458.224	2.93
458.427	2.94
458.63	2.98
458.833	2.96
459.036	2.93
459.239	2.9
459.442	2.92
459.645	2.87
459.848	2.93
460.051	2.93
460.254	2.97
460.457	2.96
460.66	3
460.863	2.99
461.066	2.98
461.269	3.01
461.472	3.1
461.675	3.11
461.878	3.18
462.081	3.13
462.284	3.14
462.486	3.13
462.689	3.18
462.892	3.16
463.095	3.12
463.298	3.18
463.5	3.16
463.703	3.08
463.906	3.08
464.109	3.11
464.311	3.09
464.514	3.16
464.717	3.17
464.92	3.15
465.122	3.16
465.325	3.19
465.528	3.21
465.73	3.24
465.933	3.25
466.135	3.16
466.338	3.12
466.541	3.13
466.743	3.07
466.946	3.11
467.148	3.14
467.351	3.16
467.553	3.15
467.756	3.13
467.958	3.09
468.161	3.11
468.363	3.15
468.566	3.14
468.768	3.13
468.971	3.15
469.173	3.13
469.375	3.1
469.578	2.95
469.78	2.95
469.983	2.92
470.185	2.96
470.387	2.97
470.59	3.04
470.792	3.09
470.994	3.1
471.196	3.11
471.399	3.07
471.601	3.04
471.803	3.09
472.005	3.1
472.208	3.15
472.41	3.1
472.612	3.03
472.814	3.07
473.016	3.08
473.218	3.17
473.421	3.15
473.623	3.18
473.825	3.23
474.027	3.27
474.229	3.26
474.431	3.21
474.633	3.27
474.835	3.34
475.037	3.27
475.239	3.22
475.441	3.13
475.643	3.15
475.845	3.13
476.047	3.1
476.249	3.12
476.451	3.1
476.653	3.1
476.855	3.08
477.057	3.06
477.258	3.07
477.46	3.08
477.662	3.07
477.864	3.1
478.066	3.05
478.268	3.05
478.469	3.03
478.671	3.05
478.873	3.03
479.075	3.03
479.276	3.02
479.478	3.04
479.68	3
479.882	3.04
480.083	2.99
480.285	2.99
480.487	2.98
480.688	2.96
480.89	2.98
481.091	2.95
481.293	2.95
481.495	2.94
481.696	2.93
481.898	2.92
482.099	2.88
482.301	2.86
482.502	2.85
482.704	2.82
482.905	2.81
483.107	2.77
483.308	2.76
483.51	2.74
483.711	2.73
483.913	2.74
484.114	2.73
484.315	2.74
484.517	2.76
484.718	2.78
484.92	2.81
485.121	2.82
485.322	2.83
485.524	2.84
485.725	2.84
485.926	2.85
486.127	2.82
486.329	2.82
486.53	2.82
486.731	2.8
486.932	2.77
487.134	2.75
487.335	2.77
487.536	2.79
487.737	2.82
487.938	2.82
488.139	2.83
488.341	2.85
488.542	2.87
488.743	2.88
488.944	2.89
489.145	2.9
489.346	2.93
489.547	2.94
489.748	2.9
489.949	2.86
490.15	2.86
490.351	2.85
490.552	2.84
490.753	2.82
490.954	2.79
491.155	2.78
491.356	2.81
491.557	2.81
491.758	2.82
491.959	2.85
492.159	2.88
492.36	2.91
492.561	2.93
492.762	2.95
492.963	2.98
493.164	3.03
493.364	3.07
493.565	3.08
493.766	3.13
493.967	3.14
494.167	3.17
494.368	3.14
494.569	3.12
494.769	3.13
494.97	3.13
495.171	3.13
495.371	3.09
495.572	3.08
495.773	3.05
495.973	3.04
496.174	3.04
496.375	3.05
496.575	3.07
496.776	3.1
496.976	3.1
497.177	3.09
497.377	3.12
497.578	3.17
497.778	3.18
497.979	3.2
498.179	3.18
498.38	3.2
498.58	3.18
498.78	3.18
498.981	3.19
499.181	3.17
499.382	3.19
499.582	3.16
499.782	3.17
499.983	3.22
500.183	3.24
500.383	3.23
500.584	3.21
500.784	3.22
500.984	3.24
501.184	3.2
501.385	3.23
501.585	3.25
501.785	3.27
501.985	3.29
502.185	3.29
502.386	3.26
502.586	3.3
502.786	3.33
502.986	3.33
503.186	3.37
503.386	3.42
503.586	3.46
503.786	3.46
503.987	3.48
504.187	3.45
504.387	3.42
504.587	3.45
504.787	3.43
504.987	3.41
505.187	3.44
505.387	3.41
505.587	3.46
505.786	3.44
505.986	3.44
506.186	3.42
506.386	3.42
506.586	3.42
506.786	3.42
506.986	3.43
507.186	3.43
507.386	3.4
507.585	3.39
507.785	3.37
507.985	3.36
508.185	3.38
508.384	3.39
508.584	3.39
508.784	3.41
508.984	3.43
509.183	3.48
509.383	3.48
509.583	3.49
509.782	3.51
509.982	3.52
510.182	3.54
510.381	3.56
510.581	3.58
510.781	3.59
510.98	3.65
511.18	3.65
511.379	3.6
511.579	3.67
511.778	3.7
511.978	3.76
512.177	3.8
512.377	3.82
512.576	3.84
512.776	3.85
512.975	3.89
513.175	3.85
513.374	3.89
513.573	3.95
513.773	3.95
513.972	3.95
514.172	3.95
514.371	3.96
514.57	3.99
514.77	4.03
514.969	4.07
515.168	4.08
515.367	4.08
515.567	4.07
515.766	4.05
515.965	4.04
516.164	4.07
516.364	4.04
516.563	4
516.762	3.98
516.961	3.97
517.16	3.96
517.359	3.93
517.559	3.96
517.758	4
517.957	4.01
518.156	4.03
518.355	4.02
518.554	4.08
518.753	4.12
518.952	4.13
519.151	4.15
519.35	4.17
519.549	4.24
519.748	4.26
519.947	4.25
520.146	4.27
520.345	4.28
520.544	4.32
520.743	4.29
520.942	4.27
521.141	4.32
521.339	4.35
521.538	4.36
521.737	4.34
521.936	4.35
522.135	4.37
522.333	4.4
522.532	4.43
522.731	4.42
522.93	4.44
523.129	4.48
523.327	4.49
523.526	4.49
523.725	4.49
523.923	4.52
524.122	4.53
524.321	4.49
524.519	4.52
524.718	4.49
524.917	4.52
525.115	4.54
525.314	4.55
525.512	4.55
525.711	4.55
525.909	4.58
526.108	4.59
526.306	4.6
526.505	4.65
526.703	4.65
526.902	4.65
527.1	4.64
527.299	4.65
527.497	4.66
527.696	4.66
527.894	4.67
528.092	4.65
528.291	4.66
528.489	4.66
528.688	4.68
528.886	4.7
529.084	4.74
529.283	4.78
529.481	4.8
529.679	4.82
529.877	4.88
530.076	4.93
530.274	5
530.472	5.03
530.67	5.06
530.869	5.06
531.067	5.09
531.265	5.09
531.463	5.1
531.661	5.09
531.859	5.12
532.057	5.12
532.255	5.08
532.454	5.06
532.652	5.09
532.85	5.13
533.048	5.14
533.246	5.16
533.444	5.21
533.642	5.24
533.84	5.3
534.038	5.32
534.236	5.33
534.434	5.41
534.632	5.45
534.83	5.49
535.027	5.53
535.225	5.53
535.423	5.54
535.621	5.53
535.819	5.54
536.017	5.54
536.215	5.54
536.412	5.59
536.61	5.6
536.808	5.63
537.006	5.63
537.203	5.65
537.401	5.68
537.599	5.74
537.797	5.77
537.994	5.8
538.192	5.84
538.39	5.91
538.587	5.89
538.785	5.93
538.983	5.91
539.18	5.93
539.378	5.94
539.575	5.98
539.773	5.99
539.97	6.01
540.168	6.05
540.366	6.04
540.563	6.09
540.761	6.11
540.958	6.12
541.155	6.15
541.353	6.18
541.55	6.2
541.748	6.22
541.945	6.25
542.143	6.28
542.34	6.32
542.537	6.35
542.735	6.35
542.932	6.38
543.129	6.43
543.327	6.47
543.524	6.52
543.721	6.58
543.919	6.63
544.116	6.68
544.313	6.74
544.51	6.74
544.708	6.79
544.905	6.82
545.102	6.9
545.299	6.94
545.496	6.98
545.693	6.97
545.891	7.01
546.088	7.04
546.285	7.12
546.482	7.11
546.679	7.15
546.876	7.2
547.073	7.28
547.27	7.3
547.467	7.3
547.664	7.34
547.861	7.4
548.058	7.47
548.255	7.53
548.452	7.56
548.649	7.64
548.846	7.74
549.043	7.82
549.24	7.84
549.437	7.88
549.633	7.96
549.83	8
550.027	8.08
550.224	8.08
550.421	8.11
550.618	8.15
550.814	8.18
551.011	8.18
551.208	8.15
551.405	8.18
551.601	8.2
551.798	8.21
551.995	8.26
552.191	8.26
552.388	8.29
552.585	8.31
552.781	8.27
552.978	8.33
553.175	8.44
553.371	8.52
553.568	8.59
553.764	8.67
553.961	8.72
554.157	8.77
554.354	8.84
554.55	8.89
554.747	8.97
554.943	9.1
555.14	9.13
555.336	9.12
555.533	9.17
555.729	9.25
555.926	9.32
556.122	9.41
556.318	9.45
556.515	9.53
556.711	9.55
556.907	9.55
557.104	9.64
557.3	9.69
557.496	9.79
557.693	9.83
557.889	9.82
558.085	9.83
558.281	9.93
558.478	10.03
558.674	10.07
558.87	10.16
559.066	10.24
559.262	10.3
559.459	10.34
559.655	10.32
559.851	10.41
560.047	10.57
560.243	10.58
560.439	10.6
560.635	10.59
560.831	10.67
561.027	10.74
561.223	10.76
561.419	10.73
561.615	10.83
561.811	10.92
562.007	10.97
562.203	10.92
562.399	10.97
562.595	11.01
562.791	11.06
562.987	11.07
563.183	11.05
563.379	11.11
563.575	11.21
563.771	11.22
563.966	11.26
564.162	11.3
564.358	11.33
564.554	11.4
564.75	11.41
564.945	11.54
565.141	11.6
565.337	11.68
565.533	11.71
565.728	11.76
565.924	11.77
566.12	11.79
566.315	11.82
566.511	11.89
566.707	11.91
566.902	12.01
567.098	12.05
567.293	12.14
567.489	12.18
567.684	12.22
567.88	12.25
568.076	12.37
568.271	12.48
568.467	12.51
568.662	12.56
568.858	12.65
569.053	12.66
569.248	12.62
569.444	12.59
569.639	12.66
569.835	12.7
570.03	12.77
570.225	12.74
570.421	12.79
570.616	12.88
570.812	12.93
571.007	12.95
571.202	13.04
571.397	13.06
571.593	13.11
571.788	13.15
571.983	13.23
572.178	13.22
572.374	13.33
572.569	13.35
572.764	13.38
572.959	13.42
573.154	13.46
573.35	13.45
573.545	13.55
573.74	13.55
573.935	13.57
574.13	13.59
574.325	13.63
574.52	13.65
574.715	13.69
574.91	13.69
575.105	13.72
575.3	13.78
575.495	13.83
575.69	13.84
575.885	13.95
576.08	14.02
576.275	14.1
576.47	14.17
576.665	14.18
576.86	14.19
577.055	14.23
577.25	14.23
577.444	14.26
577.639	14.35
577.834	14.34
578.029	14.35
578.224	14.34
578.418	14.37
578.613	14.36
578.808	14.35
579.003	14.4
579.197	14.41
579.392	14.48
579.587	14.48
579.781	14.42
579.976	14.55
580.171	14.62
580.365	14.68
580.56	14.67
580.755	14.75
580.949	14.79
581.144	14.81
581.338	14.87
581.533	14.95
581.727	15.05
581.922	15.13
582.116	15.12
582.311	15.1
582.505	15.12
582.7	15.2
582.894	15.23
583.089	15.34
583.283	15.38
583.478	15.45
583.672	15.44
583.866	15.43
584.061	15.5
584.255	15.56
584.449	15.64
584.644	15.69
584.838	15.71
585.032	15.77
585.226	15.71
585.421	15.78
585.615	15.75
585.809	15.81
586.003	15.84
586.198	15.82
586.392	15.8
586.586	15.82
586.78	15.83
586.974	15.9
587.168	15.84
587.363	15.91
587.557	15.91
587.751	15.96
587.945	15.98
588.139	16.03
588.333	16.08
588.527	16.15
588.721	16.16
588.915	16.22
589.109	16.19
589.303	16.32
589.497	16.34
589.691	16.36
589.885	16.4
590.079	16.37
590.273	16.36
590.466	16.39
590.66	16.41
590.854	16.44
591.048	16.38
591.242	16.36
591.436	16.31
591.629	16.33
591.823	16.32
592.017	16.4
592.211	16.46
592.404	16.45
592.598	16.38
592.792	16.35
592.986	16.34
593.179	16.36
593.373	16.4
593.567	16.38
593.76	16.36
593.954	16.45
594.147	16.37
594.341	16.39
594.535	16.42
594.728	16.46
594.922	16.51
595.115	16.51
595.309	16.58
595.502	16.57
595.696	16.61
595.889	16.66
596.083	16.6
596.276	16.63
596.47	16.66
596.663	16.62
596.856	16.67
597.05	16.73
597.243	16.71
597.437	16.74
597.63	16.77
597.823	16.82
598.017	16.81
598.21	16.86
598.403	16.85
598.596	16.91
598.79	16.95
598.983	16.97
599.176	16.91
599.369	16.98
599.563	16.99
599.756	17
599.949	16.99
600.142	17.01
600.335	17.01
600.528	17.09
600.722	17.01
600.915	17.06
601.108	17.06
601.301	17.12
601.494	17.16
601.687	17.09
601.88	17.07
602.073	17.04
602.266	17.09
602.459	17.12
602.652	17.06
602.845	17.1
603.038	17.1
603.231	17.12
603.424	17.09
603.617	17.09
603.809	17.1
604.002	17.17
604.195	17.25
604.388	17.27
604.581	17.25
604.774	17.27
604.966	17.22
605.159	17.22
605.352	17.22
605.545	17.29
605.737	17.3
605.93	17.43
606.123	17.44
606.316	17.42
606.508	17.44
606.701	17.58
606.894	17.6
607.086	17.7
607.279	17.75
607.471	17.77
607.664	17.74
607.857	17.77
608.049	17.79
608.242	17.82
608.434	17.82
608.627	17.89
608.819	17.9
609.012	18.01
609.204	18.15
609.397	18.28
609.589	18.38
609.782	18.55
609.974	18.63
610.166	18.75
610.359	18.89
610.551	19
610.743	19.03
610.936	19.12
611.128	19.07
611.32	19.04
611.513	19.04
611.705	19.05
611.897	18.99
612.09	19.02
612.282	19
612.474	18.93
612.666	18.94
612.858	18.99
613.051	18.92
613.243	19.01
613.435	18.97
613.627	18.9
613.819	18.89
614.011	19.07
614.203	18.99
614.395	18.93
614.588	18.81
614.78	18.77
614.972	18.7
615.164	18.67
615.356	18.63
615.548	18.58
615.74	18.63
615.932	18.51
616.124	18.29
616.315	18.24
616.507	18.27
616.699	18.31
616.891	18.29
617.083	18.24
617.275	18.32
617.467	18.27
617.659	18.29
617.85	18.25
618.042	18.36
618.234	18.41
618.426	18.5
618.618	18.47
618.809	18.39
619.001	18.37
619.193	18.49
619.384	18.5
619.576	18.55
619.768	18.62
619.959	18.63
620.151	18.58
620.343	18.55
620.534	18.5
620.726	18.47
620.917	18.6
621.109	18.57
621.301	18.53
621.492	18.42
621.684	18.48
621.875	18.44
622.067	18.45
622.258	18.5
622.45	18.46
622.641	18.52
622.832	18.51
623.024	18.45
623.215	18.51
623.407	18.42
623.598	18.48
623.789	18.5
623.981	18.52
624.172	18.54
624.363	18.48
624.555	18.52
624.746	18.46
624.937	18.42
625.129	18.52
625.32	18.46
625.511	18.54
625.702	18.49
625.893	18.45
626.085	18.5
626.276	18.43
626.467	18.41
626.658	18.42
626.849	18.5
627.04	18.5
627.231	18.51
627.422	18.52
627.614	18.49
627.805	18.55
627.996	18.57
628.187	18.53
628.378	18.58
628.569	18.64
628.76	18.76
628.951	18.75
629.142	18.78
629.332	18.77
629.523	18.88
629.714	18.93
629.905	18.97
630.096	18.99
630.287	19.02
630.478	19.01
630.669	19.02
630.859	18.9
631.05	18.84
631.241	18.93
631.432	18.87
631.623	18.87
631.813	18.83
632.004	18.75
632.195	18.71
632.385	18.62
632.576	18.72
632.767	18.74
632.957	18.72
633.148	18.78
633.339	18.68
633.529	18.75
633.72	18.6
633.91	18.65
634.101	18.6
634.292	18.59
634.482	18.61
634.673	18.61
634.863	18.7
635.054	18.7
635.244	18.64
635.435	18.67
635.625	18.59
635.815	18.64
636.006	18.61
636.196	18.7
636.387	18.67
636.577	18.7
636.767	18.63
636.958	18.56
637.148	18.6
637.338	18.61
637.529	18.63
637.719	18.7
637.909	18.84
638.099	18.82
638.29	18.75
638.48	18.85
638.67	18.85
638.86	18.84
639.05	18.89
639.241	18.84
639.431	18.86
639.621	18.81
639.811	18.84
640.001	18.75
640.191	18.74
640.381	18.78
640.571	18.83
640.761	18.86
640.951	18.85
641.141	18.83
641.331	18.93
641.521	18.97
641.711	19.06
641.901	18.91
642.091	18.88
642.281	18.85
642.471	18.89
642.661	18.87
642.851	18.94
643.041	18.99
643.231	18.95
643.42	18.92
643.61	18.94
643.8	18.9
643.99	18.96
644.18	19.01
644.369	19.12
644.559	19.15
644.749	19.09
644.939	18.99
645.128	18.96
645.318	18.95
645.508	18.97
645.697	18.94
645.887	19.06
646.076	19.13
646.266	19.04
646.456	19
646.645	19.07
646.835	19.14
647.024	19.11
647.214	19.19
647.403	19.2
647.593	19.15
647.782	19.17
647.972	19.09
648.161	19.13
648.351	19.22
648.54	19.28
648.73	19.22
648.919	19.12
649.108	19.12
649.298	19.05
649.487	19.11
649.677	19.12
649.866	19.09
650.055	19.11
650.244	18.98
650.434	19.07
650.623	18.98
650.812	19.03
651.002	19.06
651.191	19.09
651.38	19.19
651.569	19.21
651.758	19.25
651.947	19.32
652.137	19.33
652.326	19.44
652.515	19.39
652.704	19.43
652.893	19.4
653.082	19.46
653.271	19.58
653.46	19.55
653.649	19.61
653.838	19.61
654.027	19.59
654.216	19.54
654.405	19.47
654.594	19.45
654.783	19.47
654.972	19.45
655.161	19.45
655.35	19.36
655.539	19.32
655.728	19.25
655.916	19.23
656.105	19.28
656.294	19.39
656.483	19.41
656.672	19.45
656.86	19.38
657.049	19.41
657.238	19.45
657.427	19.48
657.615	19.41
657.804	19.4
657.993	19.41
658.181	19.38
658.37	19.35
658.559	19.42
658.747	19.36
658.936	19.49
659.125	19.44
659.313	19.38
659.502	19.37
659.69	19.47
659.879	19.5
660.067	19.59
660.256	19.53
660.444	19.47
660.633	19.43
660.821	19.54
661.01	19.42
661.198	19.59
661.387	19.66
661.575	19.68
661.763	19.73
661.952	19.68
662.14	19.59
662.328	19.66
662.517	19.68
662.705	19.63
662.893	19.65
663.082	19.8
663.27	19.69
663.458	19.68
663.646	19.66
663.834	19.61
664.023	19.76
664.211	19.84
664.399	19.82
664.587	19.86
664.775	19.89
664.963	19.83
665.152	19.81
665.34	19.83
665.528	19.8
665.716	19.8
665.904	19.8
666.092	19.71
666.28	19.59
666.468	19.59
666.656	19.61
666.844	19.77
667.032	19.75
667.22	19.69
667.408	19.65
667.596	19.74
667.784	19.66
667.971	19.73
668.159	19.72
668.347	19.72
668.535	19.69
668.723	19.61
668.911	19.56
669.098	19.48
669.286	19.57
669.474	19.62
669.662	19.63
669.849	19.74
670.037	19.64
670.225	19.63
670.413	19.64
670.6	19.69
670.788	19.73
670.976	19.68
671.163	19.76
671.351	19.69
671.538	19.62
671.726	19.59
671.913	19.57
672.101	19.52
672.289	19.5
672.476	19.55
672.664	19.54
672.851	19.6
673.039	19.68
673.226	19.68
673.413	19.62
673.601	19.68
673.788	19.59
673.976	19.65
674.163	19.82
674.35	19.91
674.538	19.93
674.725	19.93
674.912	19.84
675.1	19.76
675.287	19.83
675.474	19.84
675.662	19.88
675.849	19.92
676.036	19.81
676.223	19.74
676.411	19.7
676.598	19.61
676.785	19.72
676.972	19.74
677.159	19.72
677.346	19.66
677.533	19.78
677.721	19.78
677.908	19.76
678.095	19.81
678.282	19.73
678.469	19.67
678.656	19.79
678.843	19.71
679.03	19.83
679.217	19.91
679.404	19.96
679.591	19.84
679.778	19.9
679.964	19.91
680.151	19.98
680.338	20.07
680.525	20.1
680.712	20.1
680.899	20.18
681.086	20.16
681.272	20.16
681.459	20.1
681.646	20.28
681.833	20.17
682.02	20.08
682.206	20.06
682.393	20.08
682.58	20.14
682.766	20.09
682.953	20.09
683.14	20.03
683.326	20.07
683.513	20.16
683.7	20.17
683.886	20.15
684.073	20.26
684.259	20.2
684.446	20.25
684.632	20.25
684.819	20.23
685.005	20.08
685.192	20.12
685.378	20.07
685.565	20.08
685.751	19.92
685.938	19.91
686.124	20.07
686.31	20.09
686.497	19.95
686.683	19.9
686.87	19.91
687.056	19.98
687.242	19.92
687.429	20.01
687.615	19.95
687.801	19.99
687.987	20.05
688.174	19.9
688.36	19.9
688.546	20.02
688.732	20.08
688.918	20.14
689.105	20.27
689.291	20.36
689.477	20.34
689.663	20.37
689.849	20.33
690.035	20.34
690.221	20.49
690.407	20.6
690.593	20.55
690.779	20.52
690.965	20.6
691.151	20.59
691.337	20.64
691.523	20.75
691.709	20.88
691.895	21.03
692.081	21.04
692.267	20.96
692.453	20.82
692.639	21
692.825	20.91
693.011	20.83
693.196	20.83
693.382	20.69
693.568	20.45
693.754	20.35
693.94	20.27
694.125	20.23
694.311	20.15
694.497	20.28
694.682	20.08
694.868	20.11
695.054	20.13
695.239	20.18
695.425	20.15
695.611	20.28
695.796	20.14
695.982	20.08
696.168	20.1
696.353	20.18
696.539	20.11
696.724	20.16
696.91	20.27
697.095	20.17
697.281	20.15
697.466	20.26
697.652	20.23
697.837	20.23
698.023	20.31
698.208	20.3
698.393	20.37
698.579	20.38
698.764	20.24
698.949	20.12
699.135	20.19
699.32	20.03
699.505	20.03
699.691	19.95
699.876	19.95
700.061	19.97
700.246	20
700.432	19.92
700.617	19.77
700.802	19.76
700.987	19.94
701.172	19.9
701.358	20.05
701.543	20.09
701.728	20.15
701.913	20.26
702.098	20.31
702.283	20.4
702.468	20.42
702.653	20.67
702.838	20.97
703.023	20.84
703.208	20.84
703.393	20.76
703.578	20.74
703.763	20.82
703.948	20.87
704.133	20.95
704.318	20.97
704.503	20.89
704.688	20.91
704.873	20.84
705.057	20.96
705.242	21.02
705.427	21.11
705.612	21.14
705.797	21.27
705.981	21.4
706.166	21.47
706.351	21.24
706.536	21.38
706.72	21.33
706.905	21.34
707.09	21.26
707.274	21.25
707.459	21.3
707.644	21.37
707.828	21.17
708.013	20.96
708.197	20.82
708.382	21.03
708.567	20.97
708.751	21
708.936	20.93
709.12	20.88
709.305	20.96
709.489	20.88
709.673	20.73
709.858	20.63
710.042	20.66
710.227	20.62
710.411	20.64
710.596	20.6
710.78	20.49
710.964	20.69
711.149	20.89
711.333	20.81
711.517	20.79
711.702	21.02
711.886	21.13
712.07	21.17
712.254	21.16
712.438	20.96
712.623	21.01
712.807	21.13
712.991	20.93
713.175	20.78
713.359	20.84
713.544	20.93
713.728	20.85
713.912	20.88
714.096	20.96
714.28	20.9
714.464	21.09
714.648	20.98
714.832	20.9
715.016	20.88
715.2	20.97
715.384	21.01
715.568	20.99
715.752	20.73
715.936	20.68
716.12	20.66
716.304	20.66
716.488	20.49
716.671	20.59
716.855	20.61
717.039	20.72
717.223	20.63
717.407	20.52
717.59	20.62
717.774	20.86
717.958	21.04
718.142	20.81
718.325	20.87
718.509	21.05
718.693	21.07
718.877	21.03
719.06	20.98
719.244	20.99
719.428	21.03
719.611	20.96
719.795	20.77
719.978	20.69
720.162	20.84
720.345	20.93
720.529	20.85
720.713	21.02
720.896	21.19
721.08	21.21
721.263	21.36
721.446	21.39
721.63	21.22
721.813	21.17
721.997	21.19
722.18	21.27
722.364	21.24
722.547	21.25
722.73	21.1
722.914	21.03
723.097	20.96
723.28	20.87
723.464	20.87
723.647	21.07
723.83	21.36
724.013	21.27
724.197	21.39
724.38	21.53
724.563	21.54
724.746	21.47
724.929	21.67
725.112	21.75
725.296	21.68
725.479	21.8
725.662	21.84
725.845	21.73
726.028	21.58
726.211	21.52
726.394	21.28
726.577	21.05
726.76	21
726.943	20.73
727.126	20.76
727.309	20.81
727.492	20.73
727.675	20.57
727.858	20.5
728.041	20.74
728.224	20.86
728.407	20.82
728.589	21.16
728.772	21.26
728.955	21.31
729.138	21.19
729.321	20.89
729.503	21
729.686	21.06
729.869	21
730.052	20.86
730.234	20.57
730.417	20.6
730.6	20.49
730.782	20.45
730.965	20.57
731.148	20.7
731.33	20.96
731.513	20.86
731.695	20.77
731.878	20.85
732.061	20.7
732.243	20.77
732.426	20.59
732.608	20.69
732.791	20.88
732.973	20.68
733.156	20.65
733.338	20.6
733.52	20.63
733.703	20.83
733.885	21.17
734.068	21.44
734.25	21.64
734.432	21.97
734.615	21.89
734.797	21.5
734.979	21.52
735.162	21.38
735.344	21.51
735.526	21.55
735.708	21.13
735.891	20.89
736.073	20.85
736.255	20.65
736.437	20.61
736.619	20.57
736.802	20.89
736.984	20.75
737.166	20.92
737.348	20.86
737.53	20.62
737.712	20.89
737.894	20.87
738.076	20.92
738.258	20.92
738.44	20.98
738.622	20.99
738.804	20.97
738.986	21.36
739.168	21.33
739.35	21.47
739.532	21.62
739.714	21.9
739.896	21.8
740.078	21.86
740.259	21.88
740.441	22.02
740.623	21.83
740.805	21.76
740.987	21.53
741.168	21.25
741.35	21.1
741.532	21.12
741.714	20.73
741.895	20.84
742.077	20.55
742.259	20.6
742.44	20.19
742.622	20.35
742.804	20.36
742.985	20.59
743.167	20.73
743.348	20.7
743.53	20.46
743.711	20.76
743.893	20.81
744.075	20.71
744.256	20.73
744.438	20.84
744.619	20.88
744.8	20.82
744.982	20.69
745.163	20.51
745.345	20.71
745.526	21.03
745.707	21.05
745.889	20.97
746.07	21.21
746.252	21.31
746.433	21.21
746.614	20.99
746.795	20.82
746.977	20.97
747.158	21.37
747.339	21.35
747.52	21.3
747.702	21.07
747.883	21.2
748.064	21.31
748.245	20.96
748.426	21.17
748.607	21.33
748.788	21.41
748.97	21.28
749.151	21.14
749.332	21.02
749.513	20.95
749.694	21.11
749.875	20.99
750.056	20.87
750.237	21.03
750.418	20.99
750.599	21.14
750.78	21.62
750.96	21.54
751.141	21.47
751.322	21.22
751.503	21.34
751.684	21.37
751.865	21.16
752.046	20.96
752.226	21.01
752.407	21.32
752.588	21.31
752.769	21.17
752.949	21.22
753.13	21.37
753.311	21.44
753.492	21.24
753.672	21.67
753.853	22.03
754.034	22.4
754.214	22.17
754.395	21.66
754.575	21.81
754.756	21.71
754.937	21.61
755.117	21.8
755.298	22.08
755.478	21.8
755.659	21.1
755.839	20.93
756.02	20.8
756.2	21
756.381	21.04
756.561	21.01
756.741	21.02
756.922	21.22
757.102	21.07
757.283	21.07
757.463	21.36
757.643	21.57
757.823	21.35
758.004	21.41
758.184	21.28
758.364	21.73
758.545	21.64
758.725	21.51
758.905	21.25
759.085	21.32
759.265	21.28
759.446	21.25
759.626	21.15
759.806	21.3
759.986	21.43
760.166	21.55
760.346	21.38
760.526	21.42
760.706	21.55
760.886	21.81
761.066	21.69
761.246	21.54
761.426	21.77
761.606	21.64
761.786	21.58
761.966	21.32
762.146	21.36
762.326	21.38
762.506	21.2
762.686	21.02
762.866	21.01
763.046	21.13
763.225	21.31
763.405	21.23
763.585	21.26
763.765	21.37
763.945	21.34
764.124	21.25
764.304	21.35
764.484	21.38
764.664	21.4
764.843	21.37
765.023	21.27
765.203	21.19
765.382	20.94
765.562	21.24
765.741	21.22
765.921	21.4
766.101	21.46
766.28	21.34
766.46	21.49
766.639	21.63
766.819	21.64
766.998	21.54
767.178	21.32
767.357	21.64
767.537	21.41
767.716	21.54
767.896	21.28
768.075	21.69
768.254	21.54
768.434	21.49
768.613	21.72
768.792	21.88
768.972	22.32
769.151	22.32
769.33	21.89
769.51	22.06
769.689	21.94
769.868	22.39
770.047	22.43
770.226	22.59
770.406	22.65
770.585	22.62
770.764	22.47
770.943	22.27
771.122	22.12
771.301	23.1
771.48	23.11
771.66	23.2
771.839	23.32
772.018	22.63
772.197	22.39
772.376	22.29
772.555	22.16
772.734	22.19
772.913	22.23
773.092	22.63
773.271	21.74
773.449	21.62
773.628	21.74
773.807	21.22
773.986	21.6
774.165	21.48
774.344	21.59
774.523	21.31
774.701	21.08
774.88	21.04
775.059	20.6
775.238	20.93
775.417	21.09
775.595	20.9
775.774	21.14
775.953	21.13
776.131	21.24
776.31	21.05
776.489	21.31
776.667	21.26
776.846	21.05
777.025	21.59
777.203	21.44
777.382	21.42
777.56	21.09
777.739	21.4
777.917	21.23
778.096	21.54
778.274	21.97
778.453	22.07
778.631	22.18
778.81	22.18
778.988	21.91
779.166	21.88
779.345	21.65
779.523	22.13
779.702	22.13
779.88	22.62
780.058	22.28
780.237	22.35
780.415	22.23
780.593	22.17
780.771	22.55
780.95	22.99
781.128	23.22
781.306	23.39
781.484	23.39
781.662	22.69
781.841	22.25
782.019	22.69
782.197	22.54
782.375	22.8
782.553	23.29
782.731	23.06
782.909	22.67
783.087	22.78
783.265	23.28
783.443	23.26
783.621	23.64
783.799	23.64
783.977	23.64
784.155	23.35
784.333	23.82
784.511	23.27
784.689	23.45
784.867	23.36
785.045	23.03
785.223	22.26
785.4	21.9
785.578	21.73
785.756	21.4
785.934	21.17
786.112	21.38
786.289	20.7
786.467	20.68
786.645	20.1
786.823	20.28
787	20.6
787.178	20.65
787.356	21.18
787.533	21.15
787.711	21.64
787.889	21.6
788.066	21.64
788.244	21.75
788.421	22.3
788.599	22.64
788.776	22.42
788.954	22.38
789.131	22.34
789.309	22.46
789.486	23.07
789.664	23.2
789.841	23.57
790.019	23.44
790.196	23.52
790.373	23.08
790.551	23.51
790.728	24.16
790.906	24.86
791.083	24.5
791.26	24.05
791.437	23.68
791.615	23.32
791.792	22.97
791.969	22.92
792.146	22.28
792.324	22.21
792.501	22.52
792.678	22.26
792.855	21.03
793.032	21.59
793.209	21.88
793.387	22.37
793.564	22.79
793.741	23
793.918	23.45
794.095	23.53
794.272	23.8
794.449	23.08
794.626	23.65
794.803	23.8
794.98	23.72
795.157	23.57
795.334	22.83
795.511	22.33
795.688	22.04
795.864	21.45
796.041	21.51
796.218	21.88
796.395	21.86
796.572	21.27
796.749	21.37
796.925	21.63
797.102	21.47
797.279	21.92
797.456	22
797.632	22.05
797.809	22.44
797.986	22.8
798.162	22.56
798.339	22.55
798.516	22.71
798.692	23.08
798.869	22.39
799.046	22.1
799.222	22.18
799.399	22.22
799.575	22.45
799.752	22.49
799.928	22.72
800.105	22.47
800.281	22.28
800.458	21.99
800.634	21.68
800.811	22.37
800.987	22.95
801.163	22.47
801.34	22.74
801.516	22.49
801.692	22.52
801.869	22.11
802.045	22.38
802.221	22.67
802.398	22.88
802.574	22.97
802.75	23.03
802.926	22.85
803.103	23.09
803.279	23
803.455	23.55
803.631	23.23
803.807	23.91
803.983	24.38
804.16	24.27
804.336	23.97
804.512	24.04
804.688	23.68
804.864	24.31
805.04	24.61
805.216	24.75
805.392	24.51
805.568	24.94
805.744	24.41
805.92	24.37
806.096	24.77
806.272	25.49
806.448	25.45
806.623	25.57
806.799	24.73
806.975	24.47
807.151	24.82
807.327	23.67
807.503	23.89
807.678	24.46
807.854	24.44
808.03	24.22
808.206	23.56
808.381	23.38
808.557	23.79
808.733	24.56
808.908	24.37
809.084	24.67
809.26	25.7
809.435	25.71
809.611	25.25
809.787	24.31
809.962	24.65
810.138	24.9
810.313	25.43
810.489	24.72
810.664	24.39
810.84	24.27
811.015	24.04
811.191	24.29
811.366	24.12
811.542	24.42
811.717	25.07
811.892	25.78
812.068	25.98
812.243	25.71
812.419	26.5
812.594	26.59
812.769	27.08
812.944	27.23
813.12	26.72
813.295	26.68
813.47	26.85
813.645	27.09
813.821	25.73
813.996	26.34
814.171	26.5
814.346	25.75
814.521	25.74
814.697	25.74
814.872	25.14
815.047	25.75
815.222	26.05
815.397	24.6
815.572	24.24
815.747	24.81
815.922	23.69
816.097	23.74
816.272	24.68
816.447	24.11
816.622	24.45
816.797	24.87
816.972	23.98
817.147	23.65
817.322	24.32
817.496	24.05
817.671	24.12
817.846	24.89
818.021	24.56
818.196	23.89
818.371	24.37
818.545	23.35
818.72	22.99
818.895	23.26
819.069	22.73
819.244	23.08
819.419	22.81
819.594	22.52
819.768	22.07
819.943	21.86
820.117	21.58
820.292	21.19
820.467	21.35
820.641	21.14
820.816	21.3
820.99	21.23
821.165	21.01
821.339	21.06
821.514	21.16
821.688	21.12
821.863	20.95
822.037	20.82
822.212	20.85
822.386	20.87
822.56	20.82
822.735	20.7
822.909	20.92
823.084	20.94
823.258	20.98
823.432	20.7
823.606	20.66
823.781	20.87
823.955	21.15
824.129	21.24
824.303	21.31
824.478	21.47
824.652	21.37
824.826	20.94
825	21.05
825.174	20.94
825.348	21.27
825.523	21.06
825.697	21.12
825.871	21.24
826.045	21.36
826.219	21.32
826.393	21.46
826.567	21.39
826.741	21.72
826.915	21.57
827.089	21.67
827.263	21.8
827.437	22.2
827.611	22.1
827.784	22.05
827.958	22.08
828.132	22.21
828.306	22.3
828.48	22.65
828.654	22.44
828.827	22.72
829.001	22.66
829.175	22.44
829.349	22.48
829.522	23.08
829.696	23.26
829.87	23.49
830.044	23.94
830.217	24.39
830.391	24.42
830.565	24.14
830.738	24.7
830.912	24.33
831.085	24.33
831.259	24.96
831.432	24.69
831.606	24.84
831.779	24.39
831.953	23.63
832.126	23.26
832.3	23.25
832.473	23.5
832.647	22.92
832.82	23.31
832.994	23.17
833.167	22.79
833.34	22.37
833.514	22.26
833.687	22.38
833.86	22.66
834.034	22.66
834.207	22.5
834.38	22.62
834.553	22.86
834.727	23.06
834.9	23.09
835.073	23.04
835.246	23.79
835.419	23.95
835.593	23.97
835.766	24.35
835.939	24.5
836.112	24.83
836.285	25.12
836.458	25.92
836.631	25.74
836.804	25.92
836.977	25.63
837.15	24.7
837.323	24.24
837.496	23.47
837.669	21.86
837.842	22.44
838.015	23.32
838.188	23.21
838.361	21.53
838.533	21.78
838.706	22.87
838.879	23.06
839.052	23.32
839.225	23.6
839.398	24.14
839.57	25.51
839.743	25.34
839.916	24.6
840.088	25.06
840.261	25.5
840.434	25.89
840.607	25.78
840.779	26.57
840.952	26.94
841.124	27.8
841.297	29.15
841.47	29.19
841.642	29.06
841.815	29.51
841.987	29.37
842.16	29.67
842.332	30.45
842.505	30.77
842.677	29.06
842.85	28.93
843.022	28.15
843.194	27.3
843.367	28.02
843.539	28.04
843.712	28.4
843.884	28.03
844.056	29.87
844.229	28.95
844.401	30.26
844.573	32.35
844.745	33.91
844.918	33.92
845.09	33.88
845.262	32.36
845.434	32.37
845.606	32.45
845.779	33.63
845.951	31.7
846.123	31.74
846.295	29.76
846.467	31.05
846.639	31.39
846.811	30.27
846.983	30.94
847.155	33.06
847.327	33.83
847.499	33.55
847.671	32.72
847.843	32.48
848.015	32.98
848.187	32.2
848.359	29.72
848.531	29.54
848.703	29.28
848.875	29.6
849.047	28.18
849.218	27.96
849.39	28.93
849.562	28.94
849.734	29.78
849.905	30.11
850.077	29.51
850.249	29.71
850.421	26.86
850.592	26.77
850.764	25.92
850.936	25.08
851.107	24.99
851.279	24.12
851.451	23.88
851.622	25.5
851.794	25.41
851.965	26.65
852.137	28.17
852.308	30.66
852.48	33.76
852.651	34.29
852.823	36.18
852.994	35.25
853.166	36.46
853.337	38.85
853.509	36.88
853.68	35.72
853.851	35.45
854.023	34.65
854.194	33.17
854.365	32.28
854.537	30.31
854.708	27.38
854.879	30.22
855.05	31.46
855.222	30.93
855.393	30.27
855.564	30.86
855.735	29.61
855.906	30.16
856.078	29.88
856.249	30.31
856.42	31.19
856.591	34.27
856.762	31.75
856.933	30.5
857.104	28.83
857.275	30.87
857.446	31.14
857.617	32.11
857.788	33.48
857.959	36.77
858.13	38.09
858.301	38.91
858.472	36.55
858.643	39.54
858.814	40.03
858.985	41.52
859.155	41.77
859.326	40.03
859.497	41.44
859.668	39.45
859.839	41.01
860.009	40.72
860.18	40.7
860.351	41.28
860.522	38.58
860.692	36.43
860.863	36.5
861.034	37.35
861.204	40.2
861.375	40.62
861.546	41.05
861.716	37.83
861.887	37.5
862.057	38.1
862.228	36.23
862.398	36.34
862.569	37.42
862.739	39.02
862.91	37.46
863.08	35.68
863.251	35.39
863.421	34.96
863.592	35.85
863.762	37.33
863.932	38.6
864.103	40.7
864.273	39.57
864.443	39.24
864.614	37.34
864.784	37.64
864.954	37.71
865.125	38.18
865.295	39.51
865.465	38.36
865.635	33.96
865.805	32.14
865.976	32.74
866.146	34.43
866.316	35.19
866.486	36.75
866.656	36.99
866.826	35.23
866.996	33.76
867.166	33.8
867.336	34.03
867.506	36.39
867.676	36.32
867.846	35.24
868.016	32.61
868.186	31.96
868.356	30.46
868.526	29.21
868.696	34.26
868.866	34.85
869.036	34.29
869.206	34.34
869.376	34.15
869.545	35.09
869.715	37.13
869.885	39.26
870.055	38.11
870.224	39.25
870.394	41.01
870.564	39.55
870.734	39.92
870.903	39.97
871.073	39.45
871.243	40.13
871.412	39.51
871.582	37.48
871.751	40.03
871.921	42.91
872.091	41.14
872.26	39.34
872.43	38.22
872.599	37.5
872.769	37.25
872.938	38.73
873.108	35.9
873.277	35.15
873.446	35.94
873.616	33.06
873.785	32.77
873.955	33.69
874.124	33.93
874.293	32.18
874.463	33.55
874.632	35.02
874.801	33.15
874.971	34.14
875.14	34.73
875.309	34.38
875.478	36.08
875.647	34.37
875.817	34.64
875.986	34.93
876.155	37.67
876.324	37.4
876.493	36.52
876.662	36
876.831	35.93
877	38.08
877.17	38.83
877.339	39.02
877.508	39.29
877.677	40.57
877.846	39.47
878.015	39.5
878.184	36.43
878.352	35.51
878.521	35.68
878.69	36.28
878.859	34.56
879.028	32.98
879.197	31.27
879.366	29.94
879.534	27.21
879.703	26.8
879.872	25.07
880.041	26.23
880.21	24.95
880.378	24.47
880.547	23.31
880.716	22.72
880.884	22.3
881.053	21.78
881.222	21.75
881.39	21.54
881.559	21.59
881.727	21.84
881.896	21.15
882.065	21.73
882.233	21.85
882.402	22.23
882.57	22.45
882.739	22.34
882.907	22.25
883.076	22.12
883.244	22.25
883.412	22.44
883.581	22.45
883.749	22.7
883.918	22.2
884.086	22.67
884.254	23.2
884.423	23.68
884.591	24.56
884.759	25.33
884.927	25.94
885.096	26.75
885.264	28.3
885.432	29.38
885.6	30.53
885.769	30.06
885.937	30.33
886.105	29.06
886.273	29.14
886.441	26.78
886.609	27.37
886.777	27.58
886.945	28.68
887.113	26.71
887.281	25.56
887.449	27.06
887.617	29.08
887.785	27.8
887.953	29.29
888.121	28.27
888.289	30.94
888.457	32.82
888.625	33.03
888.793	33.38
888.961	33.95
889.129	35.6
889.296	33.65
889.464	34.46
889.632	35.85
889.8	35.72
889.967	36.46
890.135	39.06
