Data from JASIL_2928_Reflection_2.txt Node
Date: Sat Nov 07 20:44:55 EST 2015
User: Geneva
Spectrometer: USB4E03002
Autoset integration time: false
Trigger mode: 4
Integration Time (sec): 1.000000E-1
Scans to average: 10
Electric dark correction enabled: true
Nonlinearity correction enabled: false
Boxcar width: 5
Stray light correction enabled: false
XAxis mode: Wavelengths
Stop averaging: false
Number of Pixels in Spectrum: 3648
>>>>>Begin Spectral Data<<<<<
177.575	-813.46
177.794	-217.69
178.014	-151.28
178.233	-1.28
178.452	-15.74
178.672	99
178.891	84.76
179.11	0
179.33	849.54
179.549	-909.23
179.768	483.48
179.987	48.93
180.207	16.1
180.426	36.53
180.645	36.51
180.864	41.92
181.084	53.33
181.303	38.59
181.522	28.85
181.741	28.27
181.96	31.07
182.179	28.63
182.398	11.75
182.618	14.87
182.837	6.38
183.056	-5.92
183.275	-18.11
183.494	-30.01
183.713	-17.29
183.932	-14.49
184.151	-29.39
184.37	-15.98
184.589	-20.63
184.808	-16.14
185.027	-19.96
185.246	-16.09
185.465	-11.45
185.684	-10.79
185.903	-0.03
186.122	6.06
186.341	8.81
186.56	6.78
186.779	-5.25
186.998	13.53
187.216	10.69
187.435	8.21
187.654	-4.43
187.873	-3.13
188.092	2.15
188.311	16.41
188.53	-1.37
188.748	4.12
188.967	-10.19
189.186	16.47
189.405	3.28
189.623	-1.97
189.842	20.02
190.061	17.46
190.28	-5.25
190.498	-22.92
190.717	-49.87
190.936	-51.21
191.154	-89.71
191.373	-98.18
191.592	-140.83
191.81	-152.39
192.029	-112.34
192.248	-149.72
192.466	-71.09
192.685	-45.98
192.904	-18.35
193.122	-10.58
193.341	-24.19
193.559	-6.18
193.778	7.37
193.996	20.56
194.215	29.1
194.433	18.14
194.652	9.63
194.87	-3.15
195.089	6.88
195.307	11.08
195.526	16.67
195.744	22.48
195.963	20.93
196.181	16.34
196.399	-6.67
196.618	-11.53
196.836	13.88
197.055	8.44
197.273	-0.39
197.491	-6.86
197.71	-10.77
197.928	-41.9
198.146	-13.58
198.365	4.59
198.583	-1.8
198.801	7.46
199.019	2.12
199.238	-25.81
199.456	-26.94
199.674	-22.66
199.892	-15.82
200.111	-50.85
200.329	-23.89
200.547	-37.48
200.765	-51.68
200.983	-58.63
201.202	-46.63
201.42	-19.75
201.638	9.76
201.856	4.77
202.074	8.97
202.292	4.84
202.51	9.86
202.728	-13.34
202.946	-24.32
203.165	-28.9
203.383	-31.1
203.601	-46.26
203.819	-57.98
204.037	-51.26
204.255	-29.38
204.473	-19.78
204.691	-29.23
204.909	-42.71
205.127	-12.75
205.345	-1.52
205.562	-5.26
205.78	2.91
205.998	6.53
206.216	10.62
206.434	2.95
206.652	-1.18
206.87	-3.95
207.088	2.15
207.306	11.09
207.523	3.87
207.741	-6.67
207.959	7.74
208.177	-12.39
208.395	-53.32
208.612	-118.05
208.83	-90.01
209.048	-78.4
209.266	-118.24
209.483	-144.11
209.701	-137.43
209.919	-127.63
210.136	-117.4
210.354	-81.36
210.572	-47.11
210.79	-21.84
211.007	-4.37
211.225	3.3
211.442	1.12
211.66	9.55
211.878	17.67
212.095	23.46
212.313	27.35
212.53	24.98
212.748	18.62
212.966	15.97
213.183	21.35
213.401	20.62
213.618	21.69
213.836	25.03
214.053	20.15
214.271	20
214.488	15.78
214.705	9.04
214.923	9.24
215.14	5.78
215.358	9.75
215.575	6.01
215.793	17.26
216.01	11.67
216.227	6.88
216.445	7.29
216.662	-4.04
216.879	-1.38
217.097	0.69
217.314	2.3
217.531	6.81
217.749	-4.88
217.966	-2.59
218.183	-10.09
218.4	-16.9
218.618	-18.21
218.835	-15.86
219.052	-7.63
219.269	-9.44
219.487	-9.71
219.704	-11.79
219.921	-13.34
220.138	-5.95
220.355	-4.76
220.572	-0.98
220.79	3.61
221.007	7.39
221.224	7.88
221.441	7.48
221.658	6.32
221.875	8.99
222.092	8.35
222.309	9.21
222.526	6.7
222.743	6.52
222.96	-0.8
223.177	-3.95
223.394	-4
223.611	-4.57
223.828	-6.68
224.045	-3.02
224.262	-3.1
224.479	-3.12
224.696	-3.23
224.913	-0.94
225.13	2.55
225.347	4.58
225.564	5.35
225.781	4.85
225.997	5.05
226.214	5.63
226.431	5.27
226.648	5.17
226.865	6.45
227.082	6.58
227.298	5.59
227.515	4.68
227.732	4.71
227.949	5.24
228.165	5.27
228.382	4.58
228.599	4.75
228.816	5.12
229.032	4.53
229.249	4.15
229.466	4.18
229.682	4.57
229.899	4.95
230.116	5.72
230.332	6.24
230.549	7.08
230.765	8.9
230.982	9.52
231.199	9.25
231.415	9.87
231.632	8.78
231.848	8.94
232.065	9.94
232.281	9.34
232.498	8.82
232.714	8.12
232.931	6.62
233.147	7.12
233.364	6.57
233.58	6.6
233.797	7.12
234.013	8.09
234.23	8.12
234.446	7.64
234.662	8.34
234.879	8.05
235.095	7.29
235.312	7.45
235.528	7.32
235.744	7.56
235.961	7.11
236.177	6.13
236.393	5.69
236.61	5.87
236.826	5.75
237.042	5.73
237.258	5.44
237.475	5.29
237.691	6.21
237.907	5.02
238.123	4.39
238.339	5.23
238.556	6.11
238.772	6.02
238.988	5.55
239.204	5.75
239.42	4.68
239.636	5.21
239.853	5.53
240.069	5.3
240.285	5.65
240.501	5.98
240.717	5.78
240.933	6.12
241.149	6.59
241.365	7.4
241.581	7.24
241.797	7.56
242.013	7.52
242.229	7.99
242.445	8.39
242.661	7.98
242.877	7.85
243.093	8.23
243.309	8.07
243.525	7.51
243.741	6.92
243.957	7.33
244.173	7.66
244.388	7.74
244.604	7.4
244.82	7.12
245.036	7.39
245.252	7.47
245.468	7.26
245.683	7.23
245.899	7.54
246.115	7.66
246.331	7.57
246.547	7.46
246.762	7.36
246.978	7.37
247.194	7.18
247.409	7.23
247.625	7.09
247.841	7.03
248.057	7
248.272	6.72
248.488	6.55
248.703	6.27
248.919	6.5
249.135	6.57
249.35	6.3
249.566	6.52
249.782	6.25
249.997	6.5
250.213	6.62
250.428	6.9
250.644	6.98
250.859	6.84
251.075	7.11
251.29	6.77
251.506	6.75
251.721	6.9
251.937	6.93
252.152	7.04
252.368	7.33
252.583	7.14
252.798	6.71
253.014	6.77
253.229	6.53
253.445	6.1
253.66	5.82
253.875	5.23
254.091	4.74
254.306	4.92
254.521	4.66
254.737	4.25
254.952	3.81
255.167	3.64
255.383	3.61
255.598	4.23
255.813	4.74
256.028	4.89
256.244	5.26
256.459	5.16
256.674	5.28
256.889	5.7
257.104	5.88
257.32	5.96
257.535	5.91
257.75	5.69
257.965	5.45
258.18	5.04
258.395	5.03
258.61	5
258.826	5.17
259.041	5.11
259.256	4.94
259.471	4.86
259.686	5.03
259.901	5.12
260.116	5.26
260.331	5.29
260.546	5.69
260.761	5.61
260.976	5.67
261.191	5.71
261.406	5.43
261.621	5.54
261.836	5.29
262.05	4.82
262.265	4.42
262.48	4.37
262.695	4.28
262.91	3.75
263.125	3.73
263.34	4.02
263.555	3.83
263.769	3.79
263.984	3.97
264.199	4.34
264.414	4.64
264.629	4.87
264.843	4.68
265.058	4.49
265.273	4.84
265.488	4.72
265.702	4.4
265.917	4.44
266.132	4.66
266.346	4.6
266.561	4.54
266.776	4.44
266.99	4.52
267.205	4.27
267.42	4.17
267.634	3.85
267.849	4.13
268.063	4.15
268.278	4.11
268.492	4.2
268.707	4.23
268.922	4.32
269.136	4.46
269.351	4.59
269.565	4.87
269.78	4.87
269.994	4.78
270.209	5.01
270.423	5.27
270.637	5.42
270.852	5.34
271.066	5.18
271.281	5.08
271.495	5.16
271.709	5.1
271.924	5.15
272.138	5.07
272.353	5.18
272.567	4.74
272.781	4.39
272.996	4.27
273.21	4.15
273.424	4.09
273.638	4.05
273.853	3.84
274.067	3.63
274.281	3.58
274.495	3.67
274.71	3.72
274.924	3.7
275.138	3.94
275.352	3.62
275.566	3.75
275.781	3.92
275.995	4.15
276.209	4.32
276.423	4.33
276.637	4.09
276.851	4.03
277.065	4.12
277.279	4.3
277.493	4.27
277.707	4.37
277.921	4.66
278.135	4.93
278.349	4.32
278.563	4.02
278.777	4
278.991	4.32
279.205	4.67
279.419	4.58
279.633	4.55
279.847	4.53
280.061	4.6
280.275	4.25
280.489	4.08
280.703	4.27
280.917	4.39
281.131	4.56
281.344	4.42
281.558	4.07
281.772	4.07
281.986	4.12
282.2	4.11
282.414	3.99
282.627	4.19
282.841	4.21
283.055	4.08
283.269	3.85
283.482	3.62
283.696	3.51
283.91	3.8
284.123	3.94
284.337	3.83
284.551	3.8
284.764	3.79
284.978	3.75
285.192	3.75
285.405	4.04
285.619	4.37
285.833	4.3
286.046	4.44
286.26	4.26
286.473	3.97
286.687	4.06
286.9	4.03
287.114	3.96
287.327	3.96
287.541	4
287.754	3.92
287.968	3.77
288.181	3.93
288.395	3.82
288.608	3.79
288.822	4
289.035	4.17
289.248	4.29
289.462	4.74
289.675	4.78
289.889	4.78
290.102	4.67
290.315	4.63
290.529	4.69
290.742	4.81
290.955	4.85
291.169	4.9
291.382	4.62
291.595	4.58
291.808	4.49
292.022	4.43
292.235	4.25
292.448	4.37
292.661	4.52
292.875	4.56
293.088	4.63
293.301	4.8
293.514	4.82
293.727	4.89
293.94	5.07
294.153	5
294.367	5
294.58	5.14
294.793	5.08
295.006	5.06
295.219	5.11
295.432	5.06
295.645	5.16
295.858	5.04
296.071	5.11
296.284	5.04
296.497	5.1
296.71	5.14
296.923	5.1
297.136	5.15
297.349	5.24
297.562	5.07
297.775	5.15
297.988	5.22
298.201	5.39
298.414	5.43
298.626	5.29
298.839	5.29
299.052	5.33
299.265	5.27
299.478	5.15
299.691	5.04
299.903	5.35
300.116	5.4
300.329	5.24
300.542	5.22
300.755	5.23
300.967	5.39
301.18	5.29
301.393	5.19
301.605	5.34
301.818	5.41
302.031	5.48
302.243	5.39
302.456	5.48
302.669	5.44
302.881	5.49
303.094	5.53
303.307	5.7
303.519	5.77
303.732	5.98
303.944	6.05
304.157	6.14
304.37	6.26
304.582	6.27
304.795	6.06
305.007	6.13
305.22	6.17
305.432	6.09
305.645	6.01
305.857	6.03
306.069	6.06
306.282	6.12
306.494	6.3
306.707	6.12
306.919	6.27
307.132	6.16
307.344	5.99
307.556	5.98
307.769	5.92
307.981	6
308.193	6.12
308.406	5.94
308.618	5.92
308.83	5.85
309.043	6.14
309.255	6.16
309.467	6.38
309.679	6.5
309.892	6.54
310.104	6.63
310.316	6.45
310.528	6.35
310.74	6.71
310.953	6.82
311.165	6.84
311.377	6.57
311.589	6.55
311.801	6.54
312.013	6.43
312.225	6.49
312.437	6.68
312.649	6.84
312.862	7.08
313.074	6.66
313.286	6.7
313.498	6.68
313.71	7.09
313.922	7.01
314.134	7.11
314.346	7.44
314.558	7.43
314.77	7.32
314.982	7.28
315.193	7.31
315.405	7.32
315.617	7.06
315.829	7.13
316.041	6.79
316.253	6.75
316.465	6.73
316.677	6.56
316.888	6.53
317.1	6.58
317.312	6.96
317.524	7.05
317.736	7.33
317.947	7.73
318.159	7.87
318.371	7.99
318.583	8.27
318.794	8.19
319.006	8.42
319.218	8.36
319.43	8.22
319.641	7.89
319.853	7.82
320.064	7.81
320.276	7.84
320.488	7.58
320.699	7.78
320.911	7.68
321.123	8.06
321.334	8.15
321.546	8.31
321.757	8.6
321.969	8.76
322.18	8.71
322.392	8.55
322.603	8.16
322.815	8.46
323.026	8.45
323.238	8.48
323.449	8.36
323.661	8.22
323.872	8.24
324.083	8.27
324.295	8.33
324.506	8.32
324.718	8.52
324.929	8.88
325.14	8.97
325.352	8.95
325.563	9.2
325.774	9.24
325.986	9.35
326.197	9.3
326.408	9.39
326.62	9.39
326.831	9.61
327.042	9.67
327.253	9.54
327.464	9.54
327.676	9.59
327.887	9.62
328.098	9.79
328.309	9.73
328.52	9.97
328.732	10.17
328.943	10.3
329.154	10.38
329.365	10.57
329.576	10.93
329.787	10.89
329.998	11.23
330.209	11.12
330.42	11.23
330.631	11.37
330.842	11.35
331.053	11.2
331.264	11.39
331.475	11.3
331.686	11.38
331.897	11.36
332.108	11.55
332.319	11.3
332.53	11.53
332.741	11.51
332.952	11.6
333.163	11.77
333.374	11.97
333.585	11.85
333.795	11.86
334.006	11.9
334.217	11.89
334.428	12.09
334.639	12.24
334.849	12.13
335.06	12.09
335.271	12.03
335.482	12.1
335.692	12.17
335.903	12.22
336.114	12.31
336.325	12.28
336.535	12.31
336.746	11.84
336.957	11.85
337.167	11.84
337.378	11.92
337.589	12.05
337.799	11.98
338.01	11.94
338.22	11.99
338.431	12
338.642	12
338.852	11.84
339.063	12.11
339.273	12.01
339.484	12.03
339.694	11.82
339.905	11.88
340.115	11.73
340.326	11.41
340.536	11.41
340.746	11.35
340.957	11.29
341.167	11.4
341.378	11.38
341.588	11.62
341.799	11.53
342.009	11.6
342.219	11.55
342.43	11.66
342.64	11.68
342.85	11.56
343.061	11.72
343.271	11.73
343.481	11.8
343.691	11.75
343.902	11.53
344.112	11.7
344.322	11.75
344.532	11.71
344.743	11.65
344.953	11.65
345.163	11.78
345.373	11.64
345.583	11.62
345.793	11.43
346.004	11.57
346.214	11.67
346.424	11.64
346.634	11.64
346.844	11.72
347.054	11.82
347.264	12.03
347.474	11.92
347.684	11.88
347.894	11.89
348.104	11.89
348.314	11.8
348.524	11.83
348.734	11.74
348.944	11.59
349.154	11.49
349.364	11.4
349.574	11.28
349.784	11.07
349.994	11.21
350.204	11.16
350.413	11.04
350.623	10.96
350.833	10.8
351.043	10.69
351.253	10.87
351.463	10.85
351.672	10.66
351.882	10.76
352.092	10.98
352.302	10.91
352.511	10.9
352.721	11
352.931	11.05
353.141	11
353.35	10.85
353.56	10.71
353.77	10.76
353.979	10.92
354.189	10.77
354.399	10.81
354.608	10.71
354.818	10.7
355.027	10.78
355.237	10.68
355.447	10.65
355.656	10.79
355.866	10.83
356.075	10.76
356.285	10.7
356.494	10.71
356.704	10.65
356.913	10.66
357.123	10.6
357.332	10.49
357.542	10.56
357.751	10.58
357.96	10.58
358.17	10.61
358.379	10.58
358.589	10.58
358.798	10.6
359.007	10.64
359.217	10.55
359.426	10.65
359.635	10.7
359.845	10.63
360.054	10.6
360.263	10.6
360.472	10.58
360.682	10.58
360.891	10.59
361.1	10.6
361.309	10.54
361.519	10.62
361.728	10.59
361.937	10.55
362.146	10.51
362.355	10.5
362.564	10.5
362.774	10.45
362.983	10.31
363.192	10.36
363.401	10.35
363.61	10.42
363.819	10.43
364.028	10.39
364.237	10.22
364.446	10.25
364.655	10.25
364.864	10.26
365.073	10.25
365.282	10.43
365.491	10.33
365.7	10.27
365.909	10.11
366.118	10.11
366.327	10.07
366.536	10.18
366.745	10.16
366.954	10.1
367.162	10.04
367.371	9.97
367.58	9.79
367.789	9.68
367.998	9.75
368.207	9.84
368.415	9.8
368.624	9.66
368.833	9.8
369.042	9.77
369.25	9.85
369.459	9.91
369.668	9.9
369.877	9.99
370.085	10.09
370.294	9.95
370.503	9.91
370.711	9.82
370.92	9.93
371.129	9.79
371.337	9.81
371.546	9.77
371.754	9.73
371.963	9.87
372.171	9.88
372.38	9.78
372.589	9.86
372.797	9.89
373.006	9.91
373.214	9.92
373.423	9.97
373.631	9.96
373.84	10.02
374.048	9.99
374.256	9.78
374.465	9.71
374.673	9.72
374.882	9.54
375.09	9.47
375.298	9.45
375.507	9.48
375.715	9.47
375.923	9.4
376.132	9.32
376.34	9.25
376.548	9.36
376.757	9.43
376.965	9.59
377.173	9.78
377.381	9.78
377.59	9.77
377.798	9.7
378.006	9.75
378.214	9.86
378.423	9.93
378.631	10.01
378.839	9.97
379.047	9.98
379.255	9.85
379.463	9.76
379.671	9.66
379.879	9.59
380.088	9.65
380.296	9.58
380.504	9.58
380.712	9.6
380.92	9.63
381.128	9.63
381.336	9.64
381.544	9.54
381.752	9.54
381.96	9.59
382.168	9.7
382.376	9.64
382.584	9.66
382.791	9.61
382.999	9.45
383.207	9.48
383.415	9.44
383.623	9.38
383.831	9.41
384.039	9.38
384.247	9.35
384.454	9.36
384.662	9.46
384.87	9.46
385.078	9.42
385.285	9.55
385.493	9.48
385.701	9.53
385.909	9.55
386.116	9.55
386.324	9.55
386.532	9.54
386.739	9.48
386.947	9.37
387.155	9.3
387.362	9.3
387.57	9.21
387.778	9.23
387.985	9.21
388.193	9.11
388.4	9.21
388.608	9.16
388.816	9.13
389.023	9.03
389.231	8.93
389.438	8.98
389.646	8.94
389.853	8.89
390.061	8.78
390.268	8.81
390.475	8.8
390.683	8.74
390.89	8.79
391.098	8.79
391.305	8.78
391.512	8.66
391.72	8.68
391.927	8.59
392.135	8.6
392.342	8.6
392.549	8.43
392.756	8.33
392.964	8.3
393.171	8.21
393.378	8.19
393.586	8.23
393.793	8.39
394	8.24
394.207	8.33
394.414	8.35
394.622	8.38
394.829	8.38
395.036	8.42
395.243	8.4
395.45	8.45
395.657	8.42
395.864	8.38
396.072	8.41
396.279	8.54
396.486	8.44
396.693	8.45
396.9	8.42
397.107	8.41
397.314	8.39
397.521	8.33
397.728	8.28
397.935	8.26
398.142	8.22
398.349	8.1
398.556	8.05
398.763	8.15
398.97	8.11
399.177	8.09
399.383	8.14
399.59	8.12
399.797	8.13
400.004	8.08
400.211	8.04
400.418	8.03
400.625	8.06
400.831	8
401.038	7.93
401.245	7.8
401.452	7.77
401.658	7.77
401.865	7.9
402.072	7.92
402.279	7.99
402.485	8.02
402.692	8.03
402.899	8.07
403.105	8.15
403.312	8.11
403.519	8.11
403.725	8.19
403.932	8.19
404.138	8.03
404.345	7.96
404.552	7.9
404.758	7.89
404.965	7.87
405.171	7.81
405.378	7.66
405.584	7.65
405.791	7.65
405.997	7.53
406.204	7.47
406.41	7.51
406.617	7.53
406.823	7.58
407.029	7.56
407.236	7.52
407.442	7.56
407.649	7.78
407.855	7.85
408.061	7.89
408.268	7.91
408.474	7.78
408.68	7.8
408.887	7.78
409.093	7.77
409.299	7.83
409.505	7.85
409.712	7.75
409.918	7.57
410.124	7.51
410.33	7.44
410.537	7.47
410.743	7.53
410.949	7.56
411.155	7.59
411.361	7.56
411.567	7.42
411.773	7.37
411.98	7.38
412.186	7.37
412.392	7.4
412.598	7.42
412.804	7.39
413.01	7.38
413.216	7.33
413.422	7.39
413.628	7.37
413.834	7.44
414.04	7.47
414.246	7.54
414.452	7.48
414.658	7.45
414.864	7.48
415.07	7.48
415.275	7.47
415.481	7.4
415.687	7.26
415.893	7.2
416.099	7.13
416.305	7.17
416.511	7.14
416.716	7.17
416.922	7.13
417.128	7.11
417.334	7.1
417.539	7.06
417.745	7.09
417.951	7.14
418.157	7.19
418.362	7.22
418.568	7.19
418.774	7.15
418.979	7.11
419.185	7.09
419.391	7.05
419.596	7
419.802	7.03
420.008	7.01
420.213	6.98
420.419	6.92
420.624	6.89
420.83	6.89
421.035	6.9
421.241	6.92
421.446	6.99
421.652	7.01
421.857	7
422.063	6.99
422.268	7
422.474	7
422.679	7.05
422.885	7.04
423.09	7.04
423.295	7.01
423.501	7.01
423.706	6.92
423.911	6.9
424.117	6.87
424.322	6.86
424.527	6.89
424.733	6.85
424.938	6.82
425.143	6.81
425.349	6.75
425.554	6.77
425.759	6.73
425.964	6.77
426.169	6.79
426.375	6.83
426.58	6.83
426.785	6.74
426.99	6.79
427.195	6.76
427.4	6.8
427.605	6.82
427.811	6.81
428.016	6.84
428.221	6.84
428.426	6.78
428.631	6.77
428.836	6.72
429.041	6.71
429.246	6.74
429.451	6.77
429.656	6.74
429.861	6.74
430.066	6.74
430.271	6.73
430.476	6.7
430.681	6.66
430.886	6.7
431.09	6.76
431.295	6.75
431.5	6.65
431.705	6.64
431.91	6.63
432.115	6.64
432.32	6.62
432.524	6.57
432.729	6.55
432.934	6.61
433.139	6.58
433.343	6.62
433.548	6.66
433.753	6.66
433.958	6.63
434.162	6.62
434.367	6.65
434.572	6.59
434.776	6.63
434.981	6.61
435.186	6.55
435.39	6.53
435.595	6.5
435.799	6.47
436.004	6.48
436.209	6.5
436.413	6.47
436.618	6.43
436.822	6.45
437.027	6.42
437.231	6.44
437.436	6.48
437.64	6.51
437.845	6.49
438.049	6.5
438.253	6.49
438.458	6.48
438.662	6.5
438.867	6.49
439.071	6.49
439.275	6.52
439.48	6.51
439.684	6.5
439.888	6.45
440.093	6.42
440.297	6.41
440.501	6.43
440.706	6.44
440.91	6.5
441.114	6.51
441.318	6.54
441.523	6.54
441.727	6.56
441.931	6.61
442.135	6.6
442.339	6.6
442.543	6.64
442.748	6.6
442.952	6.56
443.156	6.49
443.36	6.47
443.564	6.45
443.768	6.46
443.972	6.43
444.176	6.32
444.38	6.35
444.584	6.35
444.788	6.3
444.992	6.32
445.196	6.31
445.4	6.35
445.604	6.35
445.808	6.34
446.012	6.3
446.216	6.28
446.42	6.28
446.624	6.29
446.828	6.26
447.032	6.26
447.235	6.26
447.439	6.27
447.643	6.24
447.847	6.26
448.051	6.2
448.254	6.22
448.458	6.24
448.662	6.3
448.866	6.28
449.069	6.34
449.273	6.36
449.477	6.36
449.681	6.38
449.884	6.42
450.088	6.37
450.292	6.45
450.495	6.47
450.699	6.49
450.902	6.49
451.106	6.45
451.31	6.42
451.513	6.43
451.717	6.41
451.92	6.38
452.124	6.3
452.327	6.32
452.531	6.26
452.734	6.22
452.938	6.18
453.141	6.16
453.345	6.17
453.548	6.16
453.752	6.12
453.955	6.09
454.158	6.08
454.362	6.1
454.565	6.02
454.769	6.01
454.972	6
455.175	5.95
455.379	5.93
455.582	5.92
455.785	5.92
455.988	5.97
456.192	5.94
456.395	5.92
456.598	5.94
456.801	6.01
457.005	6.03
457.208	6.03
457.411	6.08
457.614	6.11
457.817	6.13
458.021	6.09
458.224	6.08
458.427	6.12
458.63	6.14
458.833	6.12
459.036	6.11
459.239	6.11
459.442	6.11
459.645	6.08
459.848	6.07
460.051	6.06
460.254	6.07
460.457	6.07
460.66	6.03
460.863	6.01
461.066	6.03
461.269	6.05
461.472	6.03
461.675	6.06
461.878	6.1
462.081	6.07
462.284	6.08
462.486	6.09
462.689	6.08
462.892	6.17
463.095	6.19
463.298	6.19
463.5	6.15
463.703	6.14
463.906	6.1
464.109	6.12
464.311	6.13
464.514	6.15
464.717	6.08
464.92	6.06
465.122	6.03
465.325	6.08
465.528	6.1
465.73	6.12
465.933	6.15
466.135	6.16
466.338	6.14
466.541	6.14
466.743	6.13
466.946	6.19
467.148	6.21
467.351	6.21
467.553	6.18
467.756	6.15
467.958	6.21
468.161	6.19
468.363	6.17
468.566	6.14
468.768	6.09
468.971	6.09
469.173	6.13
469.375	6.11
469.578	6.15
469.78	6.1
469.983	6.1
470.185	6.04
470.387	6.07
470.59	6.06
470.792	6.08
470.994	6.16
471.196	6.17
471.399	6.11
471.601	6.14
471.803	6.09
472.005	6.15
472.208	6.14
472.41	6.14
472.612	6.13
472.814	6.18
473.016	6.17
473.218	6.14
473.421	6.12
473.623	6.1
473.825	6.09
474.027	6.1
474.229	6.06
474.431	6.08
474.633	6.06
474.835	6.1
475.037	6.03
475.239	6.08
475.441	6.14
475.643	6.13
475.845	6.17
476.047	6.19
476.249	6.17
476.451	6.19
476.653	6.22
476.855	6.18
477.057	6.14
477.258	6.18
477.46	6.15
477.662	6.13
477.864	6.15
478.066	6.12
478.268	6.11
478.469	6.12
478.671	6.1
478.873	6.03
479.075	6.08
479.276	6.09
479.478	6.11
479.68	6.09
479.882	6.09
480.083	6.1
480.285	6.14
480.487	6.11
480.688	6.13
480.89	6.13
481.091	6.12
481.293	6.12
481.495	6.12
481.696	6.1
481.898	6.12
482.099	6.13
482.301	6.13
482.502	6.12
482.704	6.12
482.905	6.1
483.107	6.09
483.308	6.07
483.51	6.06
483.711	6.05
483.913	6.04
484.114	6.02
484.315	6.01
484.517	6
484.718	5.98
484.92	5.97
485.121	5.98
485.322	6
485.524	6.03
485.725	6.05
485.926	6.07
486.127	6.08
486.329	6.09
486.53	6.07
486.731	6.07
486.932	6.08
487.134	6.07
487.335	6.06
487.536	6.04
487.737	6.04
487.938	6.02
488.139	5.99
488.341	5.99
488.542	5.99
488.743	5.99
488.944	5.99
489.145	5.99
489.346	6
489.547	6.02
489.748	6.03
489.949	6.03
490.15	6.04
490.351	6.05
490.552	6.05
490.753	6.05
490.954	6.05
491.155	6.04
491.356	6.05
491.557	6.06
491.758	6.06
491.959	6.08
492.159	6.06
492.36	6.07
492.561	6.09
492.762	6.1
492.963	6.11
493.164	6.14
493.364	6.18
493.565	6.21
493.766	6.23
493.967	6.24
494.167	6.24
494.368	6.3
494.569	6.29
494.769	6.27
494.97	6.26
495.171	6.25
495.371	6.24
495.572	6.26
495.773	6.26
495.973	6.26
496.174	6.25
496.375	6.28
496.575	6.27
496.776	6.31
496.976	6.34
497.177	6.37
497.377	6.4
497.578	6.42
497.778	6.4
497.979	6.39
498.179	6.41
498.38	6.4
498.58	6.41
498.78	6.43
498.981	6.43
499.181	6.44
499.382	6.41
499.582	6.44
499.782	6.5
499.983	6.53
500.183	6.56
500.383	6.57
500.584	6.59
500.784	6.61
500.984	6.65
501.184	6.67
501.385	6.69
501.585	6.75
501.785	6.74
501.985	6.69
502.185	6.69
502.386	6.69
502.586	6.71
502.786	6.76
502.986	6.78
503.186	6.78
503.386	6.78
503.586	6.8
503.786	6.78
503.987	6.8
504.187	6.81
504.387	6.87
504.587	6.92
504.787	6.95
504.987	6.96
505.187	6.93
505.387	6.93
505.587	6.96
505.786	7.02
505.986	7.01
506.186	6.98
506.386	7.05
506.586	7.07
506.786	7.11
506.986	7.12
507.186	7.1
507.386	7.15
507.585	7.2
507.785	7.2
507.985	7.21
508.185	7.27
508.384	7.31
508.584	7.3
508.784	7.28
508.984	7.26
509.183	7.33
509.383	7.41
509.583	7.45
509.782	7.47
509.982	7.49
510.182	7.53
510.381	7.57
510.581	7.63
510.781	7.69
510.98	7.74
511.18	7.76
511.379	7.73
511.579	7.73
511.778	7.74
511.978	7.74
512.177	7.77
512.377	7.77
512.576	7.79
512.776	7.81
512.975	7.8
513.175	7.83
513.374	7.91
513.573	7.93
513.773	7.94
513.972	7.95
514.172	7.99
514.371	8
514.57	8.03
514.77	8.06
514.969	8.05
515.168	8.07
515.367	8.13
515.567	8.12
515.766	8.13
515.965	8.16
516.164	8.22
516.364	8.24
516.563	8.3
516.762	8.31
516.961	8.32
517.16	8.36
517.359	8.42
517.559	8.42
517.758	8.43
517.957	8.45
518.156	8.48
518.355	8.48
518.554	8.48
518.753	8.48
518.952	8.49
519.151	8.5
519.35	8.52
519.549	8.54
519.748	8.55
519.947	8.56
520.146	8.58
520.345	8.61
520.544	8.63
520.743	8.68
520.942	8.68
521.141	8.71
521.339	8.74
521.538	8.75
521.737	8.77
521.936	8.79
522.135	8.82
522.333	8.83
522.532	8.82
522.731	8.85
522.93	8.86
523.129	8.87
523.327	8.89
523.526	8.91
523.725	8.95
523.923	8.92
524.122	8.94
524.321	8.96
524.519	8.97
524.718	8.98
524.917	8.98
525.115	8.99
525.314	9.03
525.512	9.06
525.711	9.11
525.909	9.09
526.108	9.11
526.306	9.13
526.505	9.12
526.703	9.14
526.902	9.17
527.1	9.17
527.299	9.19
527.497	9.22
527.696	9.23
527.894	9.23
528.092	9.22
528.291	9.22
528.489	9.24
528.688	9.26
528.886	9.29
529.084	9.29
529.283	9.31
529.481	9.33
529.679	9.33
529.877	9.34
530.076	9.33
530.274	9.4
530.472	9.45
530.67	9.48
530.869	9.5
531.067	9.51
531.265	9.55
531.463	9.57
531.661	9.55
531.859	9.55
532.057	9.58
532.255	9.6
532.454	9.6
532.652	9.6
532.85	9.59
533.048	9.61
533.246	9.63
533.444	9.63
533.642	9.65
533.84	9.67
534.038	9.71
534.236	9.75
534.434	9.79
534.632	9.81
534.83	9.83
535.027	9.85
535.225	9.88
535.423	9.9
535.621	9.93
535.819	9.95
536.017	9.97
536.215	9.96
536.412	9.93
536.61	9.94
536.808	9.95
537.006	9.97
537.203	9.99
537.401	10.02
537.599	10.03
537.797	10.04
537.994	10.06
538.192	10.09
538.39	10.12
538.587	10.13
538.785	10.11
538.983	10.14
539.18	10.16
539.378	10.21
539.575	10.22
539.773	10.25
539.97	10.24
540.168	10.21
540.366	10.22
540.563	10.23
540.761	10.24
540.958	10.28
541.155	10.28
541.353	10.3
541.55	10.29
541.748	10.29
541.945	10.28
542.143	10.3
542.34	10.34
542.537	10.37
542.735	10.39
542.932	10.43
543.129	10.45
543.327	10.49
543.524	10.49
543.721	10.53
543.919	10.55
544.116	10.58
544.313	10.62
544.51	10.66
544.708	10.65
544.905	10.68
545.102	10.67
545.299	10.7
545.496	10.71
545.693	10.69
545.891	10.67
546.088	10.7
546.285	10.67
546.482	10.65
546.679	10.68
546.876	10.7
547.073	10.71
547.27	10.78
547.467	10.76
547.664	10.74
547.861	10.82
548.058	10.84
548.255	10.86
548.452	10.92
548.649	10.96
548.846	10.96
549.043	10.95
549.24	10.97
549.437	10.92
549.633	10.94
549.83	11
550.027	10.99
550.224	11.06
550.421	11.03
550.618	11.04
550.814	11.08
551.011	11.05
551.208	11.13
551.405	11.14
551.601	11.18
551.798	11.21
551.995	11.17
552.191	11.21
552.388	11.13
552.585	11.2
552.781	11.24
552.978	11.23
553.175	11.25
553.371	11.23
553.568	11.26
553.764	11.23
553.961	11.24
554.157	11.28
554.354	11.23
554.55	11.33
554.747	11.34
554.943	11.33
555.14	11.36
555.336	11.37
555.533	11.38
555.729	11.44
555.926	11.5
556.122	11.5
556.318	11.53
556.515	11.56
556.711	11.56
556.907	11.55
557.104	11.58
557.3	11.59
557.496	11.63
557.693	11.6
557.889	11.57
558.085	11.61
558.281	11.62
558.478	11.59
558.674	11.65
558.87	11.62
559.066	11.59
559.262	11.6
559.459	11.63
559.655	11.63
559.851	11.69
560.047	11.68
560.243	11.69
560.439	11.74
560.635	11.8
560.831	11.75
561.027	11.81
561.223	11.86
561.419	11.91
561.615	11.86
561.811	11.88
562.007	11.92
562.203	11.95
562.399	11.93
562.595	11.94
562.791	11.9
562.987	11.97
563.183	11.94
563.379	11.99
563.575	11.96
563.771	12.04
563.966	12.06
564.162	12.05
564.358	12.07
564.554	12.06
564.75	12.13
564.945	12.17
565.141	12.16
565.337	12.16
565.533	12.15
565.728	12.23
565.924	12.21
566.12	12.25
566.315	12.31
566.511	12.34
566.707	12.39
566.902	12.35
567.098	12.37
567.293	12.33
567.489	12.34
567.684	12.38
567.88	12.29
568.076	12.29
568.271	12.24
568.467	12.18
568.662	12.19
568.858	12.2
569.053	12.21
569.248	12.25
569.444	12.3
569.639	12.34
569.835	12.32
570.03	12.39
570.225	12.42
570.421	12.48
570.616	12.53
570.812	12.53
571.007	12.51
571.202	12.5
571.397	12.48
571.593	12.48
571.788	12.5
571.983	12.51
572.178	12.51
572.374	12.52
572.569	12.51
572.764	12.47
572.959	12.46
573.154	12.49
573.35	12.55
573.545	12.54
573.74	12.58
573.935	12.58
574.13	12.63
574.325	12.61
574.52	12.57
574.715	12.55
574.91	12.63
575.105	12.65
575.3	12.68
575.495	12.67
575.69	12.73
575.885	12.7
576.08	12.7
576.275	12.66
576.47	12.67
576.665	12.75
576.86	12.83
577.055	12.83
577.25	12.82
577.444	12.83
577.639	12.81
577.834	12.79
578.029	12.83
578.224	12.82
578.418	12.86
578.613	12.84
578.808	12.79
579.003	12.79
579.197	12.83
579.392	12.82
579.587	12.82
579.781	12.84
579.976	12.83
580.171	12.86
580.365	12.89
580.56	12.89
580.755	12.97
580.949	12.99
581.144	12.94
581.338	12.92
581.533	12.91
581.727	12.91
581.922	12.88
582.116	12.91
582.311	12.87
582.505	12.88
582.7	12.87
582.894	12.93
583.089	12.95
583.283	12.91
583.478	12.88
583.672	13
583.866	12.98
584.061	13.02
584.255	13.01
584.449	13.04
584.644	13.07
584.838	13.14
585.032	13.08
585.226	13.07
585.421	13.09
585.615	13.11
585.809	13.08
586.003	13.08
586.198	13.07
586.392	13.09
586.586	13.1
586.78	13.12
586.974	13.14
587.168	13.16
587.363	13.18
587.557	13.25
587.751	13.28
587.945	13.28
588.139	13.28
588.333	13.31
588.527	13.36
588.721	13.39
588.915	13.34
589.109	13.26
589.303	13.26
589.497	13.33
589.691	13.32
589.885	13.36
590.079	13.37
590.273	13.4
590.466	13.4
590.66	13.36
590.854	13.37
591.048	13.38
591.242	13.41
591.436	13.4
591.629	13.38
591.823	13.42
592.017	13.41
592.211	13.39
592.404	13.34
592.598	13.36
592.792	13.42
592.986	13.42
593.179	13.46
593.373	13.43
593.567	13.43
593.76	13.46
593.954	13.44
594.147	13.44
594.341	13.46
594.535	13.54
594.728	13.55
594.922	13.53
595.115	13.54
595.309	13.56
595.502	13.59
595.696	13.58
595.889	13.56
596.083	13.58
596.276	13.52
596.47	13.5
596.663	13.48
596.856	13.47
597.05	13.48
597.243	13.44
597.437	13.46
597.63	13.51
597.823	13.54
598.017	13.55
598.21	13.48
598.403	13.59
598.596	13.65
598.79	13.67
598.983	13.68
599.176	13.69
599.369	13.72
599.563	13.66
599.756	13.63
599.949	13.61
600.142	13.57
600.335	13.6
600.528	13.55
600.722	13.57
600.915	13.59
601.108	13.63
601.301	13.62
601.494	13.6
601.687	13.61
601.88	13.63
602.073	13.66
602.266	13.7
602.459	13.73
602.652	13.8
602.845	13.79
603.038	13.81
603.231	13.73
603.424	13.76
603.617	13.75
603.809	13.77
604.002	13.81
604.195	13.81
604.388	13.83
604.581	13.77
604.774	13.73
604.966	13.73
605.159	13.72
605.352	13.81
605.545	13.79
605.737	13.83
605.93	13.84
606.123	13.76
606.316	13.77
606.508	13.77
606.701	13.94
606.894	13.93
607.086	13.95
607.279	13.92
607.471	13.92
607.664	13.92
607.857	13.97
608.049	14.06
608.242	14.11
608.434	14.11
608.627	14.14
608.819	14.11
609.012	14.13
609.204	14.1
609.397	14.18
609.589	14.2
609.782	14.21
609.974	14.24
610.166	14.2
610.359	14.26
610.551	14.25
610.743	14.27
610.936	14.25
611.128	14.31
611.32	14.36
611.513	14.34
611.705	14.37
611.897	14.38
612.09	14.32
612.282	14.28
612.474	14.16
612.666	14.25
612.858	14.23
613.051	14.29
613.243	14.22
613.435	14.25
613.627	14.32
613.819	14.19
614.011	14.14
614.203	14.12
614.395	14.13
614.588	14.13
614.78	14.05
614.972	13.99
615.164	13.86
615.356	13.85
615.548	13.81
615.74	13.7
615.932	13.81
616.124	13.85
616.315	13.86
616.507	13.83
616.699	13.9
616.891	13.98
617.083	14.04
617.275	14.2
617.467	14.12
617.659	14.1
617.85	14.18
618.042	14.13
618.234	14.14
618.426	14.14
618.618	14.23
618.809	14.18
619.001	14.14
619.193	14.13
619.384	14.02
619.576	14.06
619.768	14.17
619.959	14.1
620.151	14.13
620.343	14.14
620.534	14.12
620.726	14.03
620.917	14.09
621.109	14.07
621.301	14.09
621.492	14.05
621.684	14.03
621.875	13.91
622.067	13.89
622.258	13.89
622.45	13.92
622.641	14
622.832	14.06
623.024	14.07
623.215	14.06
623.407	14.09
623.598	14.18
623.789	14.21
623.981	14.2
624.172	14.34
624.363	14.29
624.555	14.24
624.746	14.23
624.937	14.22
625.129	14.16
625.32	14.14
625.511	14.13
625.702	14.14
625.893	14.22
626.085	14.28
626.276	14.22
626.467	14.2
626.658	14.29
626.849	14.31
627.04	14.31
627.231	14.34
627.422	14.44
627.614	14.48
627.805	14.49
627.996	14.45
628.187	14.4
628.378	14.4
628.569	14.44
628.76	14.36
628.951	14.33
629.142	14.41
629.332	14.4
629.523	14.34
629.714	14.33
629.905	14.33
630.096	14.31
630.287	14.36
630.478	14.41
630.669	14.46
630.859	14.47
631.05	14.52
631.241	14.48
631.432	14.49
631.623	14.52
631.813	14.49
632.004	14.47
632.195	14.51
632.385	14.4
632.576	14.43
632.767	14.45
632.957	14.45
633.148	14.42
633.339	14.38
633.529	14.42
633.72	14.42
633.91	14.34
634.101	14.41
634.292	14.37
634.482	14.39
634.673	14.3
634.863	14.26
635.054	14.22
635.244	14.18
635.435	14.22
635.625	14.21
635.815	14.25
636.006	14.25
636.196	14.21
636.387	14.25
636.577	14.33
636.767	14.29
636.958	14.28
637.148	14.38
637.338	14.38
637.529	14.44
637.719	14.5
637.909	14.48
638.099	14.54
638.29	14.5
638.48	14.62
638.67	14.6
638.86	14.65
639.05	14.66
639.241	14.66
639.431	14.65
639.621	14.65
639.811	14.63
640.001	14.52
640.191	14.55
640.381	14.55
640.571	14.47
640.761	14.51
640.951	14.55
641.141	14.54
641.331	14.55
641.521	14.6
641.711	14.52
641.901	14.48
642.091	14.59
642.281	14.54
642.471	14.48
642.661	14.47
642.851	14.42
643.041	14.38
643.231	14.41
643.42	14.33
643.61	14.29
643.8	14.3
643.99	14.36
644.18	14.36
644.369	14.41
644.559	14.5
644.749	14.39
644.939	14.42
645.128	14.36
645.318	14.36
645.508	14.43
645.697	14.52
645.887	14.6
646.076	14.57
646.266	14.6
646.456	14.6
646.645	14.53
646.835	14.58
647.024	14.63
647.214	14.81
647.403	14.83
647.593	14.9
647.782	14.92
647.972	14.89
648.161	14.8
648.351	14.78
648.54	14.83
648.73	14.88
648.919	15.01
649.108	14.99
649.298	14.9
649.487	14.94
649.677	14.8
649.866	14.75
650.055	14.81
650.244	14.87
650.434	14.79
650.623	14.77
650.812	14.77
651.002	14.6
651.191	14.62
651.38	14.59
651.569	14.57
651.758	14.63
651.947	14.65
652.137	14.57
652.326	14.54
652.515	14.54
652.704	14.54
652.893	14.6
653.082	14.7
653.271	14.74
653.46	14.77
653.649	14.78
653.838	14.72
654.027	14.63
654.216	14.63
654.405	14.65
654.594	14.72
654.783	14.64
654.972	14.57
655.161	14.5
655.35	14.42
655.539	14.38
655.728	14.36
655.916	14.36
656.105	14.52
656.294	14.56
656.483	14.49
656.672	14.54
656.86	14.57
657.049	14.65
657.238	14.71
657.427	14.7
657.615	14.84
657.804	14.79
657.993	14.87
658.181	14.77
658.37	14.76
658.559	14.82
658.747	14.76
658.936	14.75
659.125	14.68
659.313	14.67
659.502	14.63
659.69	14.55
659.879	14.53
660.067	14.51
660.256	14.56
660.444	14.57
660.633	14.61
660.821	14.65
661.01	14.69
661.198	14.81
661.387	14.85
661.575	14.97
661.763	15.05
661.952	15.1
662.14	15.13
662.328	15.14
662.517	15.09
662.705	15
662.893	15.01
663.082	14.98
663.27	14.98
663.458	14.9
663.646	14.82
663.834	14.76
664.023	14.84
664.211	14.88
664.399	14.74
664.587	14.82
664.775	14.78
664.963	14.81
665.152	14.85
665.34	14.81
665.528	14.8
665.716	14.84
665.904	14.88
666.092	14.74
666.28	14.78
666.468	14.87
666.656	14.79
666.844	14.76
667.032	14.71
667.22	14.75
667.408	14.72
667.596	14.79
667.784	14.83
667.971	14.88
668.159	14.98
668.347	14.84
668.535	14.8
668.723	14.76
668.911	14.92
669.098	14.89
669.286	14.83
669.474	14.9
669.662	14.83
669.849	14.84
670.037	14.65
670.225	14.6
670.413	14.7
670.6	14.84
670.788	14.89
670.976	14.86
671.163	14.89
671.351	14.82
671.538	14.83
671.726	14.91
671.913	14.95
672.101	14.93
672.289	15.01
672.476	15.07
672.664	15
672.851	14.91
673.039	14.89
673.226	14.83
673.413	14.96
673.601	14.9
673.788	14.9
673.976	14.81
674.163	14.92
674.35	14.9
674.538	14.8
674.725	14.75
674.912	14.87
675.1	14.94
675.287	14.96
675.474	14.93
675.662	15.04
675.849	14.95
676.036	15.04
676.223	15.14
676.411	15.1
676.598	15.13
676.785	15.17
676.972	15.23
677.159	15.25
677.346	15.31
677.533	15.38
677.721	15.33
677.908	15.37
678.095	15.36
678.282	15.41
678.469	15.47
678.656	15.52
678.843	15.48
679.03	15.37
679.217	15.39
679.404	15.29
679.591	15.29
679.778	15.24
679.964	15.14
680.151	15.09
680.338	15.01
680.525	15.03
680.712	15.06
680.899	15.12
681.086	15.15
681.272	14.97
681.459	15.15
681.646	15.12
681.833	15.18
682.02	15.19
682.206	15.2
682.393	15.26
682.58	15.15
682.766	15.12
682.953	15.13
683.14	15.2
683.326	15.39
683.513	15.29
683.7	15.19
683.886	15.29
684.073	15.29
684.259	15.34
684.446	15.19
684.632	15.23
684.819	15.08
685.005	15.09
685.192	15.11
685.378	15.17
685.565	15.07
685.751	15.12
685.938	14.94
686.124	15.05
686.31	15.04
686.497	15.09
686.683	15.24
686.87	15.38
687.056	15.3
687.242	15.28
687.429	15.11
687.615	15.18
687.801	15.36
687.987	15.27
688.174	15.28
688.36	15.28
688.546	15.28
688.732	15.21
688.918	15.22
689.105	15.19
689.291	15.15
689.477	15.29
689.663	15.45
689.849	15.32
690.035	15.46
690.221	15.42
690.407	15.51
690.593	15.57
690.779	15.61
690.965	15.67
691.151	15.7
691.337	15.75
691.523	15.71
691.709	15.59
691.895	15.61
692.081	15.39
692.267	15.62
692.453	15.5
692.639	15.4
692.825	15.33
693.011	15.19
693.196	15.19
693.382	15.14
693.568	15.13
693.754	15.11
693.94	15.12
694.125	15.45
694.311	15.39
694.497	15.56
694.682	15.54
694.868	15.62
695.054	15.57
695.239	15.57
695.425	15.57
695.611	15.56
695.796	15.59
695.982	15.56
696.168	15.44
696.353	15.39
696.539	15.31
696.724	15.42
696.91	15.44
697.095	15.49
697.281	15.51
697.466	15.58
697.652	15.51
697.837	15.52
698.023	15.54
698.208	15.67
698.393	15.72
698.579	15.67
698.764	15.65
698.949	15.65
699.135	15.6
699.32	15.72
699.505	15.67
699.691	15.73
699.876	15.77
700.061	15.8
700.246	15.74
700.432	15.68
700.617	15.78
700.802	15.87
700.987	15.79
701.172	15.7
701.358	15.47
701.543	15.57
701.728	15.7
701.913	15.73
702.098	15.73
702.283	15.75
702.468	15.74
702.653	15.55
702.838	15.52
703.023	15.51
703.208	15.74
703.393	15.81
703.578	15.89
703.763	15.72
703.948	15.68
704.133	15.67
704.318	15.51
704.503	15.68
704.688	15.9
704.873	15.88
705.057	16.05
705.242	16.05
705.427	16.28
705.612	16.05
705.797	16.1
705.981	16.07
706.166	16.12
706.351	16.22
706.536	16.15
706.72	15.98
706.905	15.92
707.09	15.75
707.274	15.81
707.459	15.62
707.644	15.72
707.828	15.67
708.013	15.73
708.197	15.73
708.382	15.65
708.567	15.54
708.751	15.6
708.936	15.63
709.12	15.84
709.305	15.8
709.489	15.86
709.673	15.77
709.858	15.72
710.042	15.73
710.227	15.59
710.411	15.54
710.596	15.58
710.78	15.52
710.964	15.53
711.149	15.4
711.333	15.55
711.517	15.68
711.702	15.82
711.886	15.91
712.07	15.85
712.254	16.03
712.438	16.13
712.623	16.18
712.807	16.37
712.991	16.41
713.175	16.46
713.359	16.48
713.544	16.34
713.728	16.36
713.912	16.3
714.096	16.36
714.28	16.23
714.464	16.24
714.648	16.3
714.832	16.17
715.016	16.09
715.2	16.15
715.384	16.1
715.568	16.08
715.752	15.96
715.936	16.05
716.12	16.07
716.304	16.16
716.488	16.13
716.671	15.97
716.855	15.98
717.039	16.16
717.223	16.09
717.407	15.88
717.59	15.92
717.774	15.84
717.958	15.91
718.142	15.66
718.325	15.48
718.509	15.64
718.693	15.67
718.877	15.7
719.06	15.46
719.244	15.26
719.428	15.43
719.611	15.47
719.795	15.59
719.978	15.56
720.162	15.75
720.345	15.79
720.529	15.56
720.713	15.6
720.896	15.68
721.08	15.75
721.263	15.76
721.446	15.73
721.63	15.62
721.813	15.62
721.997	15.7
722.18	15.73
722.364	15.86
722.547	16.15
722.73	16.15
722.914	16.13
723.097	16.13
723.28	16.27
723.464	16.35
723.647	16.52
723.83	16.63
724.013	16.44
724.197	16.59
724.38	16.78
724.563	16.46
724.746	16.52
724.929	16.6
725.112	16.34
725.296	16.24
725.479	16.05
725.662	15.73
725.845	15.75
726.028	15.68
726.211	15.45
726.394	15.32
726.577	15.45
726.76	15.33
726.943	15.23
727.126	15.36
727.309	15.32
727.492	15.43
727.675	15.74
727.858	15.55
728.041	15.7
728.224	15.69
728.407	15.64
728.589	15.6
728.772	15.84
728.955	15.78
729.138	15.91
729.321	16.02
729.503	16.13
729.686	16.12
729.869	16.26
730.052	16.18
730.234	16.38
730.417	16.39
730.6	16.39
730.782	16.18
730.965	16.28
731.148	16.19
731.33	16.34
731.513	16.18
731.695	16.12
731.878	16.07
732.061	16.12
732.243	16.06
732.426	16.05
732.608	16.19
732.791	16.08
732.973	16.07
733.156	16.14
733.338	16.18
733.52	16.14
733.703	16.13
733.885	16.14
734.068	16.2
734.25	15.96
734.432	16.15
734.615	16.23
734.797	16.26
734.979	16.05
735.162	16.02
735.344	15.73
735.526	15.76
735.708	15.67
735.891	15.72
736.073	15.84
736.255	16.23
736.437	16.09
736.619	15.7
736.802	15.88
736.984	16.01
737.166	16.17
737.348	16.22
737.53	16.24
737.712	16.29
737.894	16.43
738.076	16.48
738.258	16.11
738.44	16.17
738.622	16.31
738.804	16.24
738.986	16.55
739.168	16.36
739.35	16.55
739.532	16.58
739.714	16.37
739.896	16.15
740.078	15.8
740.259	16.06
740.441	16.08
740.623	16.19
740.805	16.29
740.987	16.18
741.168	16.06
741.35	15.99
741.532	16.07
741.714	16.39
741.895	16.59
742.077	16.78
742.259	16.8
742.44	16.51
742.622	16.37
742.804	16.28
742.985	16.19
743.167	16.44
743.348	16.32
743.53	16.37
743.711	16.35
743.893	16.1
744.075	16.07
744.256	15.99
744.438	16.18
744.619	16.16
744.8	16.09
744.982	16.2
745.163	16.16
745.345	15.99
745.526	15.94
745.707	15.71
745.889	15.61
746.07	15.66
746.252	15.58
746.433	15.66
746.614	16.2
746.795	16.41
746.977	16.26
747.158	16.38
747.339	16.23
747.52	16.21
747.702	16.74
747.883	16.98
748.064	16.8
748.245	16.95
748.426	16.62
748.607	16.05
748.788	16.01
748.97	15.62
749.151	15.58
749.332	15.72
749.513	15.81
749.694	15.39
749.875	15.26
750.056	15.44
750.237	15.02
750.418	15.15
750.599	15.12
750.78	14.91
750.96	15.4
751.141	15.64
751.322	16.05
751.503	15.93
751.684	16.2
751.865	16.3
752.046	16.34
752.226	16.61
752.407	16.74
752.588	16.96
752.769	17.1
752.949	17.02
753.13	16.8
753.311	16.95
753.492	16.78
753.672	16.37
753.853	16.18
754.034	16.25
754.214	16.29
754.395	16
754.575	16
754.756	15.75
754.937	15.66
755.117	15.65
755.298	15.67
755.478	16.11
755.659	16.57
755.839	16.85
756.02	16.66
756.2	16.68
756.381	16.73
756.561	16.59
756.741	17.01
756.922	16.94
757.102	17.03
757.283	16.74
757.463	16.46
757.643	16.56
757.823	16.57
758.004	16.54
758.184	16.68
758.364	16.99
758.545	17.12
758.725	16.87
758.905	16.91
759.085	17.05
759.265	17.08
759.446	16.91
759.626	16.81
759.806	16.67
759.986	16.82
760.166	16.37
760.346	15.97
760.526	16.01
760.706	16.16
760.886	16.33
761.066	16.16
761.246	16.37
761.426	16.52
761.606	16.23
761.786	16.26
761.966	16.25
762.146	16.54
762.326	16.72
762.506	16.73
762.686	17.08
762.866	16.98
763.046	16.85
763.225	16.74
763.405	16.78
763.585	17.06
763.765	17.05
763.945	16.93
764.124	17.05
764.304	16.98
764.484	16.86
764.664	16.54
764.843	16.44
765.023	16.51
765.203	16.41
765.382	16.55
765.562	16.45
765.741	16.65
765.921	16.85
766.101	16.69
766.28	16.95
766.46	17.12
766.639	17.07
766.819	17.18
766.998	17.22
767.178	17.23
767.357	17.24
767.537	17.01
767.716	16.71
767.896	16.76
768.075	16.96
768.254	17.02
768.434	17.06
768.613	16.95
768.792	16.86
768.972	17.11
769.151	17.12
769.33	16.95
769.51	17.3
769.689	17.39
769.868	17.29
770.047	17.02
770.226	17.16
770.406	17.19
770.585	17.38
770.764	17.56
770.943	17.5
771.122	17.78
771.301	17.65
771.48	17.72
771.66	17.77
771.839	17.84
772.018	18.21
772.197	17.95
772.376	17.92
772.555	17.98
772.734	18.09
772.913	18.24
773.092	17.86
773.271	17.98
773.449	17.32
773.628	17.43
773.807	17.17
773.986	16.63
774.165	16.5
774.344	16.55
774.523	16.11
774.701	16.08
774.88	15.47
775.059	15.56
775.238	15.76
775.417	15.96
775.595	15.44
775.774	15.85
775.953	16.14
776.131	16.14
776.31	15.93
776.489	16.28
776.667	16.26
776.846	16.58
777.025	16.62
777.203	16.22
777.382	16.6
777.56	17.22
777.739	17.14
777.917	17.03
778.096	16.98
778.274	17.31
778.453	17.4
778.631	17.05
778.81	17.03
778.988	16.95
779.166	17.17
779.345	16.9
779.523	16.74
779.702	16.58
779.88	16.75
780.058	16.88
780.237	16.39
780.415	16.45
780.593	17.13
780.771	17.13
780.95	17.11
781.128	17.14
781.306	17.66
781.484	18
781.662	17.91
781.841	18.03
782.019	18
782.197	18.54
782.375	17.97
782.553	17.89
782.731	18.28
782.909	18.3
783.087	18.29
783.265	17.95
783.443	17.58
783.621	17.37
783.799	17.36
783.977	17.1
784.155	16.67
784.333	16.96
784.511	16.91
784.689	16.32
784.867	16.68
785.045	16.4
785.223	16.25
785.4	15.85
785.578	16.3
785.756	15.99
785.934	16.12
786.112	16.04
786.289	16.4
786.467	15.92
786.645	16.48
786.823	16.14
787	16.17
787.178	16.5
787.356	16.8
787.533	16.97
787.711	17.4
787.889	17.96
788.066	18.44
788.244	18.27
788.421	18.35
788.599	17.99
788.776	17.96
788.954	18.45
789.131	18.31
789.309	18.37
789.486	17.83
789.664	17.61
789.841	17.33
790.019	17.03
790.196	16.81
790.373	16.86
790.551	16.36
790.728	16.5
790.906	15.93
791.083	15.19
791.26	15.15
791.437	15.27
791.615	15.41
791.792	15.25
791.969	15.14
792.146	15.33
792.324	15.65
792.501	16.76
792.678	17.17
792.855	17.6
793.032	18.26
793.209	18.22
793.387	18.81
793.564	18.27
793.741	18.05
793.918	17.94
794.095	18.3
794.272	18.55
794.449	17.87
794.626	17.68
794.803	16.81
794.98	16.53
795.157	16.36
795.334	15.86
795.511	16.05
795.688	15.9
795.864	16.31
796.041	16.13
796.218	15.44
796.395	15.46
796.572	15.17
796.749	15.69
796.925	16.11
797.102	16.05
797.279	16.13
797.456	16.28
797.632	16.48
797.809	16.11
797.986	16.07
798.162	16.01
798.339	16.25
798.516	16.39
798.692	16.32
798.869	16.9
799.046	17.27
799.222	17.29
799.399	16.86
799.575	17.21
799.752	17.36
799.928	17.19
800.105	17.14
800.281	16.81
800.458	17.32
800.634	17.44
800.811	16.92
800.987	16.92
801.163	16.69
801.34	17.16
801.516	16.52
801.692	17.01
801.869	16.97
802.045	17.69
802.221	18.09
802.398	17.28
802.574	17.7
802.75	17.53
802.926	17.81
803.103	17.59
803.279	17.95
803.455	19.07
803.631	19.44
803.807	19.13
803.983	19.18
804.16	18.78
804.336	18.4
804.512	17.93
804.688	17.98
804.864	17.83
805.04	18.21
805.216	17.27
805.392	16.49
805.568	15.83
805.744	16.48
805.92	16.33
806.096	16.36
806.272	17.55
806.448	17.95
806.623	17.64
806.799	17.52
806.975	18.35
807.151	19.68
807.327	19.45
807.503	19.17
807.678	19.28
807.854	18.8
808.03	19.16
808.206	18.54
808.381	18.79
808.557	18.9
808.733	18.96
808.908	18.43
809.084	17.17
809.26	17.22
809.435	16.93
809.611	17.04
809.787	17.52
809.962	16.61
810.138	16.9
810.313	16.65
810.489	16.7
810.664	16.68
810.84	16.54
811.015	16.92
811.191	17.08
811.366	17.23
811.542	16.47
811.717	16.06
811.892	17.47
812.068	17.42
812.243	17.23
812.419	16.94
812.594	17.35
812.769	17.74
812.944	17.53
813.12	16.71
813.295	17.28
813.47	17.75
813.645	17.92
813.821	17.1
813.996	16.51
814.171	15.84
814.346	16.09
814.521	15.62
814.697	15.49
814.872	16.19
815.047	17.03
815.222	16.25
815.397	16.15
815.572	16.77
815.747	17.07
815.922	16.84
816.097	17.31
816.272	17.32
816.447	17.11
816.622	17.21
816.797	16.62
816.972	16.75
817.147	16.92
817.322	16.93
817.496	16.56
817.671	17.32
817.846	18.13
818.021	17.65
818.196	17.99
818.371	18.01
818.545	18.04
818.72	18.25
818.895	18.4
819.069	18.59
819.244	18.93
819.419	18.84
819.594	18.43
819.768	18.33
819.943	18.77
820.117	18.62
820.292	18.67
820.467	18.36
820.641	18.46
820.816	18.28
820.99	18.31
821.165	18.24
821.339	18.28
821.514	18.2
821.688	18.09
821.863	18.04
822.037	17.99
822.212	17.91
822.386	17.97
822.56	17.86
822.735	17.78
822.909	17.77
823.084	17.61
823.258	17.5
823.432	17.51
823.606	17.49
823.781	17.41
823.955	17.39
824.129	17.37
824.303	17.29
824.478	17.32
824.652	17.51
824.826	17.16
825	17.35
825.174	17.4
825.348	17.28
825.523	17.4
825.697	17.34
825.871	17.55
826.045	17.55
826.219	17.49
826.393	17.57
826.567	17.66
826.741	17.99
826.915	18.12
827.089	18.19
827.263	18.47
827.437	18.53
827.611	18.83
827.784	18.62
827.958	18.61
828.132	19.09
828.306	18.92
828.48	19.01
828.654	18.98
828.827	18.57
829.001	18.26
829.175	17.91
829.349	18.09
829.522	17.92
829.696	18.03
829.87	18.01
830.044	17.88
830.217	17.8
830.391	17.36
830.565	17.68
830.738	18.06
830.912	18.25
831.085	18.43
831.259	18.08
831.432	17.8
831.606	17.77
831.779	18.13
831.953	18.18
832.126	18.19
832.3	18.05
832.473	17.98
832.647	17.79
832.82	17.89
832.994	18.04
833.167	17.79
833.34	17.81
833.514	17.75
833.687	17.61
833.86	17.09
834.034	17.07
834.207	17.42
834.38	17.12
834.553	16.98
834.727	16.94
834.9	16.56
835.073	16.67
835.246	16.82
835.419	16.85
835.593	17.37
835.766	17.69
835.939	17.42
836.112	16.92
836.285	17.24
836.458	17.43
836.631	17.53
836.804	16.95
836.977	16.58
837.15	15.86
837.323	15.45
837.496	14.55
837.669	14.1
837.842	14.9
838.015	15.9
838.188	15.15
838.361	15.67
838.533	15.96
838.706	16.1
838.879	16.92
839.052	17.59
839.225	18.36
839.398	18.97
839.57	18.68
839.743	17.92
839.916	17.48
840.088	17.4
840.261	17.05
840.434	16.4
840.607	16.45
840.779	16.74
840.952	16.45
841.124	17.07
841.297	16.25
841.47	15.74
841.642	16.58
841.815	16.85
841.987	16.59
842.16	16.64
842.332	16.34
842.505	16.96
842.677	16.64
842.85	16.64
843.022	15.5
843.194	16.41
843.367	18.1
843.539	17.72
843.712	17.23
843.884	17.77
844.056	17.68
844.229	16.88
844.401	16.8
844.573	19.37
844.745	17.75
844.918	18.06
845.09	17.74
845.262	16.28
845.434	17.96
845.606	17.16
845.779	17.79
845.951	18.64
846.123	19.49
846.295	19.85
846.467	15.89
846.639	17.3
846.811	16.68
846.983	15.79
847.155	17.54
847.327	15.79
847.499	16.21
847.671	14.13
847.843	13.31
848.015	11.48
848.187	12.01
848.359	12.15
848.531	13.07
848.703	13.81
848.875	14.37
849.047	13.64
849.218	14.77
849.39	12.59
849.562	15.75
849.734	14.64
849.905	16.46
850.077	15.23
850.249	16.92
850.421	16.17
850.592	15.04
850.764	15.41
850.936	16.28
851.107	15.99
851.279	18.34
851.451	16.73
851.622	16.11
851.794	18.26
851.965	17.35
852.137	16.89
852.308	15.96
852.48	17.03
852.651	15.82
852.823	15.77
852.994	14.51
853.166	15.32
853.337	16.65
853.509	18.98
853.68	18.42
853.851	20.66
854.023	19.74
854.194	20.22
854.365	18.48
854.537	20.65
854.708	20.1
854.879	19.9
855.05	18.04
855.222	17.61
855.393	14.93
855.564	11.24
855.735	8.77
855.906	9.54
856.078	8.47
856.249	12.03
856.42	8.71
856.591	10.11
856.762	11.94
856.933	13.58
857.104	11.56
857.275	14.29
857.446	16.84
857.617	18.58
857.788	18.62
857.959	18.01
858.13	14.85
858.301	15.46
858.472	13.86
858.643	11.36
858.814	10.44
858.985	10.92
859.155	10.24
859.326	10.66
859.497	11.02
859.668	9.86
859.839	11.38
860.009	13.54
860.18	13.07
860.351	14.56
860.522	16.51
860.692	17.4
860.863	18.71
861.034	18.71
861.204	17.52
861.375	17.26
861.546	17.74
861.716	17.54
861.887	15.13
862.057	15.82
862.228	13.08
862.398	12.86
862.569	11.66
862.739	11.28
862.91	13.06
863.08	13.12
863.251	10.01
863.421	9.35
863.592	9.92
863.762	13.01
863.932	13.77
864.103	14.01
864.273	10.94
864.443	12.97
864.614	15.15
864.784	13.19
864.954	13.88
865.125	17.57
865.295	19.94
865.465	20.88
865.635	20.06
865.805	20.64
865.976	19.96
866.146	23.85
866.316	22.86
866.486	20.49
866.656	20.35
866.826	17.53
866.996	15.17
867.166	12.48
867.336	10.84
867.506	8.66
867.676	8.13
867.846	9.58
868.016	6.81
868.186	2.22
868.356	1.65
868.526	3.01
868.696	3.52
868.866	5.64
869.036	3.53
869.206	3.12
869.376	3.13
869.545	1.03
869.715	0.97
869.885	3.49
870.055	5.66
870.224	4.75
870.394	7.9
870.564	11.71
870.734	9.78
870.903	16.43
871.073	16.57
871.243	19.1
871.412	20.31
871.582	23.38
871.751	22.94
871.921	24.88
872.091	23.93
872.26	20.6
872.43	19.51
872.599	21.38
872.769	17.93
872.938	18.49
873.108	17.65
873.277	17.62
873.446	15.87
873.616	15.24
873.785	15.01
873.955	17.05
874.124	16.28
874.293	16.92
874.463	16.17
874.632	15.11
874.801	15.04
874.971	14.49
875.14	16.91
875.309	16.24
875.478	17.16
875.647	16.93
875.817	17.8
875.986	16.51
876.155	14.04
876.324	12.04
876.493	12.85
876.662	15.51
876.831	16.08
877	13.4
877.17	13.83
877.339	14.61
877.508	17.41
877.677	18.75
877.846	21.18
878.015	23.47
878.184	26.51
878.352	26.03
878.521	24.17
878.69	22.44
878.859	23.64
879.028	23.27
879.197	21.62
879.366	19.84
879.534	19.28
879.703	18.94
879.872	18.57
880.041	18.43
880.21	18.58
880.378	17.75
880.547	18.93
880.716	19.06
880.884	18.61
881.053	18.78
881.222	18.78
881.39	18.94
881.559	19.11
881.727	19.28
881.896	19.29
882.065	19.08
882.233	19.74
882.402	19.51
882.57	19.16
882.739	19.44
882.907	19.93
883.076	20.22
883.244	20.27
883.412	20.48
883.581	20.55
883.749	20.51
883.918	20.88
884.086	21.08
884.254	20.66
884.423	20.67
884.591	21.37
884.759	19.99
884.927	20.17
885.096	19.16
885.264	20.02
885.432	20.09
885.6	18.92
885.769	18.55
885.937	17.93
886.105	18.49
886.273	18.36
886.441	16.78
886.609	17.03
886.777	15.01
886.945	17.21
887.113	16.19
887.281	14.4
887.449	18.21
887.617	19.92
887.785	19.33
887.953	18.93
888.121	18.52
888.289	20.9
888.457	21.3
888.625	21.88
888.793	20.24
888.961	17.07
889.129	18.33
889.296	15.8
889.464	13.83
889.632	13.51
889.8	13.5
889.967	14.79
890.135	11.73
