Data from JASIL_2971_Reflection_1.txt Node
Date: Sat Nov 07 21:43:45 EST 2015
User: Geneva
Spectrometer: USB4E03002
Autoset integration time: false
Trigger mode: 4
Integration Time (sec): 1.000000E-1
Scans to average: 10
Electric dark correction enabled: true
Nonlinearity correction enabled: false
Boxcar width: 5
Stray light correction enabled: false
XAxis mode: Wavelengths
Stop averaging: false
Number of Pixels in Spectrum: 3648
>>>>>Begin Spectral Data<<<<<
177.575	-284.18
177.794	-174.94
178.014	-272.4
178.233	175.64
178.452	97.14
178.672	138.37
178.891	65.27
179.11	1.03
179.33	31.51
179.549	-66.14
179.768	36.98
179.987	-38.98
180.207	-160.73
180.426	160.99
180.645	80.89
180.864	86.81
181.084	78.49
181.303	60.15
181.522	63.35
181.741	81.09
181.96	63.68
182.179	58.16
182.398	51.63
182.618	48.23
182.837	50.07
183.056	57.98
183.275	40.65
183.494	63.4
183.713	68.76
183.932	66.55
184.151	33.14
184.37	46.22
184.589	48.67
184.808	44.58
185.027	39.69
185.246	30.1
185.465	25.89
185.684	32.35
185.903	24.66
186.122	23.69
186.341	26.82
186.56	34.01
186.779	37.17
186.998	31.24
187.216	34.66
187.435	30.9
187.654	32.3
187.873	38.44
188.092	14.77
188.311	21.06
188.53	27.53
188.748	0.92
188.967	-15.14
189.186	-1.68
189.405	21.07
189.623	19.16
189.842	30.76
190.061	28.81
190.28	7.52
190.498	8.71
190.717	-3.6
190.936	-7.89
191.154	-37.41
191.373	-80.69
191.592	-184.52
191.81	950.9
192.029	642.62
192.248	1607.1
192.466	-219.47
192.685	-18.56
192.904	23.15
193.122	27.24
193.341	0.61
193.559	83.03
193.778	67.63
193.996	50.05
194.215	38.87
194.433	31.45
194.652	30.42
194.87	29.33
195.089	39.12
195.307	31.25
195.526	31.72
195.744	39.18
195.963	21.97
196.181	29
196.399	4.33
196.618	-7.67
196.836	2.46
197.055	16.08
197.273	5.94
197.491	-12.02
197.71	10.58
197.928	1.86
198.146	-4.18
198.365	-4.18
198.583	8.48
198.801	52.71
199.019	61.89
199.238	24.96
199.456	-1.57
199.674	-0.48
199.892	-0.96
200.111	-29.5
200.329	0.6
200.547	-26.3
200.765	-25.99
200.983	-76.15
201.202	-63.51
201.42	-24.72
201.638	-16.75
201.856	10.01
202.074	19.23
202.292	3.09
202.51	3.67
202.728	-5.88
202.946	-2.95
203.165	-11.65
203.383	18.06
203.601	4.68
203.819	-30.27
204.037	-1.2
204.255	4.64
204.473	8.57
204.691	30.68
204.909	10.05
205.127	11.21
205.345	31.61
205.562	41.38
205.78	39.85
205.998	62.34
206.216	59.5
206.434	46.74
206.652	45.57
206.87	38.18
207.088	22.44
207.306	22.91
207.523	25.35
207.741	20.85
207.959	8.84
208.177	4.23
208.395	-27.77
208.612	-42.72
208.83	-21.01
209.048	-13.01
209.266	-42.74
209.483	-79.76
209.701	-117.25
209.919	-110.81
210.136	-77.25
210.354	-14
210.572	4.79
210.79	22.54
211.007	25.63
211.225	13.69
211.442	10.05
211.66	20.88
211.878	22.81
212.095	62.86
212.313	67.93
212.53	64.37
212.748	59.87
212.966	59.13
213.183	57.52
213.401	56.91
213.618	63.22
213.836	59.72
214.053	55.38
214.271	56.3
214.488	-1.48
214.705	-7.93
214.923	-11.2
215.14	-19.68
215.358	-16.38
215.575	-16.4
215.793	-14.76
216.01	-13.93
216.227	-11.55
216.445	-16.8
216.662	-1.88
216.879	6.53
217.097	3.58
217.314	9.48
217.531	12.95
217.749	-1.81
217.966	4.28
218.183	-4.45
218.4	-8.6
218.618	-9.66
218.835	2.01
219.052	3.18
219.269	2.85
219.487	8.15
219.704	3.52
219.921	2.81
220.138	15.1
220.355	11.41
220.572	18.11
220.79	12.86
221.007	17.77
221.224	15.38
221.441	10.47
221.658	9.45
221.875	7.76
222.092	10.35
222.309	6.84
222.526	0.19
222.743	0.75
222.96	-5.31
223.177	1.2
223.394	-1.4
223.611	-1.82
223.828	1.89
224.045	2.85
224.262	3.99
224.479	4.8
224.696	8.31
224.913	9.63
225.13	11.52
225.347	13.98
225.564	11.58
225.781	10.84
225.997	10.94
226.214	9.91
226.431	9.08
226.648	7.72
226.865	7.41
227.082	7.26
227.298	6.85
227.515	6.64
227.732	5.57
227.949	6.05
228.165	5.69
228.382	5.05
228.599	5.16
228.816	5.26
229.032	5.07
229.249	5.38
229.466	4.82
229.682	4.25
229.899	4.41
230.116	5.52
230.332	6.2
230.549	7.7
230.765	9.32
230.982	9.08
231.199	10.17
231.415	10.5
231.632	9.5
231.848	10.47
232.065	12.02
232.281	11.18
232.498	9.07
232.714	9.17
232.931	7.59
233.147	7.84
233.364	8.31
233.58	7.68
233.797	7.42
234.013	7.45
234.23	7.44
234.446	6.4
234.662	6.83
234.879	7.62
235.095	6.26
235.312	7.01
235.528	5.99
235.744	5.14
235.961	5.29
236.177	4.76
236.393	4.95
236.61	5.01
236.826	5.94
237.042	6.09
237.258	7.13
237.475	8.25
237.691	8.22
237.907	7.85
238.123	7.96
238.339	7.93
238.556	8.66
238.772	8.46
238.988	8.04
239.204	8.1
239.42	7.25
239.636	6.53
239.853	6.22
240.069	5.87
240.285	5.87
240.501	5.76
240.717	5.4
240.933	5.49
241.149	5.75
241.365	6.3
241.581	6.27
241.797	6.64
242.013	6.66
242.229	6.99
242.445	7.04
242.661	6.93
242.877	7.37
243.093	7.39
243.309	7.35
243.525	6.89
243.741	6.6
243.957	6.86
244.173	6.87
244.388	6.6
244.604	6.23
244.82	6.4
245.036	6.37
245.252	6.31
245.468	6.42
245.683	6.39
245.899	6.66
246.115	6.57
246.331	6.6
246.547	6.46
246.762	6.65
246.978	6.59
247.194	6.42
247.409	6.79
247.625	6.58
247.841	6.64
248.057	6.74
248.272	6.75
248.488	6.84
248.703	6.15
248.919	6.43
249.135	5.99
249.35	5.93
249.566	6.11
249.782	5.45
249.997	5.96
250.213	5.9
250.428	5.71
250.644	5.52
250.859	5.2
251.075	5.65
251.29	5.1
251.506	5.19
251.721	5.13
251.937	5.47
252.152	5.79
252.368	5.23
252.583	5.33
252.798	4.94
253.014	4.75
253.229	5.07
253.445	4.87
253.66	5.11
253.875	4.88
254.091	4.41
254.306	3.84
254.521	2.92
254.737	3.77
254.952	2.9
255.167	3.32
255.383	3.87
255.598	3.81
255.813	3.96
256.028	3.67
256.244	3.83
256.459	4.15
256.674	4.12
256.889	4.3
257.104	4.26
257.32	4.7
257.535	4.77
257.75	4.62
257.965	4.54
258.18	4.6
258.395	4.64
258.61	4.73
258.826	4.78
259.041	4.84
259.256	4.81
259.471	4.73
259.686	4.75
259.901	4.81
260.116	4.83
260.331	4.9
260.546	4.91
260.761	4.91
260.976	4.97
261.191	4.96
261.406	4.74
261.621	4.92
261.836	4.51
262.05	4.31
262.265	3.87
262.48	3.99
262.695	3.81
262.91	3.65
263.125	3.54
263.34	3.43
263.555	3.13
263.769	3.35
263.984	3.38
264.199	4.16
264.414	3.96
264.629	4.17
264.843	3.84
265.058	3.84
265.273	4.3
265.488	4.32
265.702	4.52
265.917	4.79
266.132	4.94
266.346	4.68
266.561	4.43
266.776	4.63
266.99	4.81
267.205	4.92
267.42	4.45
267.634	4.03
267.849	4.31
268.063	3.95
268.278	3.74
268.492	3.55
268.707	3.61
268.922	3.64
269.136	3.79
269.351	3.83
269.565	4.07
269.78	4.29
269.994	4.15
270.209	3.87
270.423	4.27
270.637	4.39
270.852	4.45
271.066	4.51
271.281	4.46
271.495	4.34
271.709	4.25
271.924	4.16
272.138	4.37
272.353	4.66
272.567	4.68
272.781	4.26
272.996	4.29
273.21	4.18
273.424	4.16
273.638	4.23
273.853	4.14
274.067	3.87
274.281	3.69
274.495	3.29
274.71	3.2
274.924	3.23
275.138	3.63
275.352	3.45
275.566	3.59
275.781	3.72
275.995	3.92
276.209	4.22
276.423	4.05
276.637	3.69
276.851	3.86
277.065	3.83
277.279	3.94
277.493	3.86
277.707	3.89
277.921	3.84
278.135	3.78
278.349	3.41
278.563	3.16
278.777	3.24
278.991	3.83
279.205	4.13
279.419	4.13
279.633	3.96
279.847	4.01
280.061	4.15
280.275	4.09
280.489	4.02
280.703	4.09
280.917	4.03
281.131	4.32
281.344	4.01
281.558	3.99
281.772	4.05
281.986	4.1
282.2	3.91
282.414	3.93
282.627	4.08
282.841	4.15
283.055	4.16
283.269	4.12
283.482	4.02
283.696	4.22
283.91	4.33
284.123	4.14
284.337	4.14
284.551	4.1
284.764	3.93
284.978	4.09
285.192	4.09
285.405	4.27
285.619	4.44
285.833	4.35
286.046	4.14
286.26	4.06
286.473	4.03
286.687	4.04
286.9	4.03
287.114	4.02
287.327	4
287.541	3.91
287.754	3.58
287.968	3.15
288.181	3.45
288.395	3.56
288.608	3.31
288.822	3.41
289.035	3.56
289.248	3.75
289.462	3.93
289.675	3.94
289.889	4.05
290.102	4.19
290.315	4.62
290.529	4.48
290.742	4.55
290.955	4.68
291.169	4.82
291.382	4.64
291.595	4.65
291.808	4.54
292.022	4.69
292.235	4.58
292.448	4.77
292.661	4.88
292.875	4.98
293.088	4.94
293.301	5.12
293.514	5.16
293.727	5.56
293.94	5.79
294.153	5.9
294.367	5.55
294.58	5.41
294.793	5.25
295.006	5.19
295.219	5.31
295.432	5.36
295.645	5.39
295.858	5.27
296.071	5.17
296.284	4.96
296.497	4.99
296.71	5.14
296.923	5.38
297.136	5.53
297.349	5.59
297.562	5.56
297.775	5.67
297.988	5.76
298.201	5.81
298.414	5.77
298.626	5.84
298.839	6
299.052	6.13
299.265	5.91
299.478	5.82
299.691	5.68
299.903	5.59
300.116	5.46
300.329	5.33
300.542	5.43
300.755	5.48
300.967	5.63
301.18	5.49
301.393	5.33
301.605	5.46
301.818	5.36
302.031	5.46
302.243	5.5
302.456	5.86
302.669	5.92
302.881	6.1
303.094	6.2
303.307	6.37
303.519	6.57
303.732	6.73
303.944	7.02
304.157	7.1
304.37	7.36
304.582	7.51
304.795	7.47
305.007	7.6
305.22	7.62
305.432	7.56
305.645	7.46
305.857	7.41
306.069	7.55
306.282	7.32
306.494	7.39
306.707	7.14
306.919	7.37
307.132	7.21
307.344	7.09
307.556	7.03
307.769	7.23
307.981	7.32
308.193	7.39
308.406	7.14
308.618	7.29
308.83	7.26
309.043	7.41
309.255	7.23
309.467	7.2
309.679	7.28
309.892	7.18
310.104	7.03
310.316	6.94
310.528	6.89
310.74	7.08
310.953	7.16
311.165	7.35
311.377	7.16
311.589	7.19
311.801	7.22
312.013	7.1
312.225	7.44
312.437	7.63
312.649	7.66
312.862	7.63
313.074	7.41
313.286	7.17
313.498	7.17
313.71	7.47
313.922	7.53
314.134	7.66
314.346	7.66
314.558	7.55
314.77	7.37
314.982	7.2
315.193	7.37
315.405	7.56
315.617	7.73
315.829	7.9
316.041	7.78
316.253	7.48
316.465	7.4
316.677	7.64
316.888	7.7
317.1	7.81
317.312	8.25
317.524	8.3
317.736	8.19
317.947	8.46
318.159	8.43
318.371	8.5
318.583	8.89
318.794	9.08
319.006	9.01
319.218	9
319.43	9.01
319.641	8.81
319.853	8.75
320.064	8.92
320.276	8.9
320.488	8.64
320.699	8.69
320.911	8.57
321.123	8.78
321.334	8.9
321.546	8.85
321.757	9.13
321.969	9.22
322.18	9.54
322.392	9.19
322.603	8.85
322.815	8.98
323.026	9.14
323.238	9
323.449	8.86
323.661	8.67
323.872	8.83
324.083	8.7
324.295	8.58
324.506	8.32
324.718	8.69
324.929	8.97
325.14	8.95
325.352	8.96
325.563	9.27
325.774	9.23
325.986	9.49
326.197	9.44
326.408	9.61
326.62	9.74
326.831	9.95
327.042	10.1
327.253	10.21
327.464	10.48
327.676	10.31
327.887	10.49
328.098	10.61
328.309	10.71
328.52	10.87
328.732	10.96
328.943	11.2
329.154	11.35
329.365	11.11
329.576	11.17
329.787	11.21
329.998	11.43
330.209	11.37
330.42	11.61
330.631	11.54
330.842	11.58
331.053	11.52
331.264	11.55
331.475	11.54
331.686	11.88
331.897	11.98
332.108	11.86
332.319	11.73
332.53	11.95
332.741	11.91
332.952	12.03
333.163	12.13
333.374	12.16
333.585	12.08
333.795	12.07
334.006	12.05
334.217	11.9
334.428	11.91
334.639	12.18
334.849	11.96
335.06	11.86
335.271	11.92
335.482	11.8
335.692	11.86
335.903	11.74
336.114	11.65
336.325	11.73
336.535	11.8
336.746	11.8
336.957	11.82
337.167	11.96
337.378	11.93
337.589	11.87
337.799	12.02
338.01	12.16
338.22	12.42
338.431	12.44
338.642	12.34
338.852	12.11
339.063	12.36
339.273	12.19
339.484	12.11
339.694	12.18
339.905	12.08
340.115	11.96
340.326	11.68
340.536	11.61
340.746	11.58
340.957	11.52
341.167	11.76
341.378	11.58
341.588	11.84
341.799	11.73
342.009	11.7
342.219	11.78
342.43	11.85
342.64	11.83
342.85	11.81
343.061	11.85
343.271	11.91
343.481	11.94
343.691	11.8
343.902	11.52
344.112	11.46
344.322	11.44
344.532	11.35
344.743	11.15
344.953	11.07
345.163	11.03
345.373	10.96
345.583	10.85
345.793	10.73
346.004	10.76
346.214	10.89
346.424	11.05
346.634	11.13
346.844	11.22
347.054	11.42
347.264	11.82
347.474	11.74
347.684	11.73
347.894	11.81
348.104	11.74
348.314	11.76
348.524	11.77
348.734	11.68
348.944	11.58
349.154	11.5
349.364	11.38
349.574	11.06
349.784	11.14
349.994	11.25
350.204	11.04
350.413	10.95
350.623	11.02
350.833	10.92
351.043	10.93
351.253	10.98
351.463	11
351.672	10.87
351.882	10.81
352.092	10.71
352.302	10.68
352.511	10.85
352.721	11
352.931	11.01
353.141	10.85
353.35	10.7
353.56	10.59
353.77	10.62
353.979	10.77
354.189	10.9
354.399	10.95
354.608	10.8
354.818	10.75
355.027	10.74
355.237	10.65
355.447	10.69
355.656	10.71
355.866	10.75
356.075	10.58
356.285	10.44
356.494	10.39
356.704	10.33
356.913	10.43
357.123	10.31
357.332	10.29
357.542	10.3
357.751	10.38
357.96	10.4
358.17	10.34
358.379	10.47
358.589	10.5
358.798	10.38
359.007	10.32
359.217	10.21
359.426	10.32
359.635	10.32
359.845	10.32
360.054	10.25
360.263	10.18
360.472	10.15
360.682	10.14
360.891	10.24
361.1	10.33
361.309	10.37
361.519	10.41
361.728	10.41
361.937	10.4
362.146	10.31
362.355	10.33
362.564	10.35
362.774	10.35
362.983	10.15
363.192	10.09
363.401	10.02
363.61	10.01
363.819	9.97
364.028	9.93
364.237	9.88
364.446	10.03
364.655	10.04
364.864	10.05
365.073	10.14
365.282	10.28
365.491	10.22
365.7	10.3
365.909	10.29
366.118	10.31
366.327	10.14
366.536	10.11
366.745	9.89
366.954	9.8
367.162	9.78
367.371	9.52
367.58	9.45
367.789	9.39
367.998	9.33
368.207	9.42
368.415	9.35
368.624	9.43
368.833	9.43
369.042	9.56
369.25	9.73
369.459	9.76
369.668	9.89
369.877	9.89
370.085	9.92
370.294	9.88
370.503	9.8
370.711	9.66
370.92	9.54
371.129	9.48
371.337	9.36
371.546	9.07
371.754	9.04
371.963	9.03
372.171	8.98
372.38	8.89
372.589	8.88
372.797	8.77
373.006	8.92
373.214	9
373.423	9.05
373.631	9.13
373.84	9.3
374.048	9.23
374.256	9.2
374.465	9.12
374.673	9.06
374.882	9
375.09	9
375.298	8.91
375.507	8.86
375.715	8.84
375.923	8.68
376.132	8.52
376.34	8.45
376.548	8.39
376.757	8.56
376.965	8.65
377.173	8.67
377.381	8.64
377.59	8.58
377.798	8.57
378.006	8.47
378.214	8.62
378.423	8.68
378.631	8.76
378.839	8.75
379.047	8.6
379.255	8.53
379.463	8.44
379.671	8.31
379.879	8.35
380.088	8.39
380.296	8.44
380.504	8.38
380.712	8.35
380.92	8.4
381.128	8.41
381.336	8.42
381.544	8.43
381.752	8.41
381.96	8.41
382.168	8.33
382.376	8.29
382.584	8.29
382.791	8.31
382.999	8.3
383.207	8.2
383.415	8.1
383.623	8.1
383.831	8.06
384.039	8.07
384.247	8.19
384.454	8.35
384.662	8.5
384.87	8.46
385.078	8.38
385.285	8.42
385.493	8.37
385.701	8.44
385.909	8.5
386.116	8.45
386.324	8.41
386.532	8.38
386.739	8.22
386.947	7.98
387.155	7.99
387.362	7.98
387.57	7.99
387.778	7.99
387.985	8.02
388.193	7.86
388.4	7.97
388.608	7.93
388.816	7.91
389.023	7.95
389.231	7.96
389.438	7.9
389.646	7.82
389.853	7.74
390.061	7.7
390.268	7.77
390.475	7.76
390.683	7.65
390.89	7.63
391.098	7.55
391.305	7.49
391.512	7.39
391.72	7.44
391.927	7.36
392.135	7.34
392.342	7.35
392.549	7.23
392.756	7.26
392.964	7.28
393.171	7.3
393.378	7.36
393.586	7.39
393.793	7.52
394	7.4
394.207	7.47
394.414	7.37
394.622	7.41
394.829	7.39
395.036	7.35
395.243	7.31
395.45	7.33
395.657	7.23
395.864	7.09
396.072	7.07
396.279	7.08
396.486	7.07
396.693	7.26
396.9	7.2
397.107	7.09
397.314	7.09
397.521	7.05
397.728	7.06
397.935	7.12
398.142	7.23
398.349	7.21
398.556	7.29
398.763	7.26
398.97	7.12
399.177	7.22
399.383	7.36
399.59	7.37
399.797	7.45
400.004	7.45
400.211	7.37
400.418	7.33
400.625	7.31
400.831	7.29
401.038	7.32
401.245	7.29
401.452	7.05
401.658	7.03
401.865	7.12
402.072	7.06
402.279	7.05
402.485	7
402.692	7.06
402.899	7.04
403.105	7.05
403.312	7.02
403.519	7.04
403.725	7.24
403.932	7.21
404.138	7.15
404.345	7.07
404.552	7.01
404.758	7.08
404.965	6.99
405.171	6.98
405.378	6.93
405.584	6.99
405.791	6.99
405.997	6.85
406.204	6.79
406.41	6.7
406.617	6.75
406.823	6.79
407.029	6.77
407.236	6.87
407.442	6.87
407.649	6.97
407.855	6.93
408.061	6.96
408.268	7.04
408.474	7
408.68	7.1
408.887	7.08
409.093	7.12
409.299	7.14
409.505	7.1
409.712	7.06
409.918	6.89
410.124	6.87
410.33	6.82
410.537	6.79
410.743	6.81
410.949	6.78
411.155	6.78
411.361	6.76
411.567	6.63
411.773	6.55
411.98	6.56
412.186	6.57
412.392	6.54
412.598	6.55
412.804	6.62
413.01	6.68
413.216	6.59
413.422	6.69
413.628	6.67
413.834	6.68
414.04	6.73
414.246	6.69
414.452	6.68
414.658	6.69
414.864	6.68
415.07	6.65
415.275	6.57
415.481	6.59
415.687	6.45
415.893	6.45
416.099	6.52
416.305	6.52
416.511	6.46
416.716	6.48
416.922	6.52
417.128	6.49
417.334	6.46
417.539	6.49
417.745	6.49
417.951	6.53
418.157	6.55
418.362	6.57
418.568	6.54
418.774	6.59
418.979	6.56
419.185	6.5
419.391	6.49
419.596	6.47
419.802	6.43
420.008	6.39
420.213	6.69
420.419	6.63
420.624	6.6
420.83	6.59
421.035	6.58
421.241	6.55
421.446	6.64
421.652	6.62
421.857	6.6
422.063	6.59
422.268	6.6
422.474	6.29
422.679	6.28
422.885	6.25
423.09	6.25
423.295	6.23
423.501	6.25
423.706	6.15
423.911	6.17
424.117	6.19
424.322	6.18
424.527	6.18
424.733	6.15
424.938	6.17
425.143	6.17
425.349	6.16
425.554	6.15
425.759	6.16
425.964	6.17
426.169	6.16
426.375	6.15
426.58	6.15
426.785	6.14
426.99	6.17
427.195	6.14
427.4	6.16
427.605	6.16
427.811	6.16
428.016	6.17
428.221	6.22
428.426	6.21
428.631	6.19
428.836	6.21
429.041	6.22
429.246	6.21
429.451	6.24
429.656	6.27
429.861	6.27
430.066	6.31
430.271	6.32
430.476	6.26
430.681	6.24
430.886	6.24
431.09	6.34
431.295	6.34
431.5	6.34
431.705	6.36
431.91	6.33
432.115	6.32
432.32	6.3
432.524	6.27
432.729	6.27
432.934	6.34
433.139	6.35
433.343	6.3
433.548	6.32
433.753	6.33
433.958	6.29
434.162	6.26
434.367	6.28
434.572	6.25
434.776	6.27
434.981	6.25
435.186	6.18
435.39	6.2
435.595	6.2
435.799	6.2
436.004	6.23
436.209	6.19
436.413	6.21
436.618	6.19
436.822	6.18
437.027	6.12
437.231	6.16
437.436	6.18
437.64	6.14
437.845	6.13
438.049	6.1
438.253	6.05
438.458	6.1
438.662	6.11
438.867	6.12
439.071	6.15
439.275	6.2
439.48	6.15
439.684	6.11
439.888	6.12
440.093	6.08
440.297	6.08
440.501	6.07
440.706	6.06
440.91	6.09
441.114	6.07
441.318	6.07
441.523	6.07
441.727	6.1
441.931	6.18
442.135	6.16
442.339	6.18
442.543	6.17
442.748	6.17
442.952	6.15
443.156	6.09
443.36	6.09
443.564	6.06
443.768	6.05
443.972	6.02
444.176	5.93
444.38	5.94
444.584	5.93
444.788	5.93
444.992	5.94
445.196	5.94
445.4	6
445.604	5.99
445.808	6.02
446.012	6.01
446.216	6
446.42	6
446.624	6.02
446.828	6.01
447.032	6.01
447.235	6
447.439	6.03
447.643	5.99
447.847	6.01
448.051	6.02
448.254	6.03
448.458	6.04
448.662	6.07
448.866	6.01
449.069	6.01
449.273	6.05
449.477	6.1
449.681	6.06
449.884	6.09
450.088	6.06
450.292	6.03
450.495	6.02
450.699	6.09
450.902	6.1
451.106	6.12
451.31	6.16
451.513	6.16
451.717	6.03
451.92	6.04
452.124	5.98
452.327	6.02
452.531	5.99
452.734	5.96
452.938	5.89
453.141	5.87
453.345	5.9
453.548	5.86
453.752	5.84
453.955	5.94
454.158	5.95
454.362	5.96
454.565	5.91
454.769	5.94
454.972	5.97
455.175	5.99
455.379	5.95
455.582	5.93
455.785	5.9
455.988	5.88
456.192	5.83
456.395	5.79
456.598	5.81
456.801	5.81
457.005	5.85
457.208	5.84
457.411	5.77
457.614	5.81
457.817	5.79
458.021	5.8
458.224	5.8
458.427	5.85
458.63	5.89
458.833	5.85
459.036	5.85
459.239	5.77
459.442	5.76
459.645	5.81
459.848	5.83
460.051	5.84
460.254	5.85
460.457	5.86
460.66	5.84
460.863	5.81
461.066	5.86
461.269	5.87
461.472	5.94
461.675	5.98
461.878	6.01
462.081	5.96
462.284	5.96
462.486	5.94
462.689	5.94
462.892	5.94
463.095	5.95
463.298	5.91
463.5	5.88
463.703	5.88
463.906	5.89
464.109	5.88
464.311	5.9
464.514	5.93
464.717	5.95
464.92	5.97
465.122	5.98
465.325	6.02
465.528	6.06
465.73	6.05
465.933	6.01
466.135	6.01
466.338	6
466.541	6.01
466.743	5.99
466.946	6
467.148	5.99
467.351	5.97
467.553	5.93
467.756	5.96
467.958	6.02
468.161	6.02
468.363	5.93
468.566	5.93
468.768	5.86
468.971	5.86
469.173	5.83
469.375	5.79
469.578	5.9
469.78	5.86
469.983	5.84
470.185	5.83
470.387	5.84
470.59	5.93
470.792	5.88
470.994	5.92
471.196	5.95
471.399	5.94
471.601	5.94
471.803	5.82
472.005	5.85
472.208	5.81
472.41	5.76
472.612	5.77
472.814	5.76
473.016	5.8
473.218	5.82
473.421	5.78
473.623	5.79
473.825	5.82
474.027	5.81
474.229	5.79
474.431	5.8
474.633	5.82
474.835	5.81
475.037	5.75
475.239	5.76
475.441	5.77
475.643	5.77
475.845	5.8
476.047	5.81
476.249	5.8
476.451	5.81
476.653	5.83
476.855	5.81
477.057	5.8
477.258	5.85
477.46	5.83
477.662	5.86
477.864	5.86
478.066	5.83
478.268	5.8
478.469	5.85
478.671	5.84
478.873	5.76
479.075	5.79
479.276	5.79
479.478	5.78
479.68	5.76
479.882	5.76
480.083	5.8
480.285	5.79
480.487	5.77
480.688	5.73
480.89	5.75
481.091	5.76
481.293	5.76
481.495	5.73
481.696	5.72
481.898	5.74
482.099	5.72
482.301	5.72
482.502	5.74
482.704	5.75
482.905	5.77
483.107	5.78
483.308	5.77
483.51	5.77
483.711	5.78
483.913	5.78
484.114	5.77
484.315	5.75
484.517	5.73
484.718	5.73
484.92	5.72
485.121	5.7
485.322	5.69
485.524	5.72
485.725	5.73
485.926	5.73
486.127	5.74
486.329	5.76
486.53	5.77
486.731	5.77
486.932	5.77
487.134	5.77
487.335	5.76
487.536	5.76
487.737	5.74
487.938	5.74
488.139	5.73
488.341	5.73
488.542	5.71
488.743	5.7
488.944	5.7
489.145	5.7
489.346	5.7
489.547	5.73
489.748	5.74
489.949	5.76
490.15	5.79
490.351	5.8
490.552	5.83
490.753	5.85
490.954	5.85
491.155	5.86
491.356	5.84
491.557	5.83
491.758	5.83
491.959	5.84
492.159	5.82
492.36	5.81
492.561	5.8
492.762	5.78
492.963	5.77
493.164	5.76
493.364	5.78
493.565	5.81
493.766	5.85
493.967	5.83
494.167	5.83
494.368	5.86
494.569	5.88
494.769	5.87
494.97	5.87
495.171	5.91
495.371	5.92
495.572	5.94
495.773	5.99
495.973	5.97
496.174	6.01
496.375	6.03
496.575	6.02
496.776	6.02
496.976	6.07
497.177	6.12
497.377	6.1
497.578	6.14
497.778	6.14
497.979	6.13
498.179	6.2
498.38	6.19
498.58	6.18
498.78	6.19
498.981	6.22
499.181	6.21
499.382	6.19
499.582	6.25
499.782	6.25
499.983	6.24
500.183	6.27
500.383	6.24
500.584	6.27
500.784	6.26
500.984	6.25
501.184	6.23
501.385	6.22
501.585	6.26
501.785	6.25
501.985	6.27
502.185	6.27
502.386	6.28
502.586	6.31
502.786	6.34
502.986	6.38
503.186	6.42
503.386	6.47
503.586	6.51
503.786	6.49
503.987	6.49
504.187	6.52
504.387	6.6
504.587	6.6
504.787	6.59
504.987	6.59
505.187	6.61
505.387	6.63
505.587	6.62
505.786	6.67
505.986	6.7
506.186	6.69
506.386	6.69
506.586	6.69
506.786	6.74
506.986	6.76
507.186	6.76
507.386	6.78
507.585	6.79
507.785	6.84
507.985	6.84
508.185	6.9
508.384	6.95
508.584	6.98
508.784	7
508.984	7
509.183	7.05
509.383	7.12
509.583	7.16
509.782	7.2
509.982	7.23
510.182	7.28
510.381	7.26
510.581	7.3
510.781	7.34
510.98	7.38
511.18	7.39
511.379	7.42
511.579	7.44
511.778	7.42
511.978	7.46
512.177	7.45
512.377	7.46
512.576	7.53
512.776	7.6
512.975	7.6
513.175	7.61
513.374	7.7
513.573	7.7
513.773	7.76
513.972	7.82
514.172	7.84
514.371	7.94
514.57	7.93
514.77	7.94
514.969	7.9
515.168	7.96
515.367	8
515.567	8
515.766	8.05
515.965	8.07
516.164	8.12
516.364	8.15
516.563	8.17
516.762	8.26
516.961	8.31
517.16	8.37
517.359	8.41
517.559	8.48
517.758	8.51
517.957	8.57
518.156	8.64
518.355	8.67
518.554	8.72
518.753	8.73
518.952	8.77
519.151	8.81
519.35	8.86
519.549	8.87
519.748	8.89
519.947	8.94
520.146	8.94
520.345	8.95
520.544	8.97
520.743	9.01
520.942	9.01
521.141	9.05
521.339	9.06
521.538	9.07
521.737	9.16
521.936	9.17
522.135	9.21
522.333	9.26
522.532	9.29
522.731	9.35
522.93	9.38
523.129	9.42
523.327	9.41
523.526	9.46
523.725	9.48
523.923	9.49
524.122	9.53
524.321	9.55
524.519	9.55
524.718	9.57
524.917	9.58
525.115	9.59
525.314	9.62
525.512	9.65
525.711	9.69
525.909	9.71
526.108	9.71
526.306	9.71
526.505	9.72
526.703	9.77
526.902	9.84
527.1	9.9
527.299	9.95
527.497	9.99
527.696	10.03
527.894	10.05
528.092	10.09
528.291	10.12
528.489	10.16
528.688	10.2
528.886	10.22
529.084	10.2
529.283	10.19
529.481	10.21
529.679	10.2
529.877	10.21
530.076	10.21
530.274	10.25
530.472	10.31
530.67	10.33
530.869	10.35
531.067	10.39
531.265	10.43
531.463	10.47
531.661	10.5
531.859	10.59
532.057	10.67
532.255	10.71
532.454	10.73
532.652	10.74
532.85	10.75
533.048	10.79
533.246	10.79
533.444	10.82
533.642	10.82
533.84	10.84
534.038	10.8
534.236	10.8
534.434	10.81
534.632	10.83
534.83	10.83
535.027	10.9
535.225	10.94
535.423	11.01
535.621	11.05
535.819	11.11
536.017	11.14
536.215	11.18
536.412	11.2
536.61	11.21
536.808	11.24
537.006	11.26
537.203	11.25
537.401	11.25
537.599	11.21
537.797	11.21
537.994	11.21
538.192	11.24
538.39	11.28
538.587	11.27
538.785	11.27
538.983	11.29
539.18	11.31
539.378	11.35
539.575	11.4
539.773	11.5
539.97	11.55
540.168	11.56
540.366	11.6
540.563	11.6
540.761	11.63
540.958	11.7
541.155	11.71
541.353	11.75
541.55	11.77
541.748	11.8
541.945	11.81
542.143	11.79
542.34	11.83
542.537	11.84
542.735	11.88
542.932	11.92
543.129	11.93
543.327	11.98
543.524	12.02
543.721	12.04
543.919	12.04
544.116	12.03
544.313	12.09
544.51	12.1
544.708	12.14
544.905	12.17
545.102	12.19
545.299	12.2
545.496	12.23
545.693	12.24
545.891	12.26
546.088	12.29
546.285	12.29
546.482	12.3
546.679	12.33
546.876	12.32
547.073	12.31
547.27	12.33
547.467	12.37
547.664	12.34
547.861	12.39
548.058	12.4
548.255	12.41
548.452	12.43
548.649	12.44
548.846	12.47
549.043	12.48
549.24	12.51
549.437	12.5
549.633	12.48
549.83	12.5
550.027	12.46
550.224	12.48
550.421	12.55
550.618	12.6
550.814	12.67
551.011	12.67
551.208	12.77
551.405	12.78
551.601	12.86
551.798	12.88
551.995	12.91
552.191	12.93
552.388	12.92
552.585	12.94
552.781	12.93
552.978	12.95
553.175	12.95
553.371	12.88
553.568	12.86
553.764	12.8
553.961	12.9
554.157	12.94
554.354	12.96
554.55	13.04
554.747	13.04
554.943	13.07
555.14	13.06
555.336	13.12
555.533	13.19
555.729	13.22
555.926	13.28
556.122	13.21
556.318	13.22
556.515	13.27
556.711	13.29
556.907	13.24
557.104	13.27
557.3	13.3
557.496	13.28
557.693	13.3
557.889	13.4
558.085	13.4
558.281	13.43
558.478	13.41
558.674	13.45
558.87	13.41
559.066	13.47
559.262	13.49
559.459	13.5
559.655	13.54
559.851	13.51
560.047	13.51
560.243	13.53
560.439	13.56
560.635	13.57
560.831	13.5
561.027	13.5
561.223	13.52
561.419	13.54
561.615	13.52
561.811	13.51
562.007	13.57
562.203	13.58
562.399	13.61
562.595	13.62
562.791	13.64
562.987	13.71
563.183	13.75
563.379	13.73
563.575	13.78
563.771	13.81
563.966	13.83
564.162	13.84
564.358	13.82
564.554	13.84
564.75	13.9
564.945	13.91
565.141	13.93
565.337	13.96
565.533	13.99
565.728	13.99
565.924	13.98
566.12	13.98
566.315	14.01
566.511	14.01
566.707	13.98
566.902	13.92
567.098	13.95
567.293	13.93
567.489	13.92
567.684	13.95
567.88	13.95
568.076	13.98
568.271	13.93
568.467	13.9
568.662	13.91
568.858	13.93
569.053	13.97
569.248	13.98
569.444	13.97
569.639	13.98
569.835	14.01
570.03	14.01
570.225	13.99
570.421	14.06
570.616	14.09
570.812	14.12
571.007	14.08
571.202	14.11
571.397	14.07
571.593	14.11
571.788	14.14
571.983	14.15
572.178	14.14
572.374	14.19
572.569	14.21
572.764	14.21
572.959	14.2
573.154	14.24
573.35	14.26
573.545	14.28
573.74	14.2
573.935	14.18
574.13	14.17
574.325	14.19
574.52	14.17
574.715	14.16
574.91	14.13
575.105	14.16
575.3	14.16
575.495	14.16
575.69	14.24
575.885	14.35
576.08	14.39
576.275	14.39
576.47	14.39
576.665	14.42
576.86	14.43
577.055	14.5
577.25	14.53
577.444	14.58
577.639	14.61
577.834	14.55
578.029	14.59
578.224	14.61
578.418	14.6
578.613	14.63
578.808	14.66
579.003	14.7
579.197	14.72
579.392	14.73
579.587	14.71
579.781	14.6
579.976	14.64
580.171	14.62
580.365	14.61
580.56	14.65
580.755	14.65
580.949	14.61
581.144	14.57
581.338	14.51
581.533	14.48
581.727	14.51
581.922	14.56
582.116	14.6
582.311	14.58
582.505	14.55
582.7	14.5
582.894	14.57
583.089	14.6
583.283	14.65
583.478	14.65
583.672	14.71
583.866	14.69
584.061	14.68
584.255	14.63
584.449	14.6
584.644	14.6
584.838	14.63
585.032	14.56
585.226	14.51
585.421	14.48
585.615	14.56
585.809	14.49
586.003	14.45
586.198	14.53
586.392	14.55
586.586	14.58
586.78	14.59
586.974	14.69
587.168	14.77
587.363	14.79
587.557	14.85
587.751	14.86
587.945	14.86
588.139	14.93
588.333	14.89
588.527	14.89
588.721	14.88
588.915	14.88
589.109	14.79
589.303	14.71
589.497	14.75
589.691	14.7
589.885	14.67
590.079	14.75
590.273	14.73
590.466	14.8
590.66	14.85
590.854	14.87
591.048	14.85
591.242	14.89
591.436	14.88
591.629	14.86
591.823	14.82
592.017	14.88
592.211	14.84
592.404	14.87
592.598	14.84
592.792	14.8
592.986	14.81
593.179	14.85
593.373	14.8
593.567	14.84
593.76	14.84
593.954	14.87
594.147	14.85
594.341	14.93
594.535	14.93
594.728	14.92
594.922	14.98
595.115	14.96
595.309	14.99
595.502	15.02
595.696	15
595.889	15.02
596.083	15.03
596.276	15
596.47	14.95
596.663	14.95
596.856	14.93
597.05	14.91
597.243	14.9
597.437	14.95
597.63	14.98
597.823	15.04
598.017	15.06
598.21	15.07
598.403	15.1
598.596	15.11
598.79	15.09
598.983	15.13
599.176	15.07
599.369	15.09
599.563	15.03
599.756	15.04
599.949	14.99
600.142	14.94
600.335	14.98
600.528	14.99
600.722	14.96
600.915	14.97
601.108	14.93
601.301	14.98
601.494	14.96
601.687	14.9
601.88	14.9
602.073	14.94
602.266	14.96
602.459	14.99
602.652	14.96
602.845	14.99
603.038	15.01
603.231	15.02
603.424	15.06
603.617	15.08
603.809	15.08
604.002	15.1
604.195	15.07
604.388	15.06
604.581	14.95
604.774	14.98
604.966	14.97
605.159	14.94
605.352	15.02
605.545	14.99
605.737	15
605.93	14.98
606.123	14.91
606.316	14.92
606.508	14.95
606.701	15.09
606.894	15.08
607.086	15.07
607.279	15.07
607.471	15.08
607.664	15.13
607.857	15.2
608.049	15.26
608.242	15.36
608.434	15.38
608.627	15.41
608.819	15.37
609.012	15.44
609.204	15.5
609.397	15.52
609.589	15.46
609.782	15.47
609.974	15.47
610.166	15.52
610.359	15.47
610.551	15.5
610.743	15.48
610.936	15.54
611.128	15.53
611.32	15.48
611.513	15.48
611.705	15.61
611.897	15.58
612.09	15.53
612.282	15.54
612.474	15.45
612.666	15.52
612.858	15.47
613.051	15.46
613.243	15.45
613.435	15.47
613.627	15.6
613.819	15.48
614.011	15.51
614.203	15.45
614.395	15.29
614.588	15.4
614.78	15.25
614.972	15.25
615.164	15.1
615.356	15.01
615.548	15.04
615.74	14.92
615.932	14.92
616.124	14.89
616.315	14.96
616.507	15.04
616.699	15.11
616.891	15.19
617.083	15.22
617.275	15.36
617.467	15.37
617.659	15.25
617.85	15.27
618.042	15.3
618.234	15.32
618.426	15.31
618.618	15.34
618.809	15.24
619.001	15.18
619.193	15.22
619.384	15.13
619.576	15.25
619.768	15.35
619.959	15.32
620.151	15.29
620.343	15.23
620.534	15.27
620.726	15.27
620.917	15.37
621.109	15.39
621.301	15.42
621.492	15.5
621.684	15.32
621.875	15.29
622.067	15.27
622.258	15.33
622.45	15.4
622.641	15.37
622.832	15.41
623.024	15.37
623.215	15.41
623.407	15.37
623.598	15.39
623.789	15.47
623.981	15.44
624.172	15.58
624.363	15.53
624.555	15.5
624.746	15.54
624.937	15.54
625.129	15.46
625.32	15.39
625.511	15.38
625.702	15.33
625.893	15.36
626.085	15.44
626.276	15.45
626.467	15.5
626.658	15.56
626.849	15.48
627.04	15.44
627.231	15.44
627.422	15.62
627.614	15.68
627.805	15.71
627.996	15.7
628.187	15.68
628.378	15.6
628.569	15.55
628.76	15.49
628.951	15.56
629.142	15.59
629.332	15.67
629.523	15.61
629.714	15.52
629.905	15.57
630.096	15.51
630.287	15.56
630.478	15.59
630.669	15.64
630.859	15.61
631.05	15.6
631.241	15.61
631.432	15.57
631.623	15.56
631.813	15.6
632.004	15.51
632.195	15.6
632.385	15.58
632.576	15.56
632.767	15.59
632.957	15.65
633.148	15.63
633.339	15.62
633.529	15.7
633.72	15.66
633.91	15.63
634.101	15.75
634.292	15.71
634.482	15.65
634.673	15.67
634.863	15.6
635.054	15.59
635.244	15.5
635.435	15.54
635.625	15.59
635.815	15.62
636.006	15.61
636.196	15.54
636.387	15.52
636.577	15.53
636.767	15.48
636.958	15.45
637.148	15.41
637.338	15.5
637.529	15.53
637.719	15.41
637.909	15.4
638.099	15.44
638.29	15.39
638.48	15.55
638.67	15.6
638.86	15.69
639.05	15.75
639.241	15.85
639.431	15.89
639.621	15.82
639.811	15.85
640.001	15.78
640.191	15.82
640.381	15.82
640.571	15.67
640.761	15.62
640.951	15.52
641.141	15.51
641.331	15.43
641.521	15.39
641.711	15.47
641.901	15.44
642.091	15.58
642.281	15.54
642.471	15.56
642.661	15.59
642.851	15.68
643.041	15.77
643.231	15.84
643.42	15.89
643.61	15.89
643.8	15.79
643.99	15.91
644.18	15.81
644.369	15.82
644.559	15.95
644.749	15.94
644.939	15.89
645.128	15.78
645.318	15.67
645.508	15.66
645.697	15.69
645.887	15.78
646.076	15.71
646.266	15.81
646.456	15.75
646.645	15.61
646.835	15.56
647.024	15.61
647.214	15.68
647.403	15.71
647.593	15.75
647.782	15.83
647.972	15.85
648.161	15.77
648.351	15.75
648.54	15.8
648.73	15.84
648.919	15.98
649.108	15.92
649.298	15.87
649.487	15.98
649.677	15.89
649.866	15.8
650.055	15.77
650.244	15.88
650.434	15.86
650.623	15.96
650.812	16
651.002	15.85
651.191	15.86
651.38	15.91
651.569	15.82
651.758	15.87
651.947	15.85
652.137	15.84
652.326	15.85
652.515	15.82
652.704	15.74
652.893	15.76
653.082	15.84
653.271	15.86
653.46	15.88
653.649	15.9
653.838	15.87
654.027	15.88
654.216	15.8
654.405	15.77
654.594	15.85
654.783	15.83
654.972	15.81
655.161	15.83
655.35	15.87
655.539	15.82
655.728	15.81
655.916	15.82
656.105	15.87
656.294	15.92
656.483	15.82
656.672	15.77
656.86	15.8
657.049	15.8
657.238	15.75
657.427	15.69
657.615	15.72
657.804	15.77
657.993	15.77
658.181	15.73
658.37	15.75
658.559	15.79
658.747	15.78
658.936	15.8
659.125	15.66
659.313	15.77
659.502	15.75
659.69	15.75
659.879	15.71
660.067	15.76
660.256	15.8
660.444	15.86
660.633	15.86
660.821	15.87
661.01	15.86
661.198	15.99
661.387	15.89
661.575	15.98
661.763	16.1
661.952	16.08
662.14	16.01
662.328	16.03
662.517	15.97
662.705	15.99
662.893	16.05
663.082	15.99
663.27	15.97
663.458	15.89
663.646	15.91
663.834	15.77
664.023	15.79
664.211	15.95
664.399	15.88
664.587	15.88
664.775	15.81
664.963	15.77
665.152	15.81
665.34	15.79
665.528	15.95
665.716	15.75
665.904	15.77
666.092	15.83
666.28	15.7
666.468	15.75
666.656	15.69
666.844	15.77
667.032	15.81
667.22	15.86
667.408	15.92
667.596	15.85
667.784	16.03
667.971	16.05
668.159	16.07
668.347	16.02
668.535	16.03
668.723	16
668.911	16.01
669.098	15.95
669.286	15.87
669.474	15.95
669.662	16.01
669.849	16.05
670.037	15.99
670.225	15.83
670.413	15.98
670.6	15.97
670.788	16.07
670.976	16.02
671.163	16.05
671.351	16.12
671.538	16.07
671.726	16.09
671.913	16.05
672.101	16.11
672.289	16.22
672.476	16.29
672.664	16.28
672.851	16.31
673.039	16.27
673.226	16.17
673.413	16.19
673.601	16.13
673.788	16
673.976	15.93
674.163	15.93
674.35	15.92
674.538	15.77
674.725	15.84
674.912	15.7
675.1	15.74
675.287	15.71
675.474	15.7
675.662	15.95
675.849	16.08
676.036	16.21
676.223	16.28
676.411	16.26
676.598	16.28
676.785	16.23
676.972	16.43
677.159	16.52
677.346	16.63
677.533	16.67
677.721	16.52
677.908	16.5
678.095	16.46
678.282	16.48
678.469	16.5
678.656	16.55
678.843	16.62
679.03	16.5
679.217	16.49
679.404	16.44
679.591	16.45
679.778	16.44
679.964	16.36
680.151	16.38
680.338	16.37
680.525	16.42
680.712	16.44
680.899	16.43
681.086	16.44
681.272	16.32
681.459	16.41
681.646	16.36
681.833	16.25
682.02	16.28
682.206	16.21
682.393	16.14
682.58	16.09
682.766	15.99
682.953	15.83
683.14	15.98
683.326	16.2
683.513	16.22
683.7	16.23
683.886	16.35
684.073	16.33
684.259	16.4
684.446	16.51
684.632	16.58
684.819	16.55
685.005	16.78
685.192	16.72
685.378	16.61
685.565	16.5
685.751	16.53
685.938	16.43
686.124	16.48
686.31	16.49
686.497	16.46
686.683	16.54
686.87	16.58
687.056	16.39
687.242	16.44
687.429	16.51
687.615	16.43
687.801	16.46
687.987	16.48
688.174	16.39
688.36	16.37
688.546	16.42
688.732	16.35
688.918	16.5
689.105	16.65
689.291	16.55
689.477	16.56
689.663	16.72
689.849	16.76
690.035	17
690.221	17.2
690.407	17.16
690.593	17.02
690.779	17.11
690.965	16.93
691.151	16.87
691.337	17.07
691.523	16.99
691.709	17
691.895	17.01
692.081	16.87
692.267	16.97
692.453	16.96
692.639	16.97
692.825	17.03
693.011	17.12
693.196	17.03
693.382	16.86
693.568	16.8
693.754	16.79
693.94	16.71
694.125	16.64
694.311	16.53
694.497	16.64
694.682	16.63
694.868	16.46
695.054	16.44
695.239	16.47
695.425	16.41
695.611	16.53
695.796	16.56
695.982	16.65
696.168	16.7
696.353	16.69
696.539	16.54
696.724	16.62
696.91	16.72
697.095	16.75
697.281	16.86
697.466	16.88
697.652	16.76
697.837	16.81
698.023	16.78
698.208	16.77
698.393	16.79
698.579	16.83
698.764	16.8
698.949	16.74
699.135	16.67
699.32	16.64
699.505	16.6
699.691	16.63
699.876	16.46
700.061	16.37
700.246	16.38
700.432	16.18
700.617	16.21
700.802	16.3
700.987	16.25
701.172	16.18
701.358	16.11
701.543	16.29
701.728	16.4
701.913	16.47
702.098	16.61
702.283	16.59
702.468	16.66
702.653	16.45
702.838	16.46
703.023	16.61
703.208	16.82
703.393	16.93
703.578	16.84
703.763	16.82
703.948	16.99
704.133	16.83
704.318	16.79
704.503	17.03
704.688	17.4
704.873	17.37
705.057	17.28
705.242	17.13
705.427	16.87
705.612	16.79
705.797	16.86
705.981	16.71
706.166	16.78
706.351	16.76
706.536	16.67
706.72	16.44
706.905	16.33
707.09	16.26
707.274	16.24
707.459	16.27
707.644	16.41
707.828	16.37
708.013	16.46
708.197	16.47
708.382	16.55
708.567	16.48
708.751	16.61
708.936	16.65
709.12	16.89
709.305	16.97
709.489	17.07
709.673	16.74
709.858	16.71
710.042	16.64
710.227	16.58
710.411	16.48
710.596	16.64
710.78	16.54
710.964	16.57
711.149	16.4
711.333	16.45
711.517	16.47
711.702	16.83
711.886	16.87
712.07	16.83
712.254	16.99
712.438	17.12
712.623	17.16
712.807	17.32
712.991	17.18
713.175	17.09
713.359	17.12
713.544	17.27
713.728	17.29
713.912	17.21
714.096	17.35
714.28	17.25
714.464	17.12
714.648	17.05
714.832	16.96
715.016	16.97
715.2	17.07
715.384	17.12
715.568	16.99
715.752	16.77
715.936	16.89
716.12	16.91
716.304	16.95
716.488	17.13
716.671	17.08
716.855	17.03
717.039	17.19
717.223	17.22
717.407	17.06
717.59	16.94
717.774	17.09
717.958	17.04
718.142	16.97
718.325	17.04
718.509	16.94
718.693	16.89
718.877	16.73
719.06	16.65
719.244	16.5
719.428	16.76
719.611	16.92
719.795	16.81
719.978	16.85
720.162	16.7
720.345	16.58
720.529	16.79
720.713	16.86
720.896	17.13
721.08	16.99
721.263	17.04
721.446	16.87
721.63	16.91
721.813	16.91
721.997	17
722.18	17.05
722.364	17.19
722.547	16.97
722.73	16.83
722.914	16.9
723.097	17.11
723.28	17.37
723.464	17.38
723.647	17.39
723.83	17.33
724.013	17.14
724.197	17.37
724.38	17.31
724.563	17.21
724.746	17.38
724.929	17.4
725.112	17.2
725.296	16.92
725.479	16.97
725.662	16.75
725.845	16.77
726.028	16.73
726.211	16.61
726.394	16.74
726.577	16.87
726.76	16.68
726.943	16.65
727.126	16.75
727.309	16.76
727.492	16.73
727.675	16.91
727.858	16.79
728.041	16.9
728.224	16.86
728.407	16.72
728.589	16.8
728.772	17.07
728.955	17.15
729.138	17.17
729.321	17.18
729.503	17.43
729.686	17.38
729.869	17.53
730.052	17.41
730.234	17.36
730.417	17.45
730.6	17.27
730.782	17.11
730.965	17.02
731.148	17.04
731.33	17.05
731.513	16.71
731.695	16.71
731.878	16.79
732.061	16.95
732.243	17.02
732.426	16.98
732.608	17.16
732.791	17
732.973	17.07
733.156	17
733.338	17.13
733.52	17.12
733.703	17.05
733.885	17.09
734.068	16.85
734.25	16.88
734.432	16.9
734.615	16.98
734.797	16.96
734.979	16.86
735.162	16.93
735.344	16.84
735.526	16.94
735.708	16.96
735.891	17.01
736.073	17.26
736.255	17.32
736.437	17.26
736.619	16.83
736.802	17.06
736.984	17.16
737.166	17.25
737.348	17.28
737.53	17.15
737.712	17.38
737.894	17.39
738.076	17.47
738.258	17.42
738.44	17.44
738.622	17.61
738.804	17.72
738.986	17.58
739.168	17.68
739.35	17.85
739.532	18.01
739.714	17.63
739.896	17.43
740.078	17.27
740.259	17.41
740.441	17.45
740.623	17.62
740.805	17.41
740.987	17.53
741.168	17.31
741.35	16.87
741.532	16.99
741.714	17.23
741.895	17.59
742.077	17.53
742.259	17.36
742.44	17.28
742.622	17.29
742.804	17.34
742.985	17.09
743.167	17.27
743.348	17.53
743.53	17.47
743.711	17.51
743.893	17.06
744.075	17.21
744.256	17.01
744.438	17.09
744.619	17
744.8	17.04
744.982	17.17
745.163	17.3
745.345	17.29
745.526	17.35
745.707	17.5
745.889	17.45
746.07	17.19
746.252	17.45
746.433	17.67
746.614	17.64
746.795	17.78
746.977	17.91
747.158	17.63
747.339	17.39
747.52	17.28
747.702	17.14
747.883	17.26
748.064	17.43
748.245	17.45
748.426	16.91
748.607	17.11
748.788	16.77
748.97	16.47
749.151	16.95
749.332	17.29
749.513	17.47
749.694	17.63
749.875	17.81
750.056	17.78
750.237	17.78
750.418	18.11
750.599	17.93
750.78	18.07
750.96	18.25
751.141	18.2
751.322	18.35
751.503	18.13
751.684	18.15
751.865	18.28
752.046	18.34
752.226	18.08
752.407	18.11
752.588	18.23
752.769	18.46
752.949	18.57
753.13	17.95
753.311	17.75
753.492	17.47
753.672	17.3
753.853	16.92
754.034	16.83
754.214	17.41
754.395	17.16
754.575	17.27
754.756	16.93
754.937	16.88
755.117	17.19
755.298	17.31
755.478	17.58
755.659	17.92
755.839	18.19
756.02	18.51
756.2	17.63
756.381	17.39
756.561	16.99
756.741	17.2
756.922	17.15
757.102	17.07
757.283	16.94
757.463	17.09
757.643	16.86
757.823	16.89
758.004	16.38
758.184	17.18
758.364	17.38
758.545	17.71
758.725	17.71
758.905	17.75
759.085	17.92
759.265	17.98
759.446	17.59
759.626	17.43
759.806	17.36
759.986	17.73
760.166	17.51
760.346	17.54
760.526	17.34
760.706	17.61
760.886	17.4
761.066	17.51
761.246	17.46
761.426	17.58
761.606	17.35
761.786	17.33
761.966	17.49
762.146	17.42
762.326	17.62
762.506	17.75
762.686	17.58
762.866	17.59
763.046	17.47
763.225	17.58
763.405	17.56
763.585	17.87
763.765	17.83
763.945	17.53
764.124	17.35
764.304	17.14
764.484	17.14
764.664	17.28
764.843	17.48
765.023	17.48
765.203	17.42
765.382	17.61
765.562	17.62
765.741	17.89
765.921	18.04
766.101	18.5
766.28	18.62
766.46	18.49
766.639	18.24
766.819	17.64
766.998	17.52
767.178	17.43
767.357	17.4
767.537	17.22
767.716	16.96
767.896	17.06
768.075	16.91
768.254	16.91
768.434	16.87
768.613	16.52
768.792	17.15
768.972	17.34
769.151	17.37
769.33	17.38
769.51	17.46
769.689	17.28
769.868	17.36
770.047	17.08
770.226	17.37
770.406	17.42
770.585	17.72
770.764	17.64
770.943	17.58
771.122	17.41
771.301	17.51
771.48	17.43
771.66	17.54
771.839	17.35
772.018	17.67
772.197	17.77
772.376	17.81
772.555	17.99
772.734	18.22
772.913	18.3
773.092	18.51
773.271	18.4
773.449	18.37
773.628	18.8
773.807	18.88
773.986	18.49
774.165	18.15
774.344	18.35
774.523	18.23
774.701	17.92
774.88	17.89
775.059	17.98
775.238	17.96
775.417	17.99
775.595	17.48
775.774	17.8
775.953	18.32
776.131	17.99
776.31	17.72
776.489	17.6
776.667	17.77
776.846	18.08
777.025	18.21
777.203	18.33
777.382	18.38
777.56	18.31
777.739	17.94
777.917	17.66
778.096	17.97
778.274	18.18
778.453	18.5
778.631	18.28
778.81	17.79
778.988	17.43
779.166	17.49
779.345	17.56
779.523	17.69
779.702	17.59
779.88	17.73
780.058	17.75
780.237	17.54
780.415	17.71
780.593	17.98
780.771	18.45
780.95	18.37
781.128	18.28
781.306	18.49
781.484	18.75
781.662	19.12
781.841	18.82
782.019	18.92
782.197	19.13
782.375	19.09
782.553	19.12
782.731	19.29
782.909	19.76
783.087	19.82
783.265	19.9
783.443	19.77
783.621	19.4
783.799	19.71
783.977	19.54
784.155	19.46
784.333	19.42
784.511	19.23
784.689	18.51
784.867	18.52
785.045	18.2
785.223	17.66
785.4	17.62
785.578	17.64
785.756	17.89
785.934	17.75
786.112	17.15
786.289	16.74
786.467	16.74
786.645	17.28
786.823	16.87
787	17.03
787.178	17.08
787.356	17.22
787.533	17.17
787.711	17.07
787.889	17.76
788.066	18.37
788.244	18.75
788.421	18.96
788.599	18.56
788.776	18.77
788.954	19.04
789.131	19.29
789.309	19.23
789.486	19.16
789.664	19.32
789.841	18.77
790.019	18.22
790.196	18.54
790.373	18.14
790.551	17.89
790.728	17.93
790.906	17.48
791.083	17.12
791.26	16.97
791.437	16.9
791.615	16.49
791.792	16.49
791.969	16.52
792.146	15.96
792.324	16.69
792.501	17.24
792.678	16.9
792.855	16.78
793.032	16.82
793.209	17.09
793.387	17.58
793.564	17.48
793.741	17.73
793.918	18
794.095	18.24
794.272	18.28
794.449	18
794.626	18.27
794.803	18.21
794.98	18.34
795.157	18.4
795.334	18.3
795.511	18.2
795.688	17.79
795.864	18.24
796.041	17.95
796.218	17.23
796.395	17.59
796.572	17.78
796.749	17.63
796.925	17.78
797.102	17.8
797.279	17.68
797.456	17.92
797.632	17.98
797.809	17.85
797.986	18.17
798.162	18.82
798.339	18.65
798.516	18.06
798.692	18.39
798.869	18.22
799.046	17.94
799.222	17.9
799.399	17.8
799.575	18.12
799.752	17.54
799.928	17.25
800.105	16.88
800.281	17.01
800.458	17.71
800.634	18.06
800.811	18.01
800.987	18.22
801.163	17.85
801.34	18.18
801.516	18.06
801.692	18.37
801.869	18.6
802.045	18.88
802.221	18.42
802.398	17.98
802.574	18.05
802.75	18.2
802.926	18.41
803.103	18.49
803.279	18.22
803.455	18.12
803.631	18.48
803.807	17.94
803.983	17.34
804.16	17.34
804.336	17.16
804.512	16.85
804.688	17.32
804.864	17.1
805.04	17.88
805.216	17.34
805.392	16.98
805.568	16.67
805.744	17.86
805.92	18.37
806.096	18.04
806.272	18.34
806.448	18.35
806.623	17.38
806.799	17.27
806.975	17.34
807.151	17.93
807.327	18.11
807.503	18.73
807.678	17.63
807.854	17.83
808.03	18.25
808.206	18.01
808.381	17.81
808.557	17.95
808.733	17.93
808.908	17.49
809.084	17.63
809.26	17.71
809.435	17.29
809.611	17.47
809.787	17.18
809.962	16.99
810.138	16.86
810.313	16.84
810.489	17.16
810.664	16.81
810.84	16.79
811.015	17
811.191	17.16
811.366	16.57
811.542	16.79
811.717	16.61
811.892	17.56
812.068	18.11
812.243	18.66
812.419	18.5
812.594	18.76
812.769	19.37
812.944	19.12
813.12	19.05
813.295	19.93
813.47	20.25
813.645	19.95
813.821	19.2
813.996	19.62
814.171	19.28
814.346	19.41
814.521	19.19
814.697	18.18
814.872	18.85
815.047	19.03
815.222	18.46
815.397	18.16
815.572	18.39
815.747	18.86
815.922	17.73
816.097	17.69
816.272	17.6
816.447	17.85
816.622	18.28
816.797	17.28
816.972	17.45
817.147	17.37
817.322	17.45
817.496	17.79
817.671	17.69
817.846	17.75
818.021	17.52
818.196	17.79
818.371	18.13
818.545	18.23
818.72	18.73
818.895	18.81
819.069	19.23
819.244	19.6
819.419	19.42
819.594	19.67
819.768	19.87
819.943	19.97
820.117	19.59
820.292	19.38
820.467	19.18
820.641	19.17
820.816	19.11
820.99	19.05
821.165	19
821.339	19.23
821.514	19.03
821.688	18.95
821.863	18.92
822.037	19.02
822.212	19.04
822.386	19.05
822.56	19.02
822.735	19.03
822.909	19.02
823.084	18.85
823.258	18.75
823.432	18.82
823.606	18.82
823.781	18.89
823.955	18.88
824.129	18.98
824.303	19.12
824.478	19.15
824.652	19.19
824.826	19
825	19.39
825.174	19.32
825.348	19.07
825.523	19.28
825.697	18.9
825.871	19.06
826.045	19.09
826.219	19.11
826.393	19.21
826.567	19.12
826.741	19.31
826.915	19.06
827.089	19.07
827.263	19.14
827.437	19.07
827.611	19.32
827.784	19.24
827.958	19.17
828.132	19.22
828.306	19.19
828.48	19.27
828.654	19.43
828.827	19.54
829.001	19.62
829.175	19.68
829.349	20.01
829.522	20.27
829.696	20.07
829.87	19.7
830.044	19.9
830.217	19.56
830.391	19.64
830.565	19.81
830.738	19.26
830.912	18.9
831.085	18.85
831.259	18.35
831.432	18.09
831.606	17.76
831.779	18.11
831.953	17.89
832.126	17.88
832.3	18.19
832.473	18.26
832.647	18.62
832.82	19.32
832.994	19.53
833.167	19.38
833.34	19.58
833.514	19.95
833.687	19.74
833.86	19.46
834.034	19.87
834.207	19.57
834.38	19.2
834.553	19.18
834.727	18.67
834.9	19.09
835.073	19.02
835.246	18.62
835.419	18.67
835.593	19.26
835.766	19.36
835.939	18.81
836.112	18.89
836.285	18.76
836.458	18.8
836.631	18.58
836.804	17.92
836.977	18.23
837.15	18.93
837.323	18.44
837.496	17.07
837.669	17.08
837.842	17.93
838.015	18.05
838.188	18.72
838.361	18.45
838.533	18.66
838.706	17.84
838.879	18.77
839.052	17.82
839.225	18.94
839.398	20.16
839.57	19.9
839.743	18.39
839.916	18.84
840.088	18.67
840.261	19.44
840.434	20.07
840.607	20.75
840.779	19.95
840.952	20.23
841.124	19.11
841.297	18.81
841.47	18.84
841.642	19.39
841.815	18.33
841.987	18.08
842.16	17.55
842.332	16.77
842.505	16.57
842.677	16.62
842.85	16.67
843.022	16.75
843.194	16.78
843.367	17.82
843.539	17.66
843.712	18.16
843.884	17.97
844.056	17.66
844.229	18.14
844.401	17.62
844.573	18.72
844.745	18.85
844.918	19.03
845.09	18.62
845.262	18.22
845.434	18.86
845.606	17.04
845.779	17.18
845.951	17.27
846.123	16.85
846.295	15.76
846.467	14.6
846.639	13.97
846.811	14.33
846.983	13.46
847.155	13.15
847.327	13.58
847.499	14.34
847.671	14.53
847.843	13.52
848.015	12.61
848.187	15.92
848.359	15.97
848.531	16.83
848.703	15.9
848.875	18.32
849.047	19.56
849.218	19.03
849.39	18.95
849.562	19.39
849.734	18.74
849.905	19.6
850.077	18.11
850.249	17.66
850.421	17.98
850.592	17.53
850.764	15.22
850.936	14.34
851.107	14.46
851.279	16.92
851.451	16.69
851.622	19.13
851.794	19.51
851.965	21.07
852.137	21.36
852.308	19.92
852.48	22.52
852.651	23.11
852.823	22.8
852.994	24.22
853.166	23.09
853.337	24.18
853.509	22.7
853.68	22.99
853.851	21.86
854.023	21.07
854.194	21.99
854.365	19.07
854.537	19.86
854.708	19.81
854.879	18.16
855.05	18.21
855.222	17.24
855.393	17.09
855.564	16.41
855.735	16.45
855.906	18.1
856.078	17.89
856.249	18.21
856.42	16.02
856.591	17.4
856.762	18.42
856.933	17.12
857.104	15.59
857.275	15.85
857.446	15.76
857.617	14.63
857.788	13.55
857.959	13.8
858.13	14.78
858.301	16.09
858.472	14.09
858.643	12.56
858.814	13.2
858.985	15.15
859.155	14.82
859.326	18.22
859.497	20.1
859.668	19.5
859.839	21.63
860.009	21.21
860.18	20.07
860.351	21.74
860.522	22.58
860.692	21.67
860.863	21.09
861.034	22.58
861.204	19.41
861.375	17.81
861.546	18.75
861.716	15.81
861.887	14.42
862.057	14.44
862.228	13.97
862.398	12.03
862.569	15.74
862.739	16.89
862.91	17.13
863.08	18.1
863.251	17.45
863.421	15.48
863.592	17.4
863.762	19.85
863.932	20.91
864.103	20.13
864.273	21.33
864.443	19.53
864.614	18.6
864.784	16.54
864.954	15.48
865.125	19.11
865.295	20.94
865.465	20.08
865.635	19.54
865.805	20.48
865.976	19.8
866.146	21.05
866.316	18.5
866.486	18.51
866.656	18.88
866.826	16.87
866.996	14.58
867.166	14.61
867.336	14.57
867.506	16.17
867.676	14.17
867.846	15.44
868.016	13.04
868.186	13.1
868.356	12.97
868.526	11.27
868.696	12.55
868.866	13.54
869.036	11.57
869.206	12.84
869.376	10.77
869.545	12.16
869.715	11.6
869.885	13.83
870.055	15.32
870.224	15.76
870.394	18.06
870.564	21.49
870.734	18.36
870.903	18.76
871.073	17.59
871.243	19.7
871.412	19.41
871.582	20.1
871.751	19.54
871.921	19
872.091	18.16
872.26	16.86
872.43	15.32
872.599	17.31
872.769	20.19
872.938	21.69
873.108	22.16
873.277	22.24
873.446	24.65
873.616	23.62
873.785	23.75
873.955	24.89
874.124	27.43
874.293	27.68
874.463	28.12
874.632	27.03
874.801	25.89
874.971	24.01
875.14	25.28
875.309	21.37
875.478	22.21
875.647	24
875.817	21.36
875.986	17.72
876.155	16.8
876.324	16.26
876.493	16.79
876.662	19.15
876.831	18.55
877	16.64
877.17	19.87
877.339	21.05
877.508	21.95
877.677	23.45
877.846	24.69
878.015	25.09
878.184	25.8
878.352	26.85
878.521	24.03
878.69	23.11
878.859	23.35
879.028	22.73
879.197	21.91
879.366	20.17
879.534	19.54
879.703	19.18
879.872	19.31
880.041	19.94
880.21	19.44
880.378	19.24
880.547	20.28
880.716	20.41
880.884	20.01
881.053	19.92
881.222	19.76
881.39	20.1
881.559	20.7
881.727	20.35
881.896	20.18
882.065	19.76
882.233	20.21
882.402	19.84
882.57	19.79
882.739	19.74
882.907	19.96
883.076	20.38
883.244	20.47
883.412	20.09
883.581	20.13
883.749	20.24
883.918	20.91
884.086	21.06
884.254	21.71
884.423	21.9
884.591	22.37
884.759	21.75
884.927	21.08
885.096	20.39
885.264	20.61
885.432	20.33
885.6	18.72
885.769	17.37
885.937	16.81
886.105	15.01
886.273	14.36
886.441	14.14
886.609	15.12
886.777	14.18
886.945	13.88
887.113	13.85
887.281	13.07
887.449	14.78
887.617	15.72
887.785	13.96
887.953	15.53
888.121	14.6
888.289	14.53
888.457	14.49
888.625	16.34
888.793	19.27
888.961	16.46
889.129	17.67
889.296	17.29
889.464	17.19
889.632	19.32
889.8	17.64
889.967	18.85
890.135	18.21
