Data from JASIL_3276_Reflection_2.txt Node
Date: Tue Nov 17 19:08:05 EST 2015
User: Geneva
Spectrometer: USB4E03002
Autoset integration time: false
Trigger mode: 4
Integration Time (sec): 1.000000E-1
Scans to average: 10
Electric dark correction enabled: false
Nonlinearity correction enabled: false
Boxcar width: 5
Stray light correction enabled: false
XAxis mode: Wavelengths
Stop averaging: false
Number of Pixels in Spectrum: 3648
>>>>>Begin Spectral Data<<<<<
177.575	116.18
177.794	52.53
178.014	114.47
178.233	675
178.452	-708.33
178.672	-12.33
178.891	-66.25
179.11	-16.25
179.33	23.68
179.549	2.99
179.768	-64.13
179.987	-82.4
180.207	-320.83
180.426	-107.25
180.645	139.42
180.864	36.5
181.084	48.91
181.303	44.27
181.522	24.4
181.741	28.55
181.96	26.48
182.179	-2.28
182.398	13.9
182.618	12.9
182.837	59.47
183.056	100
183.275	43.97
183.494	38.01
183.713	60.82
183.932	27.3
184.151	28.02
184.37	35.61
184.589	32.11
184.808	32.05
185.027	39.88
185.246	22.45
185.465	-0.54
185.684	-1280
185.903	180.51
186.122	203.19
186.341	130
186.56	168.2
186.779	141.19
186.998	111.19
187.216	115.28
187.435	96.79
187.654	109.24
187.873	172.94
188.092	90.13
188.311	45.86
188.53	52.3
188.748	32.46
188.967	5.91
189.186	-41.9
189.405	-60.24
189.623	-22.95
189.842	-34.98
190.061	-25.86
190.28	-20.22
190.498	-110.67
190.717	2075
190.936	129.13
191.154	131.97
191.373	85.44
191.592	-563.64
191.81	217.27
192.029	-196.15
192.248	840
192.466	47.01
192.685	120.9
192.904	103.04
193.122	81.78
193.341	48.6
193.559	71.87
193.778	129.35
193.996	101.19
194.215	94.98
194.433	168.03
194.652	102.36
194.87	372.94
195.089	201.71
195.307	693.18
195.526	1972.41
195.744	-665.79
195.963	420.43
196.181	202.62
196.399	297.18
196.618	235.99
196.836	306.82
197.055	359.57
197.273	431.55
197.491	451.18
197.71	528.7
197.928	601.37
198.146	89.2
198.365	112.43
198.583	104.01
198.801	77.22
199.019	66.33
199.238	90.84
199.456	74.18
199.674	67.48
199.892	74.63
200.111	71.95
200.329	104.87
200.547	122.84
200.765	163.25
200.983	178.49
201.202	144.55
201.42	208.09
201.638	142.65
201.856	489.8
202.074	-1015.38
202.292	11.76
202.51	914.81
202.728	-91.37
202.946	-171.51
203.165	-67.81
203.383	-22.65
203.601	-365.33
203.819	-56.68
204.037	-10.66
204.255	-35
204.473	24.78
204.691	34.36
204.909	46.41
205.127	38.35
205.345	80
205.562	-14.47
205.78	-86.96
205.998	17.62
206.216	-10.28
206.434	-54.3
206.652	-31.25
206.87	-50
207.088	-51.19
207.306	-40.98
207.523	6.39
207.741	29.33
207.959	54.38
208.177	53.67
208.395	41.98
208.612	51.17
208.83	57.41
209.048	42.44
209.266	45.82
209.483	22.93
209.701	15.18
209.919	5.67
210.136	-28.09
210.354	-29.97
210.572	-34.52
210.79	-28.34
211.007	-10.35
211.225	41.74
211.442	24.12
211.66	42.69
211.878	63.81
212.095	61.87
212.313	69.67
212.53	99.11
212.748	97.41
212.966	105.61
213.183	106.6
213.401	97.63
213.618	83.56
213.836	124.83
214.053	94.12
214.271	69.51
214.488	157.74
214.705	104.29
214.923	79.62
215.14	44.86
215.358	23.98
215.575	54.86
215.793	54.2
216.01	55.73
216.227	55.93
216.445	59.64
216.662	94.96
216.879	79.5
217.097	82.5
217.314	84.07
217.531	101.12
217.749	123.37
217.966	94.9
218.183	80.57
218.4	59.76
218.618	75.5
218.835	82.18
219.052	69.97
219.269	106.11
219.487	91.34
219.704	73.97
219.921	64.78
220.138	46.03
220.355	66.13
220.572	67.34
220.79	83.54
221.007	86.73
221.224	91.42
221.441	77.19
221.658	32.16
221.875	28.88
222.092	14.2
222.309	41.6
222.526	52.2
222.743	20.33
222.96	56.3
223.177	36.44
223.394	14.73
223.611	19.64
223.828	17.76
224.045	12.06
224.262	20.6
224.479	26.58
224.696	11.89
224.913	4.8
225.13	16.09
225.347	8.54
225.564	10.27
225.781	8.21
225.997	18.51
226.214	13.76
226.431	17.33
226.648	20.53
226.865	20.2
227.082	18
227.298	11.32
227.515	9.77
227.732	10.94
227.949	13.65
228.165	14.92
228.382	10.31
228.599	10.61
228.816	5.95
229.032	1.25
229.249	3.52
229.466	12.25
229.682	14.83
229.899	22.91
230.116	20.2
230.332	25.81
230.549	18.71
230.765	19.28
230.982	24.63
231.199	30.47
231.415	29.19
231.632	17.21
231.848	-1.43
232.065	-3.22
232.281	-13.25
232.498	-11.95
232.714	-20.95
232.931	-0.64
233.147	5.63
233.364	6.27
233.58	9.85
233.797	14.22
234.013	22.84
234.23	28.3
234.446	33.07
234.662	37.9
234.879	45.57
235.095	35.14
235.312	21.99
235.528	19.85
235.744	16.29
235.961	18.9
236.177	14.6
236.393	18.83
236.61	14.61
236.826	14.87
237.042	12.52
237.258	15.02
237.475	25.18
237.691	31.85
237.907	20.92
238.123	12.6
238.339	8.32
238.556	6.9
238.772	6.58
238.988	7.32
239.204	6.15
239.42	4.06
239.636	1.43
239.853	-1.58
240.069	-4.71
240.285	1.74
240.501	8.36
240.717	8.81
240.933	8.24
241.149	5.2
241.365	1.61
241.581	1.59
241.797	-0.05
242.013	1.62
242.229	4.92
242.445	6.79
242.661	8.61
242.877	6.59
243.093	9.17
243.309	8.67
243.525	8.62
243.741	13.66
243.957	11.61
244.173	15.01
244.388	11.3
244.604	10.62
244.82	8.84
245.036	7.92
245.252	9.24
245.468	9.73
245.683	9.37
245.899	11.31
246.115	11.18
246.331	11.88
246.547	11.43
246.762	10.77
246.978	11.22
247.194	12.44
247.409	13.56
247.625	14.29
247.841	14.29
248.057	15.49
248.272	15.17
248.488	14.48
248.703	18.31
248.919	20.35
249.135	21.43
249.35	20.63
249.566	19.55
249.782	19.83
249.997	17.01
250.213	14.19
250.428	14.2
250.644	10.01
250.859	11.66
251.075	9.31
251.29	6.36
251.506	7.42
251.721	9.11
251.937	9.1
252.152	3.25
252.368	1.62
252.583	6.73
252.798	7.69
253.014	10.12
253.229	7.5
253.445	8.24
253.66	9.06
253.875	10.16
254.091	7.94
254.306	11.89
254.521	19.58
254.737	21.63
254.952	21.36
255.167	18.37
255.383	22.29
255.598	22.34
255.813	21.25
256.028	18.23
256.244	16.42
256.459	15.97
256.674	13.11
256.889	10.14
257.104	9.58
257.32	9.74
257.535	8.97
257.75	8.87
257.965	8.93
258.18	8.29
258.395	8.35
258.61	8.4
258.826	9.03
259.041	8.42
259.256	9.5
259.471	9.92
259.686	8.89
259.901	9.91
260.116	8.62
260.331	7.69
260.546	7.39
260.761	9.31
260.976	10.58
261.191	7.24
261.406	9.16
261.621	7.34
261.836	6.71
262.05	7.04
262.265	5.27
262.48	5.87
262.695	4.16
262.91	0.78
263.125	-0.68
263.34	-1.4
263.555	-0.06
263.769	-2.72
263.984	1.22
264.199	0.49
264.414	1.48
264.629	2.54
264.843	1.94
265.058	3.82
265.273	6.33
265.488	4.67
265.702	4.01
265.917	7.18
266.132	8.22
266.346	5.25
266.561	7.64
266.776	7.27
266.99	7.18
267.205	5.79
267.42	6.57
267.634	9.04
267.849	10.19
268.063	9.31
268.278	8.69
268.492	9.04
268.707	8.85
268.922	6.05
269.136	4.39
269.351	5.98
269.565	6.35
269.78	7.88
269.994	4.91
270.209	5.38
270.423	6.55
270.637	6.65
270.852	5.65
271.066	7.19
271.281	6.86
271.495	9.36
271.709	6.65
271.924	7.44
272.138	7.08
272.353	7.42
272.567	7.27
272.781	7.46
272.996	6.89
273.21	6.84
273.424	5.66
273.638	7.04
273.853	6.69
274.067	8.85
274.281	9.73
274.495	7.37
274.71	8.98
274.924	11
275.138	10.09
275.352	9.38
275.566	9.92
275.781	9.03
275.995	8.28
276.209	7.06
276.423	7.56
276.637	8.44
276.851	7.87
277.065	6.44
277.279	4.69
277.493	4.88
277.707	5.06
277.921	4.66
278.135	4.18
278.349	6.9
278.563	7.13
278.777	7.37
278.991	4.96
279.205	8.31
279.419	9.01
279.633	7.93
279.847	7.61
280.061	8.47
280.275	9.52
280.489	11.52
280.703	10.44
280.917	9.1
281.131	8.91
281.344	10.4
281.558	8.21
281.772	7.31
281.986	7.58
282.2	6.85
282.414	7.47
282.627	6.87
282.841	5.22
283.055	4.48
283.269	5.96
283.482	5.06
283.696	4.99
283.91	4.68
284.123	4.41
284.337	5.99
284.551	7.38
284.764	5.85
284.978	5.76
285.192	6.77
285.405	6.04
285.619	4.56
285.833	6.1
286.046	5.16
286.26	5.69
286.473	4.99
286.687	2.99
286.9	2.65
287.114	1.79
287.327	1.92
287.541	-0.31
287.754	0.18
287.968	1.26
288.181	-0.35
288.395	0.75
288.608	2
288.822	3.8
289.035	4
289.248	3.25
289.462	3.74
289.675	2.3
289.889	3.41
290.102	3.76
290.315	4.56
290.529	4.54
290.742	4.12
290.955	3.25
291.169	2.84
291.382	2.29
291.595	3.65
291.808	4.3
292.022	6.11
292.235	6.89
292.448	7.59
292.661	6.87
292.875	7.92
293.088	7.86
293.301	7.7
293.514	6.7
293.727	7.72
293.94	6.29
294.153	6.27
294.367	6.78
294.58	4.86
294.793	4.68
295.006	4.02
295.219	2.91
295.432	4.05
295.645	5.16
295.858	6.04
296.071	7.08
296.284	8.1
296.497	8.48
296.71	7.04
296.923	8.37
297.136	8.24
297.349	9.47
297.562	9.07
297.775	8.41
297.988	6.77
298.201	5.99
298.414	5.08
298.626	4.26
298.839	2.61
299.052	2.44
299.265	1.64
299.478	1.56
299.691	-0.01
299.903	0.68
300.116	-0.54
300.329	1.84
300.542	3.14
300.755	3.24
300.967	3.44
301.18	4.61
301.393	5.11
301.605	5.77
301.818	5.41
302.031	5.29
302.243	6.29
302.456	6.92
302.669	6.43
302.881	7.44
303.094	7.3
303.307	6.83
303.519	6.77
303.732	8.38
303.944	8.18
304.157	8.13
304.37	8.32
304.582	7.07
304.795	8.93
305.007	8.13
305.22	7.35
305.432	6.81
305.645	8.7
305.857	9.33
306.069	7.34
306.282	8.06
306.494	8.4
306.707	9.72
306.919	10.32
307.132	8.99
307.344	8.9
307.556	8.05
307.769	6.88
307.981	6.74
308.193	6.69
308.406	7.25
308.618	7.3
308.83	7.45
309.043	7.49
309.255	7.27
309.467	6.38
309.679	6.58
309.892	6.51
310.104	6.96
310.316	5.87
310.528	6.22
310.74	6.13
310.953	5.81
311.165	5.69
311.377	4.4
311.589	5.06
311.801	5.88
312.013	6.18
312.225	6.42
312.437	7.75
312.649	7.8
312.862	6.17
313.074	6.59
313.286	5.63
313.498	6.77
313.71	7.34
313.922	8.17
314.134	9.33
314.346	10.14
314.558	10.3
314.77	8.98
314.982	8.49
315.193	8.64
315.405	7.93
315.617	9.33
315.829	8.41
316.041	8.43
316.253	7.83
316.465	5.92
316.677	6.13
316.888	6.39
317.1	6.5
317.312	6.03
317.524	7.15
317.736	8.81
317.947	8.65
318.159	9.17
318.371	8.96
318.583	9.96
318.794	11.68
319.006	11.26
319.218	10.85
319.43	10.42
319.641	11.67
319.853	10.66
320.064	9.58
320.276	9.67
320.488	8.98
320.699	8.32
320.911	6.67
321.123	4.38
321.334	2.31
321.546	0.84
321.757	1.99
321.969	0.92
322.18	1.34
322.392	1.69
322.603	1.61
322.815	1.67
323.026	3.97
323.238	4.81
323.449	5.49
323.661	7.48
323.872	8.76
324.083	7.73
324.295	8.88
324.506	8.19
324.718	8.92
324.929	8.73
325.14	8.89
325.352	7.54
325.563	7.46
325.774	7.66
325.986	7.58
326.197	8.16
326.408	8.34
326.62	8.39
326.831	10.29
327.042	11.32
327.253	12.91
327.464	13.53
327.676	13.24
327.887	12.11
328.098	12.17
328.309	12.16
328.52	11.44
328.732	12.45
328.943	12.33
329.154	11.61
329.365	10.31
329.576	8.5
329.787	8.64
329.998	9.21
330.209	9.4
330.42	9.18
330.631	8.91
330.842	10.38
331.053	10.38
331.264	11.54
331.475	12.07
331.686	11.85
331.897	13.19
332.108	11.97
332.319	12.18
332.53	12.31
332.741	14.01
332.952	13.17
333.163	13.16
333.374	12.15
333.585	12.1
333.795	11.66
334.006	10.77
334.217	10.32
334.428	11.05
334.639	11.51
334.849	12.11
335.06	10.57
335.271	11.34
335.482	10.01
335.692	11.67
335.903	10.19
336.114	12.01
336.325	12.27
336.535	12.01
336.746	12.73
336.957	12.86
337.167	12.52
337.378	13.3
337.589	13.13
337.799	13.24
338.01	13.57
338.22	13.34
338.431	11.7
338.642	11.49
338.852	11.66
339.063	10.02
339.273	9.25
339.484	10.45
339.694	10.39
339.905	11.36
340.115	13.13
340.326	12.9
340.536	13.38
340.746	13.33
340.957	14.71
341.167	14.26
341.378	14.94
341.588	15.56
341.799	15.47
342.009	15.43
342.219	14.99
342.43	14
342.64	12.67
342.85	13.37
343.061	13.53
343.271	13.47
343.481	14.01
343.691	14.68
343.902	14.22
344.112	12.94
344.322	12.25
344.532	11.86
344.743	10.95
344.953	10.7
345.163	10.08
345.373	10.79
345.583	11.16
345.793	12.1
346.004	11.77
346.214	10.72
346.424	11.31
346.634	11.77
346.844	12.1
347.054	13.22
347.264	13.88
347.474	14.92
347.684	13.98
347.894	12.85
348.104	11.9
348.314	11.34
348.524	11.48
348.734	10.54
348.944	9.23
349.154	9.54
349.364	8.68
349.574	7.39
349.784	6.96
349.994	6.74
350.204	7.56
350.413	7.72
350.623	8.37
350.833	9.41
351.043	9.65
351.253	10.49
351.463	10.26
351.672	11.04
351.882	12.28
352.092	12.37
352.302	13.24
352.511	13.08
352.721	12.18
352.931	11.75
353.141	10.48
353.35	11.33
353.56	13.58
353.77	13.69
353.979	13.25
354.189	13.97
354.399	13.15
354.608	13.45
354.818	12.7
355.027	13.26
355.237	12.33
355.447	13.1
355.656	12.47
355.866	10.94
356.075	10.77
356.285	11.31
356.494	10.15
356.704	11.35
356.913	10.55
357.123	11.21
357.332	10.77
357.542	11.04
357.751	11
357.96	10.95
358.17	10.21
358.379	11.44
358.589	10.83
358.798	10.47
359.007	9.9
359.217	9.76
359.426	9.07
359.635	9.27
359.845	9.95
360.054	10.12
360.263	10.36
360.472	10.82
360.682	9.24
360.891	8.95
361.1	9.47
361.309	8.75
361.519	8.98
361.728	9.64
361.937	8.92
362.146	8.79
362.355	9.01
362.564	8.56
362.774	7.6
362.983	6.95
363.192	8.43
363.401	8.6
363.61	8.72
363.819	8.73
364.028	8.11
364.237	9.3
364.446	9.3
364.655	8.94
364.864	9.14
365.073	10.6
365.282	11.35
365.491	10.4
365.7	10.52
365.909	11.31
366.118	10.51
366.327	10.54
366.536	9.89
366.745	9.09
366.954	9.44
367.162	10.45
367.371	9.72
367.58	10.63
367.789	10.91
367.998	10.9
368.207	10.28
368.415	11.07
368.624	10.78
368.833	11.7
369.042	12.35
369.25	11.59
369.459	11.04
369.668	10.6
369.877	9.85
370.085	9.57
370.294	8.75
370.503	8.75
370.711	8.07
370.92	8.48
371.129	8.1
371.337	7.82
371.546	8.57
371.754	7.95
371.963	8.32
372.171	8.19
372.38	7.63
372.589	8.62
372.797	8.65
373.006	9.09
373.214	9.83
373.423	9.64
373.631	9.06
373.84	8.22
374.048	8.46
374.256	9.06
374.465	8.77
374.673	10.46
374.882	9.67
375.09	9.91
375.298	9.58
375.507	8.48
375.715	8.28
375.923	9.24
376.132	9.65
376.34	9.67
376.548	9.08
376.757	10.72
376.965	9.6
377.173	9.1
377.381	9.03
377.59	10.13
377.798	10.71
378.006	10.68
378.214	10.24
378.423	10.28
378.631	10.61
378.839	10.83
379.047	9.24
379.255	8.68
379.463	9.1
379.671	9.56
379.879	8.88
380.088	9.23
380.296	8.86
380.504	9.19
380.712	9.44
380.92	9.6
381.128	8.74
381.336	9.16
381.544	10.27
381.752	10.99
381.96	10.41
382.168	9.5
382.376	9.51
382.584	9.35
382.791	9.42
382.999	9.37
383.207	9.6
383.415	10.81
383.623	11.47
383.831	10.91
384.039	10.13
384.247	9.62
384.454	9.76
384.662	9.51
384.87	10.29
385.078	10.53
385.285	9.54
385.493	8.83
385.701	7.49
385.909	7.54
386.116	7.23
386.324	7.55
386.532	7.9
386.739	8.59
386.947	8.61
387.155	8.44
387.362	8.44
387.57	9.56
387.778	9.18
387.985	9.59
388.193	9.71
388.4	9.85
388.608	9.6
388.816	9.24
389.023	8.31
389.231	7.72
389.438	8.02
389.646	6.93
389.853	7.42
390.061	7.72
390.268	8.18
390.475	7.26
390.683	7.58
390.89	7.6
391.098	8.32
391.305	8.72
391.512	9.02
391.72	8.92
391.927	8.99
392.135	7.63
392.342	7.95
392.549	7.56
392.756	7.31
392.964	6.73
393.171	6.52
393.378	6.58
393.586	6.61
393.793	6.96
394	6.11
394.207	6.76
394.414	7.49
394.622	7.78
394.829	7.7
395.036	8.25
395.243	8.43
395.45	8.69
395.657	8.57
395.864	9.11
396.072	8.13
396.279	8.71
396.486	8.55
396.693	7.78
396.9	6.93
397.107	6.44
397.314	6.04
397.521	6.27
397.728	6.03
397.935	6.15
398.142	5.6
398.349	6.61
398.556	6.96
398.763	6.09
398.97	6.87
399.177	7.19
399.383	8.7
399.59	8.67
399.797	8.73
400.004	9.18
400.211	8.97
400.418	9.88
400.625	9.08
400.831	8.87
401.038	9.4
401.245	8.56
401.452	8.47
401.658	7.62
401.865	8.08
402.072	7.31
402.279	6.82
402.485	6.83
402.692	5.16
402.899	6.03
403.105	6.06
403.312	5.7
403.519	5.95
403.725	5.46
403.932	5.65
404.138	5.66
404.345	6.02
404.552	6.31
404.758	6.34
404.965	7.72
405.171	6.89
405.378	6.48
405.584	6.69
405.791	6.98
405.997	7.11
406.204	6.79
406.41	6.41
406.617	6.34
406.823	6.67
407.029	6.1
407.236	5.41
407.442	6.07
407.649	6.2
407.855	7.07
408.061	7.05
408.268	7.57
408.474	7.71
408.68	7.42
408.887	7.07
409.093	7.07
409.299	7.91
409.505	8.15
409.712	8.14
409.918	8.7
410.124	8.39
410.33	8.44
410.537	8.36
410.743	8.28
410.949	8.47
411.155	9.12
411.361	8.49
411.567	8.07
411.773	8.22
411.98	7.53
412.186	7.24
412.392	6.61
412.598	7.19
412.804	7.28
413.01	7.15
413.216	6.91
413.422	6.36
413.628	7.07
413.834	7.12
414.04	6.95
414.246	7.07
414.452	7.29
414.658	7.7
414.864	7.06
415.07	6.96
415.275	6.75
415.481	7.06
415.687	7.9
415.893	7.62
416.099	7.41
416.305	7.18
416.511	7.44
416.716	7.61
416.922	7.61
417.128	7.2
417.334	7.18
417.539	7.56
417.745	7.59
417.951	7.33
418.157	7.19
418.362	7.38
418.568	7.44
418.774	7.33
418.979	7.07
419.185	6.89
419.391	7.33
419.596	7.32
419.802	7.53
420.008	7.41
420.213	7.53
420.419	7.81
420.624	7.53
420.83	7.71
421.035	7.73
421.241	7.72
421.446	7.62
421.652	7.45
421.857	7.38
422.063	7.27
422.268	7.31
422.474	7.05
422.679	7
422.885	6.97
423.09	6.77
423.295	7.07
423.501	6.82
423.706	6.99
423.911	6.61
424.117	6.78
424.322	6.44
424.527	6.44
424.733	6.64
424.938	6.58
425.143	6.8
425.349	6.93
425.554	6.84
425.759	7.37
425.964	7.39
426.169	7.8
426.375	7.57
426.58	7.5
426.785	7.3
426.99	6.99
427.195	7.27
427.4	7.32
427.605	7.23
427.811	6.86
428.016	6.49
428.221	6.32
428.426	6.76
428.631	6.76
428.836	7.08
429.041	7.72
429.246	7.22
429.451	6.88
429.656	6.85
429.861	6.48
430.066	6.25
430.271	6.35
430.476	6.26
430.681	6.08
430.886	6.31
431.09	6.53
431.295	5.91
431.5	6.64
431.705	6.59
431.91	6.73
432.115	7
432.32	7.02
432.524	7.04
432.729	7.33
432.934	7.22
433.139	7.2
433.343	6.98
433.548	7.06
433.753	7.07
433.958	7.09
434.162	7.2
434.367	7.34
434.572	7.75
434.776	7.72
434.981	7.5
435.186	7.67
435.39	7.53
435.595	7.69
435.799	8.12
436.004	8.08
436.209	7.87
436.413	7.61
436.618	7.73
436.822	7.48
437.027	6.84
437.231	6.73
437.436	6.47
437.64	6.4
437.845	6.57
438.049	6.33
438.253	5.92
438.458	6.25
438.662	6.03
438.867	5.48
439.071	5.54
439.275	6.06
439.48	6.16
439.684	5.89
439.888	6.06
440.093	5.95
440.297	5.85
440.501	6.14
440.706	5.59
440.91	5.78
441.114	6.18
441.318	6.1
441.523	5.82
441.727	5.82
441.931	6.1
442.135	5.64
442.339	5.37
442.543	5.73
442.748	5.78
442.952	6.58
443.156	6.58
443.36	6.58
443.564	6.01
443.768	6.37
443.972	6.6
444.176	6.75
444.38	6.95
444.584	7.17
444.788	6.81
444.992	6.76
445.196	6.29
445.4	6.07
445.604	5.88
445.808	6.55
446.012	6.29
446.216	5.88
446.42	5.76
446.624	6.02
446.828	5.85
447.032	5.99
447.235	5.58
447.439	5.85
447.643	5.85
447.847	6.04
448.051	5.67
448.254	5.85
448.458	6.12
448.662	6.01
448.866	5.47
449.069	5.71
449.273	5.47
449.477	5.85
449.681	5.5
449.884	6.01
450.088	5.66
450.292	5.89
450.495	5.38
450.699	5.52
450.902	5.49
451.106	5.89
451.31	5.61
451.513	5.68
451.717	5.93
451.92	6.31
452.124	6.26
452.327	6.93
452.531	6.44
452.734	7.23
452.938	7.02
453.141	7.35
453.345	7.39
453.548	7.37
453.752	7.32
453.955	7.01
454.158	6.79
454.362	6.58
454.565	6.47
454.769	6.8
454.972	6.3
455.175	6.38
455.379	6.14
455.582	5.93
455.785	5.92
455.988	6.2
456.192	5.95
456.395	5.72
456.598	5.69
456.801	5.38
457.005	5.78
457.208	5.6
457.411	5.94
457.614	5.78
457.817	5.62
458.021	5.8
458.224	5.72
458.427	5.86
458.63	5.73
458.833	5.77
459.036	5.74
459.239	5.35
459.442	5.32
459.645	5
459.848	5.49
460.051	5.66
460.254	5.72
460.457	5.42
460.66	5.66
460.863	5.74
461.066	5.35
461.269	5.28
461.472	5.66
461.675	5.45
461.878	5.43
462.081	5.19
462.284	5.37
462.486	5.14
462.689	5.79
462.892	5.8
463.095	5.75
463.298	6.07
463.5	6.26
463.703	5.89
463.906	6.71
464.109	6.98
464.311	6.74
464.514	6.61
464.717	6.72
464.92	6.57
465.122	6.65
465.325	6.65
465.528	6.78
465.73	6.76
465.933	6.59
466.135	6.74
466.338	6.89
466.541	7.1
466.743	7.06
466.946	6.95
467.148	7.24
467.351	7.05
467.553	7.2
467.756	7.39
467.958	7.44
468.161	7.41
468.363	7.12
468.566	6.57
468.768	6.44
468.971	6.37
469.173	6.5
469.375	5.8
469.578	5.66
469.78	5.73
469.983	6.13
470.185	6.17
470.387	6.54
470.59	6.23
470.792	6.42
470.994	6.39
471.196	6.53
471.399	6.39
471.601	6.9
471.803	7.3
472.005	7.04
472.208	6.32
472.41	5.86
472.612	6.16
472.814	6.38
473.016	6.84
473.218	6.96
473.421	6.65
473.623	6.86
473.825	6.74
474.027	6.52
474.229	7.04
474.431	7.02
474.633	7
474.835	6.97
475.037	6.76
475.239	6.69
475.441	6.52
475.643	6.82
475.845	6.55
476.047	6.61
476.249	6.61
476.451	6.5
476.653	6.63
476.855	6.97
477.057	7.05
477.258	7.05
477.46	6.86
477.662	6.84
477.864	6.72
478.066	6.85
478.268	6.65
478.469	6.58
478.671	6.69
478.873	6.89
479.075	6.76
479.276	6.46
479.478	6.48
479.68	6.4
479.882	6.43
480.083	6.6
480.285	6.49
480.487	6.52
480.688	6.69
480.89	6.45
481.091	6.23
481.293	6.08
481.495	6.12
481.696	6.16
481.898	6.18
482.099	6.14
482.301	6.06
482.502	6.12
482.704	5.96
482.905	5.84
483.107	5.79
483.308	5.73
483.51	5.76
483.711	5.73
483.913	5.63
484.114	5.59
484.315	5.52
484.517	5.38
484.718	5.21
484.92	5.28
485.121	5.28
485.322	5.29
485.524	5.39
485.725	5.54
485.926	5.48
486.127	5.48
486.329	5.46
486.53	5.58
486.731	5.67
486.932	5.84
487.134	5.88
487.335	5.73
487.536	5.85
487.737	5.76
487.938	5.56
488.139	5.43
488.341	5.48
488.542	5.47
488.743	5.39
488.944	5.43
489.145	5.43
489.346	5.54
489.547	5.66
489.748	5.35
489.949	5.31
490.15	5.37
490.351	5.57
490.552	5.71
490.753	5.74
490.954	5.77
491.155	5.83
491.356	5.85
491.557	5.83
491.758	6
491.959	6.04
492.159	6.22
492.36	6.35
492.561	6.25
492.762	6.18
492.963	6.36
493.164	6.64
493.364	6.64
493.565	6.63
493.766	6.77
493.967	6.82
494.167	6.89
494.368	7.02
494.569	7.19
494.769	7.26
494.97	7.3
495.171	7.06
495.371	6.94
495.572	6.81
495.773	6.52
495.973	6.31
496.174	6.09
496.375	6.53
496.575	6.23
496.776	6.1
496.976	6.37
497.177	6.5
497.377	6.52
497.578	6.48
497.778	6.53
497.979	6.97
498.179	6.98
498.38	7.29
498.58	7.21
498.78	7.51
498.981	7.54
499.181	7.37
499.382	7.31
499.582	7.4
499.782	7.08
499.983	7.42
500.183	7.31
500.383	7.42
500.584	7.12
500.784	7.27
500.984	7.69
501.184	7.8
501.385	7.85
501.585	7.58
501.785	7.81
501.985	8.12
502.185	7.82
502.386	7.92
502.586	8.48
502.786	8.44
502.986	7.96
503.186	8.08
503.386	8.29
503.586	8.35
503.786	8.11
503.987	7.99
504.187	8.08
504.387	8.19
504.587	8.26
504.787	7.9
504.987	7.94
505.187	8.21
505.387	7.8
505.587	7.69
505.786	7.59
505.986	8.01
506.186	8.13
506.386	7.74
506.586	7.85
506.786	7.34
506.986	7.66
507.186	7.88
507.386	8.03
507.585	7.8
507.785	7.92
507.985	8.08
508.185	8.11
508.384	8.18
508.584	8.77
508.784	8.73
508.984	8.96
509.183	8.54
509.383	8.44
509.583	8.42
509.782	8.79
509.982	8.53
510.182	8.31
510.381	8.36
510.581	8.24
510.781	7.82
510.98	7.83
511.18	7.86
511.379	7.9
511.579	7.89
511.778	7.94
511.978	8.04
512.177	8.4
512.377	8.74
512.576	8.74
512.776	8.9
512.975	9.1
513.175	9.05
513.374	9.06
513.573	9.54
513.773	9.88
513.972	10.11
514.172	10.01
514.371	9.99
514.57	10
514.77	10.35
514.969	10.21
515.168	10.48
515.367	10.62
515.567	10.75
515.766	10.63
515.965	10.61
516.164	10.48
516.364	10.44
516.563	10.57
516.762	10.45
516.961	10.52
517.16	10.43
517.359	10.36
517.559	10.39
517.758	10.48
517.957	10.32
518.156	10.44
518.355	10.61
518.554	10.82
518.753	10.51
518.952	10.65
519.151	10.49
519.35	10.78
519.549	10.92
519.748	11.09
519.947	11.22
520.146	11.36
520.345	11.41
520.544	11.16
520.743	10.99
520.942	11.61
521.141	11.67
521.339	11.89
521.538	11.96
521.737	11.93
521.936	11.65
522.135	11.77
522.333	11.86
522.532	11.68
522.731	11.84
522.93	11.82
523.129	11.44
523.327	11.37
523.526	11.53
523.725	11.87
523.923	11.94
524.122	12.21
524.321	12.03
524.519	12.11
524.718	12.31
524.917	12.28
525.115	12.5
525.314	12.53
525.512	12.62
525.711	12.58
525.909	12.23
526.108	12.34
526.306	12.35
526.505	12.49
526.703	12.36
526.902	12.35
527.1	12.5
527.299	12.39
527.497	12.44
527.696	12.47
527.894	12.4
528.092	12.52
528.291	12.44
528.489	12.28
528.688	12.39
528.886	12.59
529.084	12.59
529.283	12.53
529.481	12.55
529.679	12.57
529.877	12.63
530.076	12.78
530.274	12.87
530.472	13.09
530.67	13.47
530.869	13.17
531.067	13.04
531.265	13.04
531.463	13.01
531.661	13.18
531.859	13.24
532.057	13.19
532.255	13.15
532.454	12.94
532.652	12.77
532.85	12.75
533.048	12.79
533.246	12.87
533.444	13.04
533.642	13.11
533.84	13.25
534.038	13.17
534.236	13.28
534.434	13.4
534.632	13.77
534.83	13.78
535.027	13.97
535.225	14.04
535.423	14.06
535.621	13.9
535.819	14.12
536.017	13.79
536.215	14.1
536.412	14.07
536.61	14.21
536.808	13.94
537.006	14.04
537.203	14.17
537.401	14.52
537.599	14.88
537.797	14.91
537.994	14.91
538.192	15.3
538.39	15.32
538.587	15.59
538.785	15.26
538.983	15.41
539.18	15.77
539.378	15.6
539.575	15.45
539.773	15.23
539.97	15.34
540.168	15.31
540.366	15.32
540.563	15.17
540.761	15.1
540.958	15.04
541.155	15.11
541.353	14.9
541.55	14.89
541.748	14.99
541.945	15
542.143	15.13
542.34	15.27
542.537	15.2
542.735	15.38
542.932	15.47
543.129	15.78
543.327	15.93
543.524	16.02
543.721	16.08
543.919	16.23
544.116	16.34
544.313	16.34
544.51	16.29
544.708	16.5
544.905	16.58
545.102	16.68
545.299	16.75
545.496	16.59
545.693	16.85
545.891	16.92
546.088	16.72
546.285	16.8
546.482	16.81
546.679	16.95
546.876	16.8
547.073	16.77
547.27	16.79
547.467	17.26
547.664	17.61
547.861	17.65
548.058	17.71
548.255	17.97
548.452	18.28
548.649	18.6
548.846	18.71
549.043	18.57
549.24	18.72
549.437	18.9
549.633	18.43
549.83	18.48
550.027	18.56
550.224	18.79
550.421	18.86
550.618	18.71
550.814	18.63
551.011	18.84
551.208	19.27
551.405	19.32
551.601	19.37
551.798	19.47
551.995	19.4
552.191	19.38
552.388	19.14
552.585	19.28
552.781	19.65
552.978	19.43
553.175	19.34
553.371	19.56
553.568	20.06
553.764	19.56
553.961	19.59
554.157	19.84
554.354	20.07
554.55	20.38
554.747	20.92
554.943	20.57
555.14	21
555.336	21.28
555.533	20.94
555.729	20.24
555.926	21.14
556.122	21.37
556.318	21.43
556.515	21.24
556.711	21.16
556.907	20.6
557.104	20.82
557.3	21.11
557.496	21.51
557.693	21.77
557.889	22.03
558.085	21.82
558.281	21.62
558.478	21.98
558.674	22.65
558.87	22.65
559.066	22.52
559.262	22.74
559.459	22.21
559.655	22.09
559.851	22.33
560.047	22.38
560.243	22.39
560.439	22.69
560.635	22.63
560.831	22.09
561.027	22.46
561.223	22.82
561.419	22.87
561.615	23.17
561.811	22.96
562.007	23.33
562.203	23.83
562.399	23.79
562.595	23.79
562.791	23.5
562.987	23.67
563.183	23.57
563.379	23.85
563.575	23.63
563.771	23.5
563.966	23.13
564.162	22.88
564.358	22.66
564.554	22.77
564.75	22.98
564.945	23.22
565.141	23.5
565.337	23.58
565.533	23.53
565.728	23.95
565.924	24.21
566.12	24.81
566.315	25.4
566.511	25.7
566.707	26.01
566.902	26.19
567.098	26.69
567.293	26.84
567.489	26.79
567.684	26.98
567.88	26.74
568.076	26.82
568.271	26.65
568.467	26.57
568.662	26.41
568.858	26.38
569.053	26.04
569.248	25.81
569.444	25.8
569.639	25.87
569.835	25.72
570.03	26.04
570.225	25.97
570.421	25.81
570.616	25.34
570.812	25.46
571.007	25.59
571.202	25.99
571.397	26
571.593	26.3
571.788	26.68
571.983	26.85
572.178	26.61
572.374	26.78
572.569	27.11
572.764	27.27
572.959	27.41
573.154	27.25
573.35	27.35
573.545	27.76
573.74	27.46
573.935	27.52
574.13	27.72
574.325	28
574.52	28.24
574.715	28.43
574.91	28.73
575.105	28.61
575.3	29.44
575.495	29.58
575.69	29.21
575.885	29.21
576.08	29.18
576.275	28.76
576.47	29.04
576.665	29.09
576.86	28.82
577.055	28.94
577.25	29.62
577.444	29.4
577.639	29.31
577.834	29.56
578.029	30.17
578.224	30.33
578.418	30.85
578.613	30.92
578.808	30.88
579.003	31.12
579.197	31.34
579.392	31.18
579.587	30.9
579.781	30.63
579.976	30.83
580.171	30.96
580.365	30.92
580.56	31.05
580.755	31
580.949	31.3
581.144	31.48
581.338	31.59
581.533	31.18
581.727	31.21
581.922	31.58
582.116	31.64
582.311	31.44
582.505	32.28
582.7	32.42
582.894	32.28
583.089	32.09
583.283	32.06
583.478	32.04
583.672	32.75
583.866	33.07
584.061	33.27
584.255	33.6
584.449	33.7
584.644	33.35
584.838	33.4
585.032	32.96
585.226	33.22
585.421	33.62
585.615	33.28
585.809	32.87
586.003	32.78
586.198	32.85
586.392	32.22
586.586	32.2
586.78	32.04
586.974	31.86
587.168	32.55
587.363	32.18
587.557	32.1
587.751	32.25
587.945	32.12
588.139	32.25
588.333	32.2
588.527	32.81
588.721	33.04
588.915	32.68
589.109	32.94
589.303	32.71
589.497	32.93
589.691	32.77
589.885	32.96
590.079	33.19
590.273	33.38
590.466	33.68
590.66	33.19
590.854	32.8
591.048	33.21
591.242	33.25
591.436	33.31
591.629	33.72
591.823	33.84
592.017	33.56
592.211	33.92
592.404	34.09
592.598	34.17
592.792	34.07
592.986	34.26
593.179	34.32
593.373	34.46
593.567	34.72
593.76	34.66
593.954	34.17
594.147	34.13
594.341	33.9
594.535	33.62
594.728	33.46
594.922	33.69
595.115	33.48
595.309	33.21
595.502	32.82
595.696	32.92
595.889	32.74
596.083	33.65
596.276	34.18
596.47	34.37
596.663	34.53
596.856	34.83
597.05	34.87
597.243	35.44
597.437	35.79
597.63	36.53
597.823	36.97
598.017	37.39
598.21	37.02
598.403	36.94
598.596	37.44
598.79	37.58
598.983	37.25
599.176	37.75
599.369	37.81
599.563	37.64
599.756	36.81
599.949	36.46
600.142	36.52
600.335	37.03
600.528	36.98
600.722	36.19
600.915	36.1
601.108	36.36
601.301	36.02
601.494	35.79
601.687	35.37
601.88	35.48
602.073	35.78
602.266	35.29
602.459	34.78
602.652	34.79
602.845	35.55
603.038	35.23
603.231	34.85
603.424	35.13
603.617	35.52
603.809	36.02
604.002	36.14
604.195	35.96
604.388	36.15
604.581	36.23
604.774	36.38
604.966	35.78
605.159	35.96
605.352	36.59
605.545	36.6
605.737	36.34
605.93	36.68
606.123	36.76
606.316	36.73
606.508	36.95
606.701	37.62
606.894	36.99
607.086	37.33
607.279	37.89
607.471	37.45
607.664	37.13
607.857	37.02
608.049	37.34
608.242	37.42
608.434	38
608.627	37.91
608.819	37.62
609.012	37.87
609.204	37.68
609.397	37.25
609.589	37.4
609.782	37.49
609.974	37.67
610.166	37.21
610.359	37.48
610.551	37.15
610.743	36.72
610.936	36.37
611.128	37.17
611.32	37.21
611.513	37.58
611.705	37.82
611.897	38.43
612.09	39.28
612.282	39.45
612.474	39.17
612.666	38.8
612.858	39.72
613.051	39.65
613.243	39.14
613.435	39.05
613.627	39.1
613.819	38.63
614.011	37.77
614.203	36.44
614.395	36.19
614.588	36.32
614.78	36.2
614.972	35.96
615.164	36.74
615.356	36.83
615.548	37.27
615.74	36.95
615.932	37.47
616.124	37.68
616.315	38.06
616.507	38.44
616.699	38.84
616.891	39.21
617.083	39.56
617.275	39.26
617.467	39.68
617.659	40.2
617.85	40.5
618.042	40.46
618.234	41.11
618.426	41.27
618.618	41.44
618.809	41.4
619.001	41.14
619.193	40.94
619.384	41.42
619.576	41.06
619.768	40.72
619.959	40.32
620.151	39.6
620.343	39.37
620.534	38.9
620.726	38.96
620.917	38.58
621.109	39.57
621.301	39.86
621.492	39.88
621.684	40.36
621.875	40.07
622.067	40.7
622.258	41
622.45	41.62
622.641	41.36
622.832	41.75
623.024	41.49
623.215	40.5
623.407	40.76
623.598	40.26
623.789	40.18
623.981	39.9
624.172	39.33
624.363	39.96
624.555	39.45
624.746	40.04
624.937	39.65
625.129	40.27
625.32	40.45
625.511	40.47
625.702	40.39
625.893	40.15
626.085	40.7
626.276	41.15
626.467	40.71
626.658	40.64
626.849	41.01
627.04	40.96
627.231	41.5
627.422	41.96
627.614	41.82
627.805	42.08
627.996	42.08
628.187	41.98
628.378	42.05
628.569	42.16
628.76	41.98
628.951	42
629.142	42.38
629.332	41.56
629.523	40.88
629.714	40.25
629.905	40.73
630.096	41.03
630.287	41.4
630.478	41.25
630.669	42.12
630.859	42.35
631.05	42.28
631.241	42.17
631.432	42.95
631.623	43.3
631.813	43.86
632.004	43.47
632.195	42.95
632.385	42.41
632.576	42.93
632.767	42.01
632.957	42.37
633.148	42.24
633.339	41.77
633.529	41.06
633.72	40.97
633.91	41.14
634.101	41.02
634.292	41.75
634.482	41.72
634.673	42.05
634.863	42.68
635.054	42.81
635.244	42.84
635.435	43.37
635.625	43.32
635.815	43.59
636.006	43.27
636.196	43.52
636.387	43.45
636.577	43.49
636.767	43.06
636.958	42.96
637.148	43.46
637.338	43.64
637.529	43.79
637.719	44.48
637.909	44.91
638.099	45.2
638.29	45.01
638.48	45
638.67	45.89
638.86	45.98
639.05	46.24
639.241	45.65
639.431	45.95
639.621	46.59
639.811	47.41
640.001	47.52
640.191	47.25
640.381	47.62
640.571	48.08
640.761	47.15
640.951	47.25
641.141	47.08
641.331	47.12
641.521	46.78
641.711	45.94
641.901	44.99
642.091	44.85
642.281	45.96
642.471	45.62
642.661	44.72
642.851	45.06
643.041	44.43
643.231	45.05
643.42	44.79
643.61	45.24
643.8	45.27
643.99	45.61
644.18	44.64
644.369	44.46
644.559	45.48
644.749	46.75
644.939	47.34
645.128	48.77
645.318	47.91
645.508	48.48
645.697	47.78
645.887	48.52
646.076	48
646.266	49.34
646.456	48.51
646.645	47.37
646.835	46.72
647.024	46.01
647.214	45.27
647.403	45.55
647.593	45.17
647.782	45.16
647.972	45.59
648.161	46.85
648.351	46.33
648.54	46.71
648.73	47.33
648.919	47.59
649.108	48.12
649.298	47.83
649.487	48.35
649.677	48.72
649.866	48.68
650.055	47.87
650.244	46.89
650.434	46.57
650.623	46.18
650.812	46.77
651.002	46.4
651.191	46.7
651.38	46.57
651.569	46
651.758	46.26
651.947	47
652.137	47.05
652.326	46.79
652.515	47.58
652.704	48.67
652.893	48.47
653.082	48.57
653.271	48.23
653.46	49.27
653.649	49.6
653.838	50.24
654.027	49.42
654.216	50.19
654.405	50.78
654.594	50.47
654.783	49.11
654.972	48.67
655.161	49.04
655.35	49.21
655.539	48.51
655.728	49.04
655.916	47.55
656.105	47.94
656.294	47.44
656.483	47.32
656.672	47.51
656.86	48.26
657.049	48.13
657.238	47.58
657.427	47.75
657.615	47.58
657.804	46.2
657.993	46.5
658.181	45.59
658.37	45.31
658.559	45.46
658.747	45.78
658.936	45.49
659.125	44.16
659.313	44.67
659.502	44.08
659.69	44.82
659.879	45.52
660.067	46.13
660.256	47.3
660.444	47.55
660.633	47.62
660.821	47.05
661.01	47.34
661.198	49.26
661.387	49.5
661.575	50.87
661.763	50.31
661.952	50.02
662.14	49.46
662.328	49.67
662.517	50
662.705	49.24
662.893	48.83
663.082	48.55
663.27	48.54
663.458	48.1
663.646	48.1
663.834	47.75
664.023	48.98
664.211	49.49
664.399	50.27
664.587	50.69
664.775	51.68
664.963	52.6
665.152	52.62
665.34	52.67
665.528	52.84
665.716	52.59
665.904	52.93
666.092	52.56
666.28	52.52
666.468	51.75
666.656	50.7
666.844	49.71
667.032	50.07
667.22	50.55
667.408	49.94
667.596	50.38
667.784	49.94
667.971	50.21
668.159	50.84
668.347	50.95
668.535	51.09
668.723	51.63
668.911	52.76
669.098	52.61
669.286	52.04
669.474	52.72
669.662	52.92
669.849	53
670.037	52.74
670.225	51.94
670.413	52.6
670.6	53.04
670.788	53.31
670.976	52.49
671.163	52.48
671.351	52.5
671.538	53.32
671.726	52.62
671.913	52.21
672.101	52.2
672.289	52.63
672.476	52.49
672.664	51.48
672.851	51.17
673.039	51.25
673.226	50.83
673.413	51.77
673.601	51.65
673.788	51.64
673.976	51.91
674.163	51.61
674.35	51.83
674.538	51
674.725	51.65
674.912	51.7
675.1	53.46
675.287	53.65
675.474	53.29
675.662	52.38
675.849	52.76
676.036	53.15
676.223	52.66
676.411	52.3
676.598	52.93
676.785	52.85
676.972	53.7
677.159	52.74
677.346	52.85
677.533	52.02
677.721	51.63
677.908	51.82
678.095	50.87
678.282	52.27
678.469	52.22
678.656	51.7
678.843	50.26
679.03	49.36
679.217	49.02
679.404	48.61
679.591	49.71
679.778	50.27
679.964	50.05
680.151	50.47
680.338	49.3
680.525	49.09
680.712	48.72
680.899	50.5
681.086	51.16
681.272	51.89
681.459	52.11
681.646	52.13
681.833	52.18
682.02	52.68
682.206	53.29
682.393	55.48
682.58	56.2
682.766	57.55
682.953	56.92
683.14	56.98
683.326	56.78
683.513	56.59
683.7	56.42
683.886	56.76
684.073	56.68
684.259	56.82
684.446	55.31
684.632	54.91
684.819	54.2
685.005	54.17
685.192	53.72
685.378	52.81
685.565	52.95
685.751	52.95
685.938	53.4
686.124	52.09
686.31	53.18
686.497	53.35
686.683	53.89
686.87	54.79
687.056	55.67
687.242	56.01
687.429	56.81
687.615	57.64
687.801	57.95
687.987	57.63
688.174	58.92
688.36	57.93
688.546	57.69
688.732	57.74
688.918	56.91
689.105	56.8
689.291	56.4
689.477	56.88
689.663	56.99
689.849	57.52
690.035	57.87
690.221	57.83
690.407	57.48
690.593	57.61
690.779	56.89
690.965	57.52
691.151	57.48
691.337	57.75
691.523	57.65
691.709	57.45
691.895	57.69
692.081	58.33
692.267	57.82
692.453	58.15
692.639	60.5
692.825	61.57
693.011	61.41
693.196	61.74
693.382	61.27
693.568	61.37
693.754	61.75
693.94	60.82
694.125	58.96
694.311	59.96
694.497	60.36
694.682	59.03
694.868	58.94
695.054	58.59
695.239	58.4
695.425	57.85
695.611	57.81
695.796	57.38
695.982	56.24
696.168	56.27
696.353	56.62
696.539	55.61
696.724	54.92
696.91	55.05
697.095	55.28
697.281	54.36
697.466	55.11
697.652	54.01
697.837	52.97
698.023	53.29
698.208	52.92
698.393	51.75
698.579	51.92
698.764	51.32
698.949	51.23
699.135	50.98
699.32	50.6
699.505	50.36
699.691	51.01
699.876	51.61
700.061	51.77
700.246	53.14
700.432	54.39
700.617	55.51
700.802	56.06
700.987	55.72
701.172	56.13
701.358	56.22
701.543	57.31
701.728	58.27
701.913	59.2
702.098	59.93
702.283	61.26
702.468	60.33
702.653	59
702.838	59.7
703.023	61.13
703.208	59.94
703.393	62.49
703.578	61.92
703.763	61.66
703.948	61.18
704.133	61.1
704.318	60.4
704.503	61.04
704.688	61.21
704.873	59.68
705.057	57.8
705.242	59.34
705.427	58.18
705.612	58.01
705.797	57.36
705.981	58.08
706.166	58.23
706.351	57.79
706.536	57.38
706.72	58.21
706.905	59.33
707.09	59.73
707.274	58.03
707.459	58.56
707.644	59.81
707.828	61.21
708.013	60.32
708.197	60.03
708.382	59.57
708.567	59.38
708.751	59.02
708.936	59.06
709.12	59.87
709.305	60.98
709.489	60.22
709.673	59.94
709.858	58.8
710.042	59.53
710.227	58.45
710.411	58.02
710.596	58.22
710.78	57.92
710.964	57.66
711.149	58.15
711.333	56.82
711.517	56.35
711.702	56.3
711.886	56.68
712.07	55.22
712.254	56.85
712.438	56.96
712.623	56.49
712.807	56.45
712.991	56.82
713.175	55.91
713.359	56.58
713.544	57.07
713.728	57
713.912	57
714.096	58.55
714.28	58.89
714.464	59.37
714.648	60.32
714.832	60.7
715.016	61.73
715.2	61.55
715.384	61.87
715.568	62.48
715.752	61.3
715.936	61.86
716.12	60.19
716.304	59.24
716.488	59.63
716.671	58.5
716.855	58.21
717.039	56.1
717.223	56.41
717.407	56.23
717.59	57.42
717.774	58.4
717.958	57.59
718.142	58.58
718.325	59.74
718.509	60.68
718.693	61.38
718.877	62.67
719.06	64.82
719.244	64.93
719.428	65.58
719.611	64.6
719.795	65.41
719.978	66.99
720.162	68.08
720.345	66.87
720.529	66.57
720.713	66.19
720.896	65.2
721.08	65.9
721.263	65.1
721.446	65.99
721.63	66.13
721.813	66.34
721.997	65.52
722.18	65.98
722.364	68.15
722.547	68.01
722.73	70.79
722.914	70.49
723.097	67.62
723.28	68.61
723.464	68.44
723.647	66.63
723.83	64.94
724.013	64.17
724.197	61.16
724.38	59.73
724.563	57.51
724.746	54.84
724.929	53.08
725.112	54.87
725.296	54.69
725.479	54.67
725.662	56.2
725.845	56.43
726.028	56.75
726.211	58.31
726.394	59.59
726.577	60.34
726.76	61.93
726.943	63.76
727.126	63.24
727.309	63.26
727.492	62.15
727.675	62.75
727.858	63.39
728.041	63.6
728.224	64.7
728.407	65.29
728.589	64.47
728.772	65.53
728.955	64.5
729.138	63.94
729.321	63.14
729.503	66.04
729.686	65.18
729.869	64.11
730.052	64.86
730.234	63.86
730.417	63.44
730.6	64.38
730.782	61.31
730.965	62.48
731.148	65.39
731.33	66.88
731.513	65.22
731.695	67.37
731.878	67.36
732.061	66.47
732.243	68.63
732.426	68.22
732.608	69.43
732.791	69.17
732.973	69.06
733.156	67.59
733.338	67.04
733.52	66.24
733.703	65.35
733.885	67.23
734.068	67.09
734.25	65.91
734.432	66.08
734.615	64.88
734.797	68.49
734.979	67.55
735.162	67.86
735.344	67.31
735.526	67.65
735.708	66.36
735.891	66.21
736.073	66.36
736.255	65.55
736.437	65.42
736.619	65.56
736.802	65.63
736.984	66.32
737.166	63.96
737.348	64.27
737.53	63.33
737.712	63.95
737.894	63.93
738.076	65.34
738.258	65.69
738.44	64.71
738.622	64.86
738.804	63.97
738.986	64.29
739.168	66.83
739.35	66.55
739.532	68.05
739.714	67.66
739.896	66.86
740.078	66.19
740.259	66.68
740.441	67.99
740.623	70.19
740.805	68.99
740.987	69.73
741.168	67.85
741.35	70.46
741.532	72.36
741.714	72.96
741.895	73.03
742.077	74.03
742.259	74
742.44	74.42
742.622	73.16
742.804	72.54
742.985	72.29
743.167	74.54
743.348	71.17
743.53	69.51
743.711	70.53
743.893	72.2
744.075	70.94
744.256	71.51
744.438	71.16
744.619	73.21
744.8	73.02
744.982	75.8
745.163	74.85
745.345	76.62
745.526	76.75
745.707	74.54
745.889	73.87
746.07	73.57
746.252	74.13
746.433	73.29
746.614	72.94
746.795	75.18
746.977	72.02
747.158	71.25
747.339	70.81
747.52	70.75
747.702	72.96
747.883	70.42
748.064	70.47
748.245	71.17
748.426	70.29
748.607	69.28
748.788	66.94
748.97	66.76
749.151	67.54
749.332	69.64
749.513	70.24
749.694	71.23
749.875	72.42
750.056	72.29
750.237	71.38
750.418	73.79
750.599	72.93
750.78	75.87
750.96	77.24
751.141	79.48
751.322	78.33
751.503	76.47
751.684	74.64
751.865	76.02
752.046	74.61
752.226	75.89
752.407	75.61
752.588	77.9
752.769	77.24
752.949	75.52
753.13	75.44
753.311	75.8
753.492	76.84
753.672	78.27
753.853	77.91
754.034	80.15
754.214	77.86
754.395	77.99
754.575	75.29
754.756	75.61
754.937	77.35
755.117	75.4
755.298	75.27
755.478	74.68
755.659	74.93
755.839	74.98
756.02	73.97
756.2	75.09
756.381	74.92
756.561	76.31
756.741	75.57
756.922	73.43
757.102	73.8
757.283	73.3
757.463	73.59
757.643	71.01
757.823	71.28
758.004	73.11
758.184	73.11
758.364	73.05
758.545	73.13
758.725	74.32
758.905	75.15
759.085	74.4
759.265	74.64
759.446	74.49
759.626	74.43
759.806	72.78
759.986	71.55
760.166	69.56
760.346	68.06
760.526	66.65
760.706	65.01
760.886	64.43
761.066	67.18
761.246	67.02
761.426	67.39
761.606	67.01
761.786	66.08
761.966	64.7
762.146	64.47
762.326	63.23
762.506	62.64
762.686	62.73
762.866	62.67
763.046	60.64
763.225	60.78
763.405	60.42
763.585	61.03
763.765	61.56
763.945	62.72
764.124	63.63
764.304	65.87
764.484	66.36
764.664	66.87
764.843	67.3
765.023	66.75
765.203	64.66
765.382	65.18
765.562	63.83
765.741	67.68
765.921	67.91
766.101	67.93
766.28	65.8
766.46	66.41
766.639	67.25
766.819	67.05
766.998	67.9
767.178	70.92
767.357	71.12
767.537	73.48
767.716	71.32
767.896	71.68
768.075	73.09
768.254	74.9
768.434	75.24
768.613	75.79
768.792	77.07
768.972	77.62
769.151	77.71
769.33	79.71
769.51	79.81
769.689	79.6
769.868	79.71
770.047	77.23
770.226	80.16
770.406	81.88
770.585	80.5
770.764	82.42
770.943	83.53
771.122	83.36
771.301	82.69
771.48	85.02
771.66	85.21
771.839	86.79
772.018	92.69
772.197	91.28
772.376	89.09
772.555	91.32
772.734	90.79
772.913	91.54
773.092	92.08
773.271	91.2
773.449	91.9
773.628	88.1
773.807	86.82
773.986	84.95
774.165	86.93
774.344	89.92
774.523	90.66
774.701	88.06
774.88	88.95
775.059	88.61
775.238	88.66
775.417	89.05
775.595	94.55
775.774	97.8
775.953	98.28
776.131	93.39
776.31	91.31
776.489	89.36
776.667	91.16
776.846	92.59
777.025	93.05
777.203	91.35
777.382	91.36
777.56	90.19
777.739	87.29
777.917	85.81
778.096	86.53
778.274	88.91
778.453	92.26
778.631	93.57
778.81	91.67
778.988	91.35
779.166	93.8
779.345	90.46
779.523	92.43
779.702	89.86
779.88	88.86
780.058	91.04
780.237	87.34
780.415	85.94
780.593	85.34
780.771	87.01
780.95	87.71
781.128	87.13
781.306	87.27
781.484	86.67
781.662	90.73
781.841	93.42
782.019	95.81
782.197	98.32
782.375	96.33
782.553	100.03
782.731	95.83
782.909	95.55
783.087	94.04
783.265	92.89
783.443	89.93
783.621	87.18
783.799	88.16
783.977	86.52
784.155	84.78
784.333	85.48
784.511	79.99
784.689	80.42
784.867	80.07
785.045	82.41
785.223	82.52
785.4	86.66
785.578	89.01
785.756	91.38
785.934	88.23
786.112	89.49
786.289	89.47
786.467	91.62
786.645	91.45
786.823	89.53
787	85.89
787.178	88.68
787.356	87.14
787.533	84.95
787.711	79.64
787.889	82.61
788.066	81.32
788.244	82.22
788.421	82.5
788.599	84.95
788.776	83.11
788.954	86.43
789.131	83.84
789.309	81.61
789.486	82.41
789.664	83.96
789.841	80.28
790.019	81.21
790.196	80.29
790.373	77.19
790.551	71.32
790.728	75.42
790.906	75.38
791.083	80.79
791.26	82.62
791.437	83.31
791.615	84.42
791.792	86.55
791.969	89.99
792.146	87.15
792.324	89.4
792.501	94.9
792.678	95.56
792.855	95.29
793.032	90.27
793.209	89.28
793.387	91.72
793.564	94.93
793.741	93.44
793.918	96.28
794.095	98.39
794.272	101.44
794.449	97.44
794.626	94.76
794.803	90.72
794.98	89.77
795.157	89.32
795.334	89.41
795.511	83.89
795.688	84.74
795.864	80.09
796.041	82.49
796.218	79.45
796.395	80.69
796.572	81.33
796.749	87.46
796.925	88.31
797.102	86.31
797.279	79.57
797.456	81.34
797.632	78.2
797.809	79.7
797.986	79.24
798.162	76.32
798.339	77.11
798.516	77.37
798.692	76.24
798.869	76.31
799.046	78.76
799.222	82.64
799.399	82.12
799.575	82.6
799.752	81.12
799.928	81.33
800.105	83.95
800.281	83.1
800.458	80.48
800.634	77.41
800.811	76.35
800.987	76.35
801.163	76.22
801.34	76.77
801.516	81.95
801.692	82.29
801.869	77.22
802.045	76.96
802.221	76.07
802.398	80.32
802.574	82.86
802.75	86.29
802.926	86.63
803.103	89.35
803.279	89.3
803.455	87.76
803.631	83.69
803.807	87.04
803.983	87.2
804.16	84.62
804.336	81.68
804.512	78.82
804.688	75.77
804.864	72.33
805.04	69.28
805.216	66.12
805.392	64.37
805.568	67.1
805.744	69.03
805.92	73.99
806.096	75.96
806.272	73.33
806.448	73.66
806.623	73.93
806.799	75.43
806.975	76.33
807.151	75.48
807.327	77.25
807.503	78.31
807.678	77.09
807.854	75.55
808.03	78.68
808.206	82.82
808.381	86.38
808.557	87.16
808.733	91.31
808.908	90.9
809.084	95.67
809.26	94.96
809.435	102.46
809.611	100.23
809.787	99.24
809.962	96.75
810.138	97.04
810.313	94.12
810.489	91.24
810.664	87.37
810.84	87.84
811.015	89.41
811.191	88.25
811.366	81.09
811.542	79.87
811.717	76.07
811.892	74.62
812.068	75.73
812.243	76.7
812.419	79.08
812.594	78.26
812.769	73.77
812.944	71.65
813.12	72
813.295	76.51
813.47	79.25
813.645	77.9
813.821	81.14
813.996	78.34
814.171	81.91
814.346	81.47
814.521	83.8
814.697	87.43
814.872	88.82
815.047	89.56
815.222	89.6
815.397	89.03
815.572	86.76
815.747	86.22
815.922	84.5
816.097	87.11
816.272	90.02
816.447	89.89
816.622	92.92
816.797	92.29
816.972	90.83
817.147	85.27
817.322	87.04
817.496	92.36
817.671	88.19
817.846	87.06
818.021	79.08
818.196	74.3
818.371	73.5
818.545	70.55
818.72	69.92
818.895	70.14
819.069	73.99
819.244	72.03
819.419	68.94
819.594	69.65
819.768	67
819.943	63.73
820.117	62.46
820.292	58.37
820.467	54.97
820.641	52.23
820.816	50.78
820.99	47.76
821.165	46.58
821.339	46
821.514	45.62
821.688	45.04
821.863	44.92
822.037	44.13
822.212	44.23
822.386	44.91
822.56	45.34
822.735	45.03
822.909	46.07
823.084	45.36
823.258	44.8
823.432	44.95
823.606	44.74
823.781	45.28
823.955	45.91
824.129	46.58
824.303	46.14
824.478	45.91
824.652	45.74
824.826	45.1
825	45.53
825.174	47.76
825.348	46.06
825.523	47.33
825.697	47.62
825.871	46.7
826.045	48.14
826.219	49.86
826.393	50.93
826.567	50.6
826.741	52.74
826.915	54.32
827.089	54.18
827.263	56.01
827.437	56.27
827.611	55.65
827.784	56.69
827.958	55.58
828.132	54.85
828.306	54.52
828.48	58.24
828.654	58.29
828.827	59.31
829.001	59.05
829.175	59.49
829.349	59.98
829.522	59.87
829.696	62.19
829.87	63.78
830.044	66.58
830.217	66.91
830.391	68.87
830.565	65.03
830.738	65.8
830.912	69.84
831.085	73.37
831.259	73.44
831.432	74.61
831.606	70.19
831.779	66.6
831.953	63.99
832.126	65.18
832.3	58.17
832.473	59.88
832.647	58.69
832.82	56.45
832.994	55.59
833.167	56.08
833.34	58.22
833.514	59.98
833.687	60.42
833.86	59.66
834.034	59.92
834.207	61.81
834.38	62.35
834.553	62.62
834.727	65.48
834.9	64.1
835.073	62.15
835.246	59.54
835.419	59.91
835.593	61.62
835.766	63.7
835.939	58.4
836.112	58.81
836.285	54.97
836.458	54.48
836.631	46.52
836.804	45.43
836.977	46.26
837.15	49.15
837.323	51.69
837.496	55.7
837.669	49.65
837.842	55.3
838.015	58.21
838.188	62.54
838.361	65.37
838.533	68.48
838.706	70.03
838.879	72.67
839.052	76.36
839.225	76.33
839.398	70.33
839.57	74.27
839.743	73.36
839.916	67.44
840.088	68.51
840.261	66.31
840.434	67.11
840.607	65.46
840.779	67.02
840.952	64.3
841.124	62.69
841.297	69.33
841.47	75.09
841.642	79.92
841.815	91.3
841.987	90.03
842.16	93.1
842.332	95.11
842.505	95.41
842.677	91.9
842.85	98.43
843.022	95.52
843.194	96.76
843.367	94.45
843.539	96.96
843.712	102.9
843.884	102.54
844.056	107.62
844.229	107.71
844.401	114.49
844.573	120.26
844.745	118.54
844.918	115.46
845.09	106.8
845.262	110.29
845.434	109.58
845.606	109.69
845.779	106.12
845.951	101.42
846.123	98.54
846.295	97.17
846.467	103.43
846.639	95.53
846.811	99.27
846.983	109.48
847.155	112.41
847.327	114.14
847.499	108.19
847.671	116.82
847.843	114.08
848.015	112.94
848.187	121.55
848.359	112.77
848.531	108.66
848.703	102.22
848.875	101.33
849.047	104.36
849.218	103.8
849.39	103.87
849.562	98.9
849.734	106.73
849.905	108.76
850.077	105.43
850.249	113.5
850.421	122.03
850.592	128.76
850.764	132.13
850.936	112.88
851.107	118.72
851.279	105.78
851.451	104.92
851.622	93.81
851.794	95.91
851.965	93.79
852.137	82.62
852.308	93.08
852.48	92.48
852.651	82.14
852.823	86.83
852.994	67.89
853.166	74.74
853.337	79.01
853.509	87.7
853.68	102.74
853.851	109.84
854.023	117.71
854.194	110.26
854.365	111.44
854.537	123.41
854.708	119.51
854.879	136.69
855.05	133.09
855.222	129.24
855.393	119.79
855.564	98
855.735	90.49
855.906	90.45
856.078	92.33
856.249	101.84
856.42	93.95
856.591	97.96
856.762	92.05
856.933	93.98
857.104	90.7
857.275	95.02
857.446	100.09
857.617	97.68
857.788	99.16
857.959	94.42
858.13	85.26
858.301	91.8
858.472	79.67
858.643	85.75
858.814	82.86
858.985	81.92
859.155	94.5
859.326	91.19
859.497	93.63
859.668	95.37
859.839	90.96
860.009	88.07
860.18	96.93
860.351	104.38
860.522	102.33
860.692	106.4
860.863	105.26
861.034	103.61
861.204	111.41
861.375	119.16
861.546	112.45
861.716	111.42
861.887	126.2
862.057	112.59
862.228	118.43
862.398	100.47
862.569	94.5
862.739	104.9
862.91	111.77
863.08	93.74
863.251	92.61
863.421	91.37
863.592	104.4
863.762	93.74
863.932	91.64
864.103	89.21
864.273	108.22
864.443	103.27
864.614	90.79
864.784	90.19
864.954	96.5
865.125	80.04
865.295	73.46
865.465	64.34
865.635	78.43
865.805	75.51
865.976	77.79
866.146	78.42
866.316	84.54
866.486	84.1
866.656	79.3
866.826	88.21
866.996	100.68
867.166	111.13
867.336	102.24
867.506	94.4
867.676	101.01
867.846	96.01
868.016	107.13
868.186	104.34
868.356	119.69
868.526	119.3
868.696	106.33
868.866	86.92
869.036	84.06
869.206	99.24
869.376	92.69
869.545	96.29
869.715	106.91
869.885	93.99
870.055	106.02
870.224	97.49
870.394	93.12
870.564	103.84
870.734	110.28
870.903	109.03
871.073	104.98
871.243	115.5
871.412	103.09
871.582	91.13
871.751	86.9
871.921	85.19
872.091	79.49
872.26	79.44
872.43	80.62
872.599	79.98
872.769	81.05
872.938	74.89
873.108	82.76
873.277	91.62
873.446	110.66
873.616	112.79
873.785	98.37
873.955	94.45
874.124	96.65
874.293	94.51
874.463	87.95
874.632	89.03
874.801	100.25
874.971	94.29
875.14	81.97
875.309	75.39
875.478	75.39
875.647	77.87
875.817	72.48
875.986	68.34
876.155	75.12
876.324	83.5
876.493	81.2
876.662	81.44
876.831	80.42
877	88.59
877.17	97.53
877.339	93.85
877.508	97.12
877.677	99.52
877.846	101.89
878.015	92.93
878.184	86.58
878.352	91.35
878.521	81.83
878.69	70.8
878.859	70.11
879.028	70.58
879.197	71.37
879.366	68.49
879.534	67.55
879.703	68.27
879.872	64.06
880.041	62.5
880.21	57.49
880.378	53.76
880.547	52.9
880.716	49.58
880.884	46.73
881.053	44.13
881.222	41.45
881.39	41.29
881.559	39.82
881.727	38.63
881.896	38.34
882.065	38.66
882.233	39.43
882.402	39.43
882.57	40.26
882.739	39.63
882.907	41.47
883.076	44.28
883.244	43.42
883.412	43.64
883.581	43.54
883.749	44.41
883.918	41.95
884.086	40.33
884.254	41.15
884.423	42.98
884.591	43.97
884.759	42.88
884.927	41.39
885.096	42.49
885.264	39.22
885.432	40.55
885.6	44.06
885.769	50.8
885.937	58.49
886.105	59.29
886.273	56.67
886.441	58.88
886.609	59.32
886.777	62.62
886.945	64.58
887.113	78.81
887.281	80.62
887.449	70.73
887.617	65.75
887.785	56.79
887.953	63.98
888.121	66.04
888.289	66.08
888.457	67.65
888.625	68.7
888.793	69.95
888.961	67.13
889.129	71.09
889.296	73.43
889.464	74.59
889.632	80.55
889.8	83.65
889.967	81.45
890.135	78.42
