Data from JASIL_3151_Reflection_1.txt Node
Date: Thu Nov 12 21:23:19 EST 2015
User: Geneva
Spectrometer: USB4E03002
Autoset integration time: false
Trigger mode: 4
Integration Time (sec): 1.000000E-1
Scans to average: 10
Electric dark correction enabled: true
Nonlinearity correction enabled: false
Boxcar width: 5
Stray light correction enabled: false
XAxis mode: Wavelengths
Stop averaging: false
Number of Pixels in Spectrum: 3648
>>>>>Begin Spectral Data<<<<<
177.575	75.46
177.794	92.43
178.014	74.24
178.233	6.68
178.452	-8204.35
178.672	-68.67
178.891	-17.01
179.11	-138.29
179.33	-71.69
179.549	-181.28
179.768	519.45
179.987	94.75
180.207	-10.35
180.426	36.79
180.645	23.83
180.864	20.98
181.084	29.48
181.303	16.59
181.522	29.59
181.741	22.77
181.96	21.51
182.179	12.73
182.398	10.44
182.618	-11.93
182.837	-21.04
183.056	-10.33
183.275	-39.44
183.494	-32.05
183.713	-50.83
183.932	-73.59
184.151	-35.49
184.37	-101.8
184.589	-46.58
184.808	-41.09
185.027	-23.2
185.246	2.91
185.465	-26.7
185.684	-3.62
185.903	-17.82
186.122	29.93
186.341	51.36
186.56	43.46
186.779	110.05
186.998	108.12
187.216	126.74
187.435	243.7
187.654	198.16
187.873	241.51
188.092	119.44
188.311	120.39
188.53	138.18
188.748	151.52
188.967	118.8
189.186	-25.74
189.405	-52.95
189.623	-38.71
189.842	-40.18
190.061	-74.52
190.28	-23.52
190.498	-53.89
190.717	-79.73
190.936	-84.41
191.154	-76.05
191.373	-10.43
191.592	-8.3
191.81	9.2
192.029	17.04
192.248	43.71
192.466	50.8
192.685	70.14
192.904	75.66
193.122	88.54
193.341	114
193.559	120.04
193.778	206.18
193.996	159.12
194.215	105.1
194.433	73.13
194.652	-56.03
194.87	-45.78
195.089	-73.46
195.307	-52.71
195.526	-71.49
195.744	-96.51
195.963	-43.99
196.181	-45.59
196.399	-10.35
196.618	4.99
196.836	38.86
197.055	41.95
197.273	40.46
197.491	61.34
197.71	88.75
197.928	125.22
198.146	90.32
198.365	703.81
198.583	-368.92
198.801	-239.48
199.019	-2.88
199.238	76.59
199.456	112.61
199.674	7.9
199.892	-13.5
200.111	-708.86
200.329	-1941.74
200.547	-72.83
200.765	-205.08
200.983	-693.67
201.202	-181.12
201.42	-19.65
201.638	14.73
201.856	36.94
202.074	28.06
202.292	-101.21
202.51	-50.71
202.728	-18.16
202.946	21.04
203.165	13.42
203.383	74.76
203.601	70.53
203.819	84.45
204.037	79.98
204.255	63.27
204.473	68.76
204.691	91.41
204.909	124.46
205.127	109.67
205.345	84.62
205.562	76.33
205.78	21.21
205.998	38.65
206.216	61.59
206.434	5.55
206.652	14.24
206.87	7.06
207.088	33.97
207.306	-2.6
207.523	4.91
207.741	-0.79
207.959	-10.36
208.177	-31.08
208.395	-33.29
208.612	-75.61
208.83	-363.26
209.048	173.95
209.266	-4282.14
209.483	35.74
209.701	-60.27
209.919	1272.08
210.136	-103.35
210.354	-50.41
210.572	5362.96
210.79	1760.61
211.007	-25.12
211.225	55.62
211.442	84.11
211.66	138.11
211.878	-25.87
212.095	105.12
212.313	91.61
212.53	100.25
212.748	112.54
212.966	130.84
213.183	140.56
213.401	137.55
213.618	141.39
213.836	111.58
214.053	98.24
214.271	116.97
214.488	80.56
214.705	101.6
214.923	85.85
215.14	68.56
215.358	47.7
215.575	55.64
215.793	69.22
216.01	97.54
216.227	189.38
216.445	369.71
216.662	152.18
216.879	106.67
217.097	114.83
217.314	310.68
217.531	965.71
217.749	811.5
217.966	168.81
218.183	108.81
218.4	98.56
218.618	142.02
218.835	189.41
219.052	181.24
219.269	517.33
219.487	121.14
219.704	49.25
219.921	27.34
220.138	51.78
220.355	76.79
220.572	95.83
220.79	28.27
221.007	49.1
221.224	51.72
221.441	64.93
221.658	65.03
221.875	54.31
222.092	46.62
222.309	-5.87
222.526	4.15
222.743	-44.42
222.96	-29
223.177	33.94
223.394	33.35
223.611	-54.15
223.828	-103.11
224.045	-1149.78
224.262	53.78
224.479	36.69
224.696	36.86
224.913	34.44
225.13	-102.46
225.347	-143.78
225.564	-76.59
225.781	-21.28
225.997	-36.85
226.214	-40.04
226.431	-68.68
226.648	-114.73
226.865	-89.36
227.082	-83.31
227.298	-31.93
227.515	-12.29
227.732	2.02
227.949	4.61
228.165	-1.13
228.382	5.07
228.599	8.89
228.816	5.22
229.032	6.41
229.249	6.81
229.466	10.02
229.682	4.86
229.899	4.62
230.116	2.05
230.332	3.52
230.549	1.92
230.765	10.35
230.982	12.3
231.199	26.99
231.415	28.6
231.632	33.49
231.848	29.12
232.065	45.5
232.281	48.29
232.498	51.01
232.714	36.4
232.931	40.59
233.147	29.61
233.364	19.56
233.58	11.99
233.797	11.67
234.013	-1.96
234.23	11.28
234.446	-24.48
234.662	-57.56
234.879	-51.06
235.095	-9.39
235.312	-19.37
235.528	28.8
235.744	34.05
235.961	33.86
236.177	2.34
236.393	26.39
236.61	15.51
236.826	39.91
237.042	54.87
237.258	71.98
237.475	57.87
237.691	47.26
237.907	74.39
238.123	52.4
238.339	48.08
238.556	53.95
238.772	28.32
238.988	42.15
239.204	37.52
239.42	20.03
239.636	9.81
239.853	6.4
240.069	0.01
240.285	-12.04
240.501	-5.74
240.717	-5.47
240.933	-3.99
241.149	7.39
241.365	4.82
241.581	4.12
241.797	5.12
242.013	4.57
242.229	9.19
242.445	9.9
242.661	8.18
242.877	6.86
243.093	10.69
243.309	10.91
243.525	1.29
243.741	5.7
243.957	4.69
244.173	0.63
244.388	-1.12
244.604	4.49
244.82	1.99
245.036	2.6
245.252	5.04
245.468	6.82
245.683	9.08
245.899	12.76
246.115	7.34
246.331	6.4
246.547	5.83
246.762	5.77
246.978	4.72
247.194	5.58
247.409	3.48
247.625	1.19
247.841	-2.15
248.057	-7.12
248.272	-7.42
248.488	-5.37
248.703	-2.77
248.919	-0.49
249.135	0.62
249.35	1.15
249.566	4.72
249.782	8.42
249.997	13.07
250.213	12.54
250.428	13.93
250.644	-3.9
250.859	-0.43
251.075	-5.01
251.29	-2.42
251.506	-3.06
251.721	-2.36
251.937	-1.46
252.152	4.97
252.368	-2.49
252.583	-6.76
252.798	-5.33
253.014	4.8
253.229	-6.16
253.445	-4.55
253.66	3.5
253.875	4.11
254.091	2.82
254.306	12.52
254.521	-1.74
254.737	6.98
254.952	10.71
255.167	4.34
255.383	13.18
255.598	20.54
255.813	14.32
256.028	9.73
256.244	5.7
256.459	3.74
256.674	-4.48
256.889	1.24
257.104	3.17
257.32	9.88
257.535	13.56
257.75	2.42
257.965	1.55
258.18	3.07
258.395	1.69
258.61	3.38
258.826	5.37
259.041	4.45
259.256	3.87
259.471	3.7
259.686	-1
259.901	0.07
260.116	3.21
260.331	4.24
260.546	5.95
260.761	7.72
260.976	8.87
261.191	7.41
261.406	9.11
261.621	1.93
261.836	0.33
262.05	3.17
262.265	-1.63
262.48	4.86
262.695	1.16
262.91	2.08
263.125	2.25
263.34	-1.36
263.555	-2.79
263.769	-6.62
263.984	3.27
264.199	5.82
264.414	7.77
264.629	8.6
264.843	3.68
265.058	2.55
265.273	-0.81
265.488	-7.12
265.702	-1.35
265.917	-2.3
266.132	-5.61
266.346	-3.46
266.561	-6.03
266.776	-7.87
266.99	-7.63
267.205	-4.72
267.42	-2.91
267.634	-4.3
267.849	-2.45
268.063	-7.61
268.278	-5.72
268.492	-5.76
268.707	-5.78
268.922	-5.3
269.136	-3.67
269.351	0.51
269.565	-0.66
269.78	-1.46
269.994	-2.15
270.209	-0.64
270.423	2.4
270.637	1.7
270.852	4.95
271.066	3.49
271.281	1.28
271.495	-1.76
271.709	-6.16
271.924	-7.77
272.138	-5.49
272.353	-7.3
272.567	-7.47
272.781	-8.67
272.996	-9.7
273.21	-11.76
273.424	-10.51
273.638	-6.66
273.853	-4.05
274.067	-3.96
274.281	0.12
274.495	-0.29
274.71	4.58
274.924	3.76
275.138	5.71
275.352	4.98
275.566	8.16
275.781	6.98
275.995	8.04
276.209	4.56
276.423	0.82
276.637	-4.26
276.851	-2.52
277.065	-10.33
277.279	-15.43
277.493	-17.43
277.707	-11.6
277.921	-12.19
278.135	-11.13
278.349	-5.5
278.563	-0.76
278.777	5.54
278.991	5.22
279.205	2
279.419	4.75
279.633	8.73
279.847	9.01
280.061	6.35
280.275	5.29
280.489	3.97
280.703	-9.92
280.917	-5.88
281.131	-5.67
281.344	-6.83
281.558	-3.88
281.772	-4.2
281.986	-6.54
282.2	-7.96
282.414	-7.01
282.627	-5.38
282.841	-4.57
283.055	4.81
283.269	0.86
283.482	-0.4
283.696	1.29
283.91	0.44
284.123	-2.88
284.337	-0.38
284.551	-0.03
284.764	2.87
284.978	3.9
285.192	5.82
285.405	3.07
285.619	4.41
285.833	7.52
286.046	11.15
286.26	11.34
286.473	15.9
286.687	14.49
286.9	14.74
287.114	11.83
287.327	9.61
287.541	8.82
287.754	8.43
287.968	6.97
288.181	4.05
288.395	-2.13
288.608	-0.18
288.822	-1.98
289.035	-5.12
289.248	-5.37
289.462	-5.34
289.675	-3.5
289.889	-4.03
290.102	-4.1
290.315	-1.76
290.529	-0.53
290.742	1.64
290.955	1
291.169	3.17
291.382	7.18
291.595	9.98
291.808	10.86
292.022	8.8
292.235	10.56
292.448	13.48
292.661	10.06
292.875	7.36
293.088	8.31
293.301	7.36
293.514	3.49
293.727	2.81
293.94	-2.66
294.153	-2.72
294.367	-2.96
294.58	-4.64
294.793	-5.77
295.006	-6.02
295.219	-4.71
295.432	-5.63
295.645	-6.19
295.858	-2.65
296.071	-3.56
296.284	-2.02
296.497	-0.33
296.71	0.28
296.923	1.46
297.136	0.52
297.349	2.3
297.562	4.89
297.775	5.52
297.988	5.95
298.201	3.48
298.414	5.43
298.626	7.49
298.839	6.65
299.052	9.69
299.265	8.25
299.478	11.09
299.691	7.69
299.903	3.43
300.116	3.54
300.329	6.29
300.542	9.02
300.755	7.5
300.967	6.25
301.18	6.66
301.393	5.09
301.605	7.13
301.818	5.74
302.031	8.89
302.243	9.5
302.456	9.54
302.669	8.17
302.881	5.57
303.094	5.52
303.307	5.41
303.519	3.62
303.732	1.33
303.944	0.04
304.157	-2.06
304.37	-4.1
304.582	-2.3
304.795	-4.09
305.007	-4.02
305.22	-0.14
305.432	-0.27
305.645	-1.12
305.857	-0.18
306.069	2.1
306.282	1.92
306.494	5.96
306.707	8.08
306.919	8
307.132	5.69
307.344	3.46
307.556	1.45
307.769	0.67
307.981	0.47
308.193	-1.93
308.406	-2.59
308.618	-1.98
308.83	-2.8
309.043	-4.86
309.255	-4.73
309.467	-5.9
309.679	-4.43
309.892	-2.09
310.104	-1.29
310.316	-0.32
310.528	1.3
310.74	1.24
310.953	0.23
311.165	-0.61
311.377	1.89
311.589	2.26
311.801	3.22
312.013	1.56
312.225	-1.66
312.437	-1.95
312.649	-3.62
312.862	-2.85
313.074	-3.87
313.286	-1.25
313.498	0.07
313.71	-4.9
313.922	-8.17
314.134	-5.93
314.346	-5.9
314.558	-3.33
314.77	-0.81
314.982	-0.35
315.193	-1.58
315.405	-3.06
315.617	-3.89
315.829	-5.17
316.041	-1.18
316.253	3.86
316.465	2.02
316.677	1.72
316.888	1.92
317.1	5.28
317.312	5.14
317.524	4.66
317.736	5.26
317.947	2.6
318.159	3.2
318.371	5.66
318.583	5.14
318.794	7.65
319.006	10.44
319.218	10.58
319.43	7.51
319.641	5.33
319.853	7.59
320.064	12.88
320.276	14.11
320.488	12.2
320.699	10.77
320.911	8.58
321.123	6.44
321.334	4.09
321.546	3.5
321.757	3.72
321.969	9.05
322.18	8.41
322.392	6.15
322.603	2.48
322.815	5.29
323.026	5.05
323.238	3.41
323.449	3.72
323.661	3.98
323.872	4.09
324.083	2.23
324.295	2.54
324.506	2
324.718	0.5
324.929	4.78
325.14	4.65
325.352	4.43
325.563	6.52
325.774	8.25
325.986	10.26
326.197	10.3
326.408	12.64
326.62	10.21
326.831	8.84
327.042	9.49
327.253	7.6
327.464	7.52
327.676	7.7
327.887	7.74
328.098	7.53
328.309	7.73
328.52	8.44
328.732	6.19
328.943	6.58
329.154	8.47
329.365	9.38
329.576	10.36
329.787	9.72
329.998	8.2
330.209	9.69
330.42	10.41
330.631	7.01
330.842	7.54
331.053	7.95
331.264	8.76
331.475	9.31
331.686	8.31
331.897	9.07
332.108	11.2
332.319	13.89
332.53	11.79
332.741	11.55
332.952	13.77
333.163	12.89
333.374	13.71
333.585	12.33
333.795	9.53
334.006	8.99
334.217	9.57
334.428	8.54
334.639	4.4
334.849	5.99
335.06	6.69
335.271	4.15
335.482	3.76
335.692	1.76
335.903	3.27
336.114	6.65
336.325	8.15
336.535	9.67
336.746	6.98
336.957	8.92
337.167	9.83
337.378	6.95
337.589	10.63
337.799	12.06
338.01	13.31
338.22	14.62
338.431	14.19
338.642	12.35
338.852	12.26
339.063	15.55
339.273	15.51
339.484	14.68
339.694	15.48
339.905	12.84
340.115	9.38
340.326	10.21
340.536	8.84
340.746	8.14
340.957	9.21
341.167	7.11
341.378	5.36
341.588	6.15
341.799	3.24
342.009	2.61
342.219	4.18
342.43	7.97
342.64	8.86
342.85	9.71
343.061	9.44
343.271	8.07
343.481	8.64
343.691	7.54
343.902	7.5
344.112	9.97
344.322	12.06
344.532	11.53
344.743	10.22
344.953	9.37
345.163	10.41
345.373	10.48
345.583	12.05
345.793	12.8
346.004	13.37
346.214	14.11
346.424	15
346.634	16.79
346.844	17.39
347.054	18.88
347.264	18.96
347.474	18.89
347.684	19.63
347.894	17.86
348.104	15.88
348.314	15.83
348.524	16.06
348.734	15.2
348.944	14.09
349.154	15.55
349.364	14.77
349.574	15.17
349.784	14.54
349.994	14.63
350.204	16.36
350.413	16.71
350.623	16.35
350.833	15.56
351.043	16.83
351.253	16.18
351.463	15.37
351.672	15.03
351.882	15.52
352.092	13.69
352.302	11.05
352.511	9.75
352.721	7.56
352.931	8.41
353.141	9.39
353.35	7.88
353.56	6.24
353.77	4.27
353.979	3.36
354.189	1.31
354.399	2.61
354.608	3.6
354.818	2.98
355.027	6.32
355.237	6.23
355.447	5.72
355.656	4.94
355.866	5.94
356.075	7.35
356.285	8.58
356.494	8.71
356.704	9.65
356.913	10.29
357.123	11.56
357.332	10.78
357.542	10.69
357.751	10.63
357.96	11.33
358.17	13.28
358.379	15.03
358.589	14.74
358.798	14.83
359.007	13.79
359.217	14.55
359.426	14.23
359.635	14.4
359.845	15.09
360.054	15.36
360.263	15.11
360.472	14.33
360.682	13.7
360.891	13.22
361.1	14.24
361.309	15.39
361.519	14.97
361.728	14.72
361.937	14.96
362.146	14.55
362.355	14.51
362.564	14.91
362.774	14.19
362.983	12.39
363.192	12.24
363.401	11.48
363.61	9.95
363.819	8.93
364.028	10.82
364.237	9.92
364.446	9.77
364.655	8.73
364.864	9.43
365.073	11.09
365.282	12.23
365.491	12.17
365.7	11.81
365.909	13.56
366.118	14.55
366.327	13.57
366.536	14.87
366.745	15.79
366.954	15.98
367.162	14.62
367.371	14.17
367.58	13.88
367.789	14.21
367.998	15.63
368.207	14.02
368.415	13.18
368.624	13.74
368.833	11.98
369.042	10.9
369.25	12.17
369.459	13.71
369.668	12.54
369.877	12.05
370.085	13.16
370.294	12.66
370.503	12.89
370.711	12.44
370.92	12.73
371.129	14.11
371.337	13.46
371.546	13.54
371.754	14.09
371.963	13.13
372.171	14.15
372.38	12.84
372.589	11.11
372.797	10.57
373.006	10.64
373.214	9.09
373.423	8.85
373.631	9.52
373.84	8.9
374.048	7.19
374.256	8.67
374.465	7.87
374.673	7.81
374.882	8.7
375.09	10.02
375.298	10.62
375.507	11.89
375.715	11.96
375.923	12.06
376.132	11.99
376.34	12.89
376.548	12.99
376.757	13.21
376.965	14.35
377.173	13.63
377.381	13.2
377.59	13.13
377.798	12.28
378.006	12.63
378.214	12.09
378.423	12.42
378.631	12.54
378.839	10.52
379.047	10.86
379.255	10.29
379.463	11.99
379.671	10.39
379.879	10.54
380.088	10.94
380.296	10.97
380.504	11.54
380.712	11.52
380.92	10.89
381.128	13.42
381.336	13.63
381.544	13.48
381.752	12.42
381.96	15.47
382.168	15.93
382.376	14.89
382.584	14.29
382.791	14.42
382.999	14.13
383.207	13.26
383.415	13.57
383.623	12.51
383.831	11.93
384.039	12.42
384.247	10.22
384.454	10.34
384.662	11.88
384.87	11.44
385.078	10.86
385.285	10.98
385.493	11.36
385.701	11.65
385.909	12.3
386.116	12.93
386.324	12.65
386.532	13.37
386.739	13.36
386.947	11.53
387.155	11.89
387.362	11.94
387.57	11.54
387.778	11.49
387.985	10.16
388.193	8.54
388.4	7.99
388.608	8.1
388.816	8.07
389.023	7.59
389.231	8.85
389.438	7.55
389.646	7.21
389.853	7.48
390.061	7.79
390.268	7.29
390.475	9.06
390.683	9.33
390.89	9.02
391.098	9.01
391.305	9.63
391.512	9.3
391.72	9.9
391.927	10.67
392.135	10.77
392.342	11.22
392.549	11.94
392.756	12.5
392.964	12.51
393.171	12.31
393.378	11.27
393.586	10.21
393.793	9.97
394	10.76
394.207	11.39
394.414	11.01
394.622	10.47
394.829	9.28
395.036	8.59
395.243	8.05
395.45	8.83
395.657	9.29
395.864	9.68
396.072	10.79
396.279	10.27
396.486	9.58
396.693	9.55
396.9	9.51
397.107	9.94
397.314	10.52
397.521	11.61
397.728	10.72
397.935	10.81
398.142	10.51
398.349	10.87
398.556	11.22
398.763	11.89
398.97	12.01
399.177	12.06
399.383	12.61
399.59	12.59
399.797	12.21
400.004	12.64
400.211	13.15
400.418	13.57
400.625	12.25
400.831	12.22
401.038	11.87
401.245	11.38
401.452	10.89
401.658	10.57
401.865	10.38
402.072	9.97
402.279	9.46
402.485	8.56
402.692	8.92
402.899	8.8
403.105	9.3
403.312	9.09
403.519	8.58
403.725	8.76
403.932	8.64
404.138	7.36
404.345	7.91
404.552	9.29
404.758	9.1
404.965	8.69
405.171	9.66
405.378	9.32
405.584	8.57
405.791	9.63
405.997	9.74
406.204	9.22
406.41	9.86
406.617	9.61
406.823	9.25
407.029	10.41
407.236	10.79
407.442	10.01
407.649	9.85
407.855	10.79
408.061	9.99
408.268	10.78
408.474	12.41
408.68	12.82
408.887	13.46
409.093	13.59
409.299	12.77
409.505	12.88
409.712	13.75
409.918	13.68
410.124	13.14
410.33	13.57
410.537	13.35
410.743	12.72
410.949	12.79
411.155	11.82
411.361	12.09
411.567	12.33
411.773	12.14
411.98	12.54
412.186	12.96
412.392	13.81
412.598	14
412.804	13.83
413.01	13.25
413.216	13.24
413.422	13.69
413.628	12.76
413.834	12.38
414.04	12.53
414.246	11.66
414.452	11.71
414.658	11.7
414.864	11.15
415.07	11.92
415.275	12.87
415.481	13.48
415.687	13.58
415.893	13.57
416.099	14.05
416.305	13.54
416.511	13.75
416.716	13.59
416.922	12.95
417.128	12.97
417.334	12.41
417.539	12.14
417.745	11.95
417.951	12.17
418.157	12.41
418.362	12.68
418.568	12.73
418.774	12.66
418.979	12.77
419.185	12.96
419.391	13.58
419.596	13.85
419.802	14.22
420.008	14.05
420.213	9.69
420.419	9.76
420.624	9.89
420.83	10.17
421.035	9.83
421.241	9.75
421.446	9.75
421.652	9.37
421.857	9.27
422.063	9.01
422.268	8.88
422.474	13.1
422.679	13.29
422.885	13.14
423.09	12.91
423.295	13.58
423.501	13.13
423.706	13.19
423.911	13.05
424.117	13.05
424.322	12.9
424.527	13.27
424.733	13.06
424.938	13.1
425.143	12.75
425.349	13.14
425.554	12.65
425.759	13.26
425.964	13.31
426.169	13.88
426.375	14.01
426.58	14.07
426.785	13.66
426.99	13.61
427.195	13.33
427.4	13.08
427.605	12.48
427.811	13.24
428.016	13.19
428.221	12.29
428.426	11.48
428.631	11.31
428.836	12.21
429.041	12.8
429.246	12.85
429.451	12.75
429.656	13.87
429.861	14.04
430.066	13.47
430.271	13.61
430.476	14.61
430.681	15.07
430.886	14.92
431.09	14.4
431.295	14.04
431.5	14.1
431.705	14
431.91	13.73
432.115	13.74
432.32	13.93
432.524	13.94
432.729	13.72
432.934	13.56
433.139	13.46
433.343	13.03
433.548	12.63
433.753	12.37
433.958	12.93
434.162	12.84
434.367	12.91
434.572	12.61
434.776	12.65
434.981	12.34
435.186	12.82
435.39	12.5
435.595	12.6
435.799	12.88
436.004	13.35
436.209	13.21
436.413	12.99
436.618	12.86
436.822	12.68
437.027	12.12
437.231	12.92
437.436	12.74
437.64	13.03
437.845	12.95
438.049	13.42
438.253	13.95
438.458	13.79
438.662	14.08
438.867	14.53
439.071	14.37
439.275	14.42
439.48	14.26
439.684	14.09
439.888	13.93
440.093	14.07
440.297	13.8
440.501	13.5
440.706	13.34
440.91	12.77
441.114	12.33
441.318	12.68
441.523	12.51
441.727	12.67
441.931	12.95
442.135	13.77
442.339	13.79
442.543	14.06
442.748	13.68
442.952	13.94
443.156	14.46
443.36	14.53
443.564	14.35
443.768	14.8
443.972	14.19
444.176	14.04
444.38	13.61
444.584	13.82
444.788	13.67
444.992	13.86
445.196	13.62
445.4	13.47
445.604	13.89
445.808	13.95
446.012	14.03
446.216	14.16
446.42	13.9
446.624	13.69
446.828	13.19
447.032	13.08
447.235	13.12
447.439	13.05
447.643	13.09
447.847	12.36
448.051	12.33
448.254	12.12
448.458	12.42
448.662	12.8
448.866	12.94
449.069	13.15
449.273	13.3
449.477	13.04
449.681	13.09
449.884	12.8
450.088	12.57
450.292	12.84
450.495	12.52
450.699	12.36
450.902	12.61
451.106	12.76
451.31	13.39
451.513	12.6
451.717	13.09
451.92	13.1
452.124	13.46
452.327	14.18
452.531	13.62
452.734	13.89
452.938	13.37
453.141	13.03
453.345	13.16
453.548	13.19
453.752	14.08
453.955	13.52
454.158	13.8
454.362	13.31
454.565	13.89
454.769	14.22
454.972	14.09
455.175	14.61
455.379	14.98
455.582	14.66
455.785	13.89
455.988	13.65
456.192	13.67
456.395	13.45
456.598	13.73
456.801	13.51
457.005	13.39
457.208	13.68
457.411	13.22
457.614	13.16
457.817	13.15
458.021	13.31
458.224	13.35
458.427	13.82
458.63	13.71
458.833	13.91
459.036	13.53
459.239	13.84
459.442	13.84
459.645	14.22
459.848	13.94
460.051	13.99
460.254	14.16
460.457	14.12
460.66	13.64
460.863	14.08
461.066	13.86
461.269	14.12
461.472	13.93
461.675	13.79
461.878	13.61
462.081	13.95
462.284	13.95
462.486	14
462.689	14.09
462.892	14.41
463.095	13.7
463.298	13.43
463.5	13.51
463.703	13.57
463.906	13.83
464.109	13.61
464.311	13.27
464.514	13.03
464.717	12.56
464.92	12.86
465.122	13.27
465.325	13.63
465.528	14.29
465.73	14.07
465.933	14.07
466.135	13.54
466.338	13.96
466.541	13.97
466.743	14.5
466.946	14.86
467.148	14.81
467.351	14.06
467.553	13.91
467.756	13.7
467.958	13.82
468.161	13.97
468.363	14.26
468.566	14.03
468.768	14.48
468.971	14.37
469.173	14.53
469.375	14.71
469.578	14.97
469.78	15.14
469.983	14.68
470.185	14.43
470.387	14.43
470.59	14.52
470.792	14.19
470.994	13.38
471.196	13.03
471.399	12.8
471.601	12.14
471.803	12.35
472.005	12.12
472.208	12.41
472.41	12.47
472.612	11.72
472.814	11.57
473.016	11.84
473.218	12.46
473.421	12.61
473.623	12.53
473.825	12.54
474.027	12.45
474.229	13.07
474.431	12.77
474.633	13.45
474.835	14.01
475.037	13.67
475.239	13.76
475.441	13.89
475.643	13.17
475.845	13.43
476.047	14.06
476.249	14.02
476.451	13.74
476.653	14.19
476.855	13.92
477.057	13.56
477.258	14.04
477.46	13.89
477.662	14.13
477.864	14.84
478.066	14.64
478.268	14.38
478.469	14.31
478.671	14.39
478.873	14.27
479.075	13.82
479.276	14.32
479.478	14.43
479.68	14.3
479.882	13.58
480.083	13.98
480.285	13.72
480.487	13.74
480.688	13.87
480.89	13.72
481.091	13.64
481.293	13.63
481.495	13.6
481.696	13.47
481.898	13.86
482.099	14.01
482.301	13.85
482.502	14.12
482.704	14.07
482.905	13.99
483.107	14.06
483.308	13.96
483.51	14.05
483.711	14.09
483.913	14.02
484.114	13.89
484.315	13.99
484.517	14.03
484.718	13.91
484.92	13.92
485.121	13.88
485.322	13.74
485.524	14
485.725	13.86
485.926	13.79
486.127	14.03
486.329	13.97
486.53	14.04
486.731	13.84
486.932	13.8
487.134	13.79
487.335	13.94
487.536	14.05
487.737	13.99
487.938	14.13
488.139	14.02
488.341	13.93
488.542	13.98
488.743	13.67
488.944	13.93
489.145	13.93
489.346	13.79
489.547	13.77
489.748	13.73
489.949	13.74
490.15	13.77
490.351	14.03
490.552	13.89
490.753	14
490.954	14.02
491.155	14.01
491.356	13.83
491.557	14
491.758	13.82
491.959	13.88
492.159	13.69
492.36	13.76
492.561	13.3
492.762	13.26
492.963	12.99
493.164	13.23
493.364	12.95
493.565	13.36
493.766	13.33
493.967	13.44
494.167	13.43
494.368	13.73
494.569	13.31
494.769	13.51
494.97	14.13
495.171	14.33
495.371	13.93
495.572	14
495.773	13.93
495.973	13.72
496.174	13.5
496.375	13.37
496.575	13.43
496.776	13.63
496.976	14.06
497.177	13.82
497.377	13.58
497.578	13.72
497.778	13.56
497.979	13.46
498.179	13.6
498.38	13.92
498.58	13.82
498.78	14.27
498.981	14.26
499.181	13.85
499.382	13.69
499.582	13.82
499.782	13.59
499.983	13.71
500.183	13.84
500.383	14.16
500.584	14.14
500.784	14.21
500.984	13.72
501.184	13.95
501.385	13.91
501.585	14.3
501.785	14.46
501.985	15.02
502.185	15.37
502.386	15.57
502.586	15.35
502.786	15.35
502.986	15.74
503.186	15.44
503.386	15.25
503.586	15.21
503.786	14.99
503.987	14.98
504.187	14.61
504.387	14.37
504.587	14.21
504.787	14.5
504.987	14.48
505.187	14.05
505.387	14.57
505.587	14.85
505.786	14.98
505.986	14.75
506.186	14.19
506.386	14.4
506.586	14.77
506.786	15.23
506.986	14.99
507.186	15.09
507.386	15.35
507.585	15.15
507.785	14.88
507.985	15.51
508.185	15.5
508.384	15.7
508.584	15.39
508.784	15.05
508.984	14.84
509.183	14.83
509.383	14.94
509.583	14.88
509.782	15.11
509.982	15.11
510.182	14.92
510.381	14.91
510.581	15.24
510.781	15.76
510.98	16.34
511.18	16.47
511.379	16.29
511.579	16.03
511.778	16.49
511.978	16.28
512.177	16.47
512.377	16.08
512.576	16.56
512.776	16.83
512.975	16.87
513.175	16.56
513.374	16.54
513.573	16.82
513.773	16.95
513.972	16.68
514.172	16.67
514.371	17.08
514.57	17.23
514.77	16.72
514.969	16.78
515.168	16.57
515.367	16.3
515.567	16.24
515.766	16.53
515.965	16.7
516.164	16.81
516.364	16.94
516.563	17.11
516.762	17.15
516.961	17.73
517.16	17.74
517.359	17.8
517.559	18.08
517.758	18.16
517.957	18.32
518.156	18.64
518.355	18.69
518.554	18.83
518.753	18.65
518.952	19.02
519.151	18.83
519.35	18.75
519.549	18.89
519.748	18.83
519.947	18.83
520.146	18.77
520.345	18.63
520.544	18.55
520.743	18.71
520.942	18.34
521.141	18.14
521.339	18.3
521.538	18.09
521.737	17.78
521.936	18.21
522.135	18.33
522.333	18.78
522.532	18.78
522.731	19.38
522.93	19.36
523.129	19.68
523.327	19.78
523.526	19.85
523.725	20.28
523.923	20.51
524.122	19.93
524.321	20.06
524.519	19.84
524.718	20.01
524.917	19.71
525.115	19.48
525.314	19.56
525.512	19.8
525.711	20.01
525.909	20.19
526.108	20.29
526.306	20.75
526.505	21
526.703	21.04
526.902	20.87
527.1	20.83
527.299	20.97
527.497	21.12
527.696	21.14
527.894	21.04
528.092	20.84
528.291	21.03
528.489	21.04
528.688	20.95
528.886	20.87
529.084	21.14
529.283	21.47
529.481	21.58
529.679	21.55
529.877	21.65
530.076	21.87
530.274	22.33
530.472	22.35
530.67	22.52
530.869	22.56
531.067	22.77
531.265	22.59
531.463	22.6
531.661	22.74
531.859	22.67
532.057	22.58
532.255	22.46
532.454	22.38
532.652	22.24
532.85	22.24
533.048	22.33
533.246	22.49
533.444	22.82
533.642	22.72
533.84	22.83
534.038	23.3
534.236	23.51
534.434	23.7
534.632	23.89
534.83	24.04
535.027	24.24
535.225	24.39
535.423	24.21
535.621	23.99
535.819	24.03
536.017	24.33
536.215	24.06
536.412	24.05
536.61	24.19
536.808	24.36
537.006	24.64
537.203	24.82
537.401	24.6
537.599	25.11
537.797	25.56
537.994	25.58
538.192	25.59
538.39	25.98
538.587	25.86
538.785	26.01
538.983	25.92
539.18	25.96
539.378	25.99
539.575	26.24
539.773	25.94
539.97	25.96
540.168	26.29
540.366	26.22
540.563	26.15
540.761	26.3
540.958	26.25
541.155	26.25
541.353	26.3
541.55	26.22
541.748	26.44
541.945	26.46
542.143	26.39
542.34	26.5
542.537	26.42
542.735	26.37
542.932	26.68
543.129	26.78
543.327	27
543.524	27.06
543.721	27.23
543.919	27.01
544.116	27.46
544.313	27.59
544.51	27.42
544.708	27.74
544.905	27.75
545.102	27.89
545.299	28.04
545.496	27.89
545.693	27.87
545.891	28.09
546.088	28.51
546.285	28.52
546.482	28.67
546.679	28.89
546.876	28.92
547.073	29.54
547.27	29.11
547.467	29.09
547.664	29.65
547.861	30.06
548.058	30.36
548.255	30.38
548.452	30.93
548.649	31.11
548.846	31.07
549.043	30.75
549.24	30.62
549.437	31.36
549.633	31.84
549.83	31.7
550.027	31.36
550.224	31.06
550.421	30.83
550.618	30.54
550.814	30.18
551.011	30.17
551.208	30.91
551.405	30.62
551.601	30.28
551.798	30.03
551.995	29.86
552.191	29.73
552.388	29.59
552.585	29.59
552.781	29.48
552.978	29.77
553.175	30.03
553.371	30.17
553.568	30.86
553.764	31.25
553.961	31.35
554.157	31.39
554.354	32.01
554.55	32.73
554.747	33.51
554.943	33.69
555.14	33.63
555.336	34.1
555.533	34.17
555.729	33.63
555.926	33.45
556.122	34.04
556.318	34.69
556.515	34.68
556.711	34.49
556.907	33.4
557.104	33.75
557.3	34.07
557.496	33.83
557.693	33.98
557.889	34.01
558.085	34.03
558.281	33.7
558.478	33.56
558.674	33.86
558.87	33.68
559.066	33.84
559.262	33.55
559.459	33.51
559.655	33.19
559.851	33.27
560.047	33.73
560.243	33.78
560.439	34.1
560.635	33.87
560.831	34.44
561.027	35.17
561.223	35.79
561.419	36.21
561.615	36.65
561.811	36.71
562.007	37.11
562.203	37.34
562.399	37.62
562.595	37.68
562.791	38.02
562.987	37.91
563.183	38
563.379	37.96
563.575	37.87
563.771	37.8
563.966	38.29
564.162	37.91
564.358	37.86
564.554	38.01
564.75	37.81
564.945	38.06
565.141	37.93
565.337	37.71
565.533	37.87
565.728	38
565.924	37.84
566.12	37.87
566.315	37.58
566.511	37.91
566.707	38.1
566.902	38.06
567.098	38.13
567.293	38.23
567.489	38.17
567.684	38.12
567.88	37.24
568.076	37.38
568.271	37.58
568.467	38.15
568.662	37.75
568.858	37.36
569.053	37.73
569.248	37.83
569.444	37.9
569.639	38.09
569.835	38.55
570.03	39.15
570.225	39.35
570.421	39.09
570.616	39.06
570.812	39.01
571.007	39.23
571.202	39.23
571.397	38.91
571.593	38.33
571.788	38.46
571.983	37.98
572.178	38.89
572.374	38.94
572.569	38.88
572.764	39.38
572.959	40.01
573.154	40.07
573.35	40.27
573.545	40.52
573.74	41.33
573.935	40.92
574.13	41.2
574.325	40.33
574.52	40.65
574.715	40.91
574.91	40.41
575.105	40.14
575.3	40.01
575.495	39.84
575.69	39.83
575.885	39.06
576.08	39.02
576.275	38.96
576.47	39.28
576.665	39.25
576.86	39.2
577.055	39.2
577.25	39.32
577.444	39.22
577.639	39.55
577.834	39.47
578.029	40.31
578.224	40.37
578.418	40.98
578.613	41.22
578.808	41.15
579.003	41.09
579.197	41.68
579.392	41.75
579.587	42.91
579.781	43.19
579.976	43.16
580.171	43.62
580.365	44.15
580.56	43.94
580.755	43.52
580.949	43.58
581.144	43.93
581.338	43.86
581.533	43.53
581.727	43.02
581.922	42.34
582.116	42.83
582.311	42.2
582.505	42.21
582.7	42.26
582.894	42
583.089	41.37
583.283	41
583.478	41.23
583.672	41.78
583.866	41.4
584.061	42.02
584.255	42.61
584.449	43.3
584.644	43.12
584.838	43.23
585.032	43.93
585.226	44.14
585.421	44.77
585.615	44.52
585.809	44.3
586.003	44.66
586.198	44.37
586.392	44.06
586.586	43.76
586.78	44.34
586.974	44.38
587.168	44.62
587.363	45.32
587.557	45.7
587.751	45.66
587.945	45.62
588.139	45.76
588.333	45.27
588.527	44.94
588.721	45.11
588.915	45.07
589.109	44.71
589.303	44.96
589.497	45.28
589.691	44.91
589.885	45.13
590.079	45.86
590.273	45.57
590.466	45.97
590.66	45.82
590.854	45.76
591.048	45.47
591.242	45.69
591.436	45.5
591.629	45.14
591.823	44.95
592.017	44.04
592.211	42.76
592.404	42.7
592.598	42.86
592.792	43.76
592.986	43.34
593.179	43.47
593.373	44.08
593.567	43.86
593.76	43.92
593.954	44
594.147	44.93
594.341	45.35
594.535	46.07
594.728	45.86
594.922	45.52
595.115	45.55
595.309	45.11
595.502	45.2
595.696	45.24
595.889	45
596.083	45.12
596.276	45.02
596.47	45.41
596.663	45.02
596.856	45.45
597.05	45.42
597.243	45.88
597.437	46.21
597.63	45.86
597.823	46.13
598.017	46.29
598.21	46.22
598.403	46.61
598.596	46.8
598.79	46.77
598.983	46.78
599.176	46.9
599.369	46.59
599.563	47.02
599.756	47.11
599.949	47.72
600.142	47.62
600.335	48.38
600.528	48.09
600.722	47.55
600.915	47.46
601.108	47
601.301	47.52
601.494	47.74
601.687	47.72
601.88	47.32
602.073	46.52
602.266	46.8
602.459	46.3
602.652	45.98
602.845	46.31
603.038	46.65
603.231	46.8
603.424	46.3
603.617	45.96
603.809	45.82
604.002	45.56
604.195	46.24
604.388	46.39
604.581	46.8
604.774	46.94
604.966	46.77
605.159	47.03
605.352	46.72
605.545	47
605.737	47.27
605.93	47.2
606.123	47.84
606.316	47.55
606.508	47.47
606.701	46.97
606.894	47.97
607.086	48.66
607.279	48.64
607.471	49.87
607.664	49.61
607.857	49.66
608.049	50.13
608.242	50.27
608.434	50.11
608.627	50.53
608.819	50.89
609.012	50.39
609.204	49.98
609.397	50.32
609.589	49.59
609.782	50.04
609.974	50.29
610.166	50.49
610.359	50.52
610.551	50.47
610.743	50.47
610.936	50.4
611.128	50.37
611.32	49.99
611.513	49.65
611.705	50.33
611.897	49.81
612.09	49.69
612.282	49.05
612.474	48.93
612.666	49.38
612.858	48.38
613.051	48.47
613.243	48.6
613.435	48.63
613.627	48.6
613.819	48.3
614.011	48.02
614.203	47.94
614.395	48.07
614.588	48.87
614.78	48.69
614.972	49.17
615.164	49.34
615.356	49.15
615.548	49.23
615.74	49.08
615.932	48.93
616.124	49.09
616.315	48.94
616.507	49.1
616.699	48.65
616.891	48.75
617.083	48.42
617.275	47.94
617.467	47.17
617.659	48.13
617.85	47.99
618.042	48.63
618.234	48.89
618.426	49.43
618.618	49.78
618.809	49.42
619.001	48.6
619.193	48.31
619.384	49.32
619.576	50.18
619.768	49.61
619.959	49.18
620.151	48.64
620.343	48.36
620.534	48.12
620.726	47.75
620.917	48.31
621.109	49.29
621.301	50.59
621.492	50.47
621.684	50.83
621.875	50.99
622.067	51.68
622.258	51.39
622.45	53.03
622.641	53.59
622.832	53.82
623.024	53.15
623.215	52.83
623.407	52.08
623.598	50.88
623.789	50.83
623.981	50.57
624.172	51.01
624.363	51.69
624.555	50.93
624.746	50.25
624.937	49.74
625.129	50.57
625.32	51.01
625.511	51.33
625.702	51.64
625.893	51.52
626.085	52.51
626.276	52.13
626.467	51.4
626.658	51.4
626.849	51.33
627.04	52.23
627.231	51.57
627.422	50.79
627.614	50.13
627.805	50.12
627.996	49.67
628.187	49.34
628.378	49.94
628.569	50.81
628.76	50.24
628.951	50.94
629.142	50.44
629.332	50.61
629.523	50.97
629.714	50.86
629.905	51.46
630.096	51.66
630.287	51.22
630.478	50.16
630.669	49.85
630.859	50.7
631.05	50.69
631.241	51.08
631.432	51.48
631.623	51.37
631.813	52.58
632.004	52.4
632.195	52.48
632.385	52.42
632.576	52.66
632.767	53.1
632.957	53.21
633.148	53.22
633.339	52.93
633.529	53.85
633.72	53.93
633.91	53.31
634.101	54.05
634.292	54.32
634.482	54.44
634.673	55.1
634.863	54.82
635.054	54.48
635.244	54.49
635.435	53.9
635.625	52.76
635.815	53.72
636.006	53.9
636.196	53.39
636.387	53.67
636.577	53.78
636.767	53.23
636.958	52.76
637.148	54.17
637.338	53.9
637.529	55.06
637.719	55.89
637.909	55.2
638.099	54.48
638.29	54.51
638.48	53.33
638.67	54.03
638.86	54.31
639.05	54.23
639.241	52.28
639.431	52.62
639.621	52.31
639.811	51.13
640.001	50.72
640.191	50.95
640.381	50.92
640.571	51.66
640.761	50.82
640.951	50.29
641.141	50.68
641.331	51.35
641.521	51.42
641.711	49.97
641.901	49.92
642.091	51.26
642.281	51.5
642.471	50.77
642.661	50.03
642.851	50.51
643.041	51.9
643.231	51.86
643.42	51.98
643.61	51.63
643.8	52.58
643.99	52.89
644.18	52.71
644.369	54.09
644.559	55.16
644.749	54.77
644.939	54.51
645.128	53.49
645.318	54.1
645.508	53.68
645.697	53.17
645.887	53.45
646.076	54.63
646.266	53.8
646.456	53
646.645	52.55
646.835	54.04
647.024	55.2
647.214	55.47
647.403	53.78
647.593	54.2
647.782	55.2
647.972	55.14
648.161	55.13
648.351	54.31
648.54	54.68
648.73	53.73
648.919	54.37
649.108	53.54
649.298	52.79
649.487	54.95
649.677	55.61
649.866	55.03
650.055	55.43
650.244	54.72
650.434	56.76
650.623	56.94
650.812	58.32
651.002	58.01
651.191	58.24
651.38	58.8
651.569	57.62
651.758	56.05
651.947	56.72
652.137	56.09
652.326	55.63
652.515	53.97
652.704	53.56
652.893	53.02
653.082	52.24
653.271	52.43
653.46	53
653.649	53.95
653.838	54.65
654.027	54.85
654.216	55.66
654.405	56.27
654.594	56.52
654.783	56.5
654.972	56.15
655.161	56.87
655.35	55.55
655.539	54.7
655.728	54.29
655.916	54.07
656.105	54.43
656.294	55.39
656.483	55.53
656.672	56.99
656.86	57.76
657.049	57.51
657.238	57.83
657.427	58.95
657.615	59.68
657.804	59.49
657.993	59.25
658.181	57.58
658.37	56.34
658.559	55.31
658.747	54.35
658.936	53.55
659.125	53.28
659.313	52.62
659.502	52.43
659.69	51.7
659.879	52.18
660.067	52.34
660.256	52.54
660.444	53.09
660.633	54.59
660.821	55
661.01	54.56
661.198	54.62
661.387	54.63
661.575	54.76
661.763	55.46
661.952	53.65
662.14	53.38
662.328	54.23
662.517	53.6
662.705	52.88
662.893	52.35
663.082	53.86
663.27	54.84
663.458	54.88
663.646	54.62
663.834	54.9
664.023	55.87
664.211	56.01
664.399	56.76
664.587	57.18
664.775	57.38
664.963	58.22
665.152	58.53
665.34	58.68
665.528	58.8
665.716	58.15
665.904	57.19
666.092	57.65
666.28	58.6
666.468	57.23
666.656	57.5
666.844	55.95
667.032	55.97
667.22	55.26
667.408	54.53
667.596	55.17
667.784	55.64
667.971	57.2
668.159	56.21
668.347	56.11
668.535	57.04
668.723	57.39
668.911	58.83
669.098	58.09
669.286	57.9
669.474	58.42
669.662	58.27
669.849	57.54
670.037	54.92
670.225	55.66
670.413	55.38
670.6	55.43
670.788	54.54
670.976	54.82
671.163	54.68
671.351	53.69
671.538	53.91
671.726	54.24
671.913	54.45
672.101	56.77
672.289	57.38
672.476	58.91
672.664	57.29
672.851	57.8
673.039	56.7
673.226	57.58
673.413	58.39
673.601	59.42
673.788	58.86
673.976	59.71
674.163	60.35
674.35	60.22
674.538	59.53
674.725	60.61
674.912	61.21
675.1	61.23
675.287	60.37
675.474	59.74
675.662	58.19
675.849	57.98
676.036	57.64
676.223	55.63
676.411	55.83
676.598	55.25
676.785	54.79
676.972	55.05
677.159	55.38
677.346	55.38
677.533	56.57
677.721	55.93
677.908	54.32
678.095	54.57
678.282	55.17
678.469	55.06
678.656	54.53
678.843	54.8
679.03	53.72
679.217	55.23
679.404	56.29
679.591	55
679.778	56.45
679.964	57.87
680.151	58.02
680.338	58.14
680.525	56.7
680.712	57.69
680.899	57.76
681.086	57.24
681.272	56.34
681.459	55.2
681.646	56.55
681.833	55.51
682.02	54.65
682.206	53.25
682.393	53.12
682.58	53.8
682.766	53.18
682.953	53.05
683.14	55.07
683.326	54.43
683.513	54.81
683.7	53.95
683.886	53.28
684.073	53.72
684.259	53.91
684.446	55.15
684.632	56.81
684.819	55.88
685.005	55.82
685.192	55.1
685.378	56.09
685.565	56.67
685.751	57
685.938	58.86
686.124	60.37
686.31	62.03
686.497	60.83
686.683	60.76
686.87	60.45
687.056	60.32
687.242	61.14
687.429	60.03
687.615	58.62
687.801	58.91
687.987	57.37
688.174	56.59
688.36	55.16
688.546	54.28
688.732	52.82
688.918	53.41
689.105	52.98
689.291	53
689.477	52.08
689.663	53.83
689.849	53.34
690.035	54.24
690.221	54.66
690.407	55.94
690.593	57.88
690.779	59.46
690.965	59.88
691.151	60.85
691.337	58.35
691.523	59.54
691.709	59.57
691.895	60.09
692.081	58.79
692.267	58.39
692.453	57.98
692.639	58.91
692.825	58.83
693.011	58.98
693.196	58.72
693.382	59.96
693.568	60.32
693.754	59.25
693.94	59.54
694.125	59.62
694.311	60.02
694.497	59.67
694.682	59.04
694.868	57.09
695.054	58.21
695.239	58.12
695.425	58.02
695.611	58.51
695.796	59.11
695.982	58.24
696.168	59.04
696.353	58.59
696.539	59.3
696.724	58.45
696.91	58.76
697.095	58.17
697.281	59.59
697.466	59.39
697.652	58.68
697.837	57.66
698.023	57.06
698.208	57.29
698.393	56.82
698.579	56.58
698.764	56.16
698.949	55.88
699.135	55.46
699.32	53.49
699.505	53.53
699.691	54.28
699.876	54.85
700.061	56.7
700.246	56.57
700.432	56.62
700.617	56.13
700.802	56.8
700.987	57.47
701.172	56.36
701.358	56.96
701.543	57.85
701.728	58.62
701.913	59.94
702.098	59.61
702.283	58.48
702.468	58.1
702.653	58.59
702.838	58.4
703.023	58.14
703.208	62.72
703.393	62.67
703.578	60.86
703.763	60.17
703.948	58.26
704.133	58.23
704.318	60.56
704.503	60.5
704.688	61.63
704.873	61.59
705.057	63.56
705.242	60.43
705.427	60.12
705.612	61.43
705.797	61.07
705.981	61.91
706.166	61.5
706.351	60.85
706.536	61.06
706.72	59.8
706.905	60.89
707.09	58.56
707.274	58.06
707.459	59.21
707.644	58.89
707.828	57.97
708.013	60.02
708.197	62.77
708.382	62.05
708.567	62.02
708.751	60.93
708.936	61.42
709.12	62
709.305	63.16
709.489	62.21
709.673	62.97
709.858	64.25
710.042	62.57
710.227	58.97
710.411	60.7
710.596	60.47
710.78	61.67
710.964	60.64
711.149	61.61
711.333	61.71
711.517	61.48
711.702	60.73
711.886	58.64
712.07	57.61
712.254	60.71
712.438	57.93
712.623	59.67
712.807	60.16
712.991	60.39
713.175	60.19
713.359	60.44
713.544	60.09
713.728	59.03
713.912	60.73
714.096	61.96
714.28	60.31
714.464	61.08
714.648	60.34
714.832	60.28
715.016	59.44
715.2	59.16
715.384	58.02
715.568	59.94
715.752	61.12
715.936	61.27
716.12	60.87
716.304	60.89
716.488	61.82
716.671	62.45
716.855	61.63
717.039	61.43
717.223	62.34
717.407	62.93
717.59	62.72
717.774	61.08
717.958	59.74
718.142	60.23
718.325	61.49
718.509	59.32
718.693	58.59
718.877	57.63
719.06	59.8
719.244	59.56
719.428	62.25
719.611	60.46
719.795	60.48
719.978	61.46
720.162	60.69
720.345	59.7
720.529	62.12
720.713	63.56
720.896	65.27
721.08	62.13
721.263	61.47
721.446	61.69
721.63	64.45
721.813	67.72
721.997	67.8
722.18	67.72
722.364	65.02
722.547	65.52
722.73	63.36
722.914	62.91
723.097	64.61
723.28	65.8
723.464	62.71
723.647	62.45
723.83	63.74
724.013	62.51
724.197	61.61
724.38	64.38
724.563	64.48
724.746	64.88
724.929	65.1
725.112	66.88
725.296	66.65
725.479	66.21
725.662	66.16
725.845	63.33
726.028	62.91
726.211	64.45
726.394	65.43
726.577	65.93
726.76	65.78
726.943	66.56
727.126	66.41
727.309	68.9
727.492	68.46
727.675	66.81
727.858	66.99
728.041	67.18
728.224	65.89
728.407	64.18
728.589	65.54
728.772	65.69
728.955	65.78
729.138	63.04
729.321	59.84
729.503	60.88
729.686	62.03
729.869	60.13
730.052	62.48
730.234	64.41
730.417	65.27
730.6	63.96
730.782	65.74
730.965	65.82
731.148	65.25
731.33	65.87
731.513	66.04
731.695	66.91
731.878	68.21
732.061	68.8
732.243	66.35
732.426	65.17
732.608	63.15
732.791	61.58
732.973	60.78
733.156	63.38
733.338	61.85
733.52	62.63
733.703	62.94
733.885	62.71
734.068	62.69
734.25	63.6
734.432	64.24
734.615	63.85
734.797	65.67
734.979	65.5
735.162	66.47
735.344	65.75
735.526	64.01
735.708	64.63
735.891	64.34
736.073	64.66
736.255	66.03
736.437	66.34
736.619	66.58
736.802	65.17
736.984	65.01
737.166	62.5
737.348	63.22
737.53	62.52
737.712	61.05
737.894	61.68
738.076	59.08
738.258	59.25
738.44	60.22
738.622	59.13
738.804	61.13
738.986	61.32
739.168	62.33
739.35	62.24
739.532	63.12
739.714	63.53
739.896	64.38
740.078	65.95
740.259	65.12
740.441	63.67
740.623	66.72
740.805	68.35
740.987	70.72
741.168	69.05
741.35	69.89
741.532	68.01
741.714	67.42
741.895	68.61
742.077	69.3
742.259	69.99
742.44	70.7
742.622	69.64
742.804	66.69
742.985	61.6
743.167	61.33
743.348	62.33
743.53	64.66
743.711	65.21
743.893	64.65
744.075	62.53
744.256	63.35
744.438	61.95
744.619	59.67
744.8	59.08
744.982	62.21
745.163	64.06
745.345	64.15
745.526	65.16
745.707	64.01
745.889	61.43
746.07	62.14
746.252	60.95
746.433	61.81
746.614	64.39
746.795	61.95
746.977	59.26
747.158	57.98
747.339	59.55
747.52	61
747.702	60.4
747.883	58.15
748.064	60.22
748.245	60.6
748.426	60.59
748.607	64.96
748.788	64.08
748.97	66.73
749.151	67.96
749.332	64.89
749.513	62.48
749.694	63.43
749.875	68.36
750.056	67.6
750.237	67.56
750.418	67.55
750.599	62.32
750.78	63.88
750.96	63.58
751.141	62.15
751.322	63.65
751.503	61.03
751.684	62.07
751.865	61.92
752.046	62.83
752.226	62.23
752.407	61.46
752.588	65.65
752.769	67.69
752.949	70.97
753.13	71.24
753.311	67.44
753.492	70.21
753.672	68.78
753.853	71.22
754.034	69.54
754.214	69.31
754.395	70.02
754.575	65.21
754.756	64.9
754.937	64.33
755.117	65.28
755.298	71.54
755.478	73.29
755.659	77.12
755.839	73.12
756.02	71.17
756.2	68.33
756.381	67.48
756.561	67.55
756.741	68.03
756.922	66.16
757.102	65.8
757.283	62.96
757.463	63.41
757.643	61.94
757.823	64.25
758.004	69.87
758.184	73.87
758.364	74.6
758.545	75.03
758.725	73.38
758.905	72.05
759.085	72.43
759.265	71.3
759.446	67.49
759.626	64.66
759.806	62.12
759.986	58.7
760.166	56.96
760.346	56.32
760.526	56.54
760.706	57.61
760.886	57.75
761.066	55.73
761.246	57.91
761.426	60.68
761.606	61.82
761.786	60.68
761.966	63.19
762.146	63.76
762.326	61.91
762.506	62.87
762.686	62.89
762.866	63.68
763.046	65.58
763.225	65.27
763.405	64.06
763.585	63.24
763.765	65.54
763.945	63.95
764.124	64.04
764.304	66.72
764.484	65.65
764.664	62.96
764.843	62.96
765.023	61.72
765.203	64.04
765.382	64.33
765.562	64.75
765.741	64.62
765.921	63.54
766.101	63.91
766.28	61.98
766.46	61.85
766.639	67.97
766.819	69.43
766.998	71.45
767.178	71.32
767.357	76.45
767.537	79.06
767.716	78.22
767.896	78.09
768.075	75.13
768.254	76.63
768.434	76.11
768.613	73.26
768.792	66.89
768.972	65.48
769.151	66.27
769.33	62.99
769.51	66.16
769.689	68.42
769.868	73.62
770.047	77.84
770.226	78.37
770.406	76.76
770.585	77.91
770.764	82.26
770.943	79.8
771.122	75.74
771.301	75.12
771.48	74.33
771.66	72.76
771.839	68.68
772.018	66.59
772.197	67.01
772.376	67.9
772.555	68.75
772.734	67.75
772.913	70.4
773.092	72.76
773.271	75.5
773.449	70.29
773.628	71.51
773.807	70.54
773.986	73.48
774.165	74.9
774.344	74.63
774.523	72.47
774.701	75.81
774.88	79.98
775.059	82.05
775.238	82.09
775.417	82.42
775.595	79.43
775.774	79.8
775.953	75.77
776.131	70.79
776.31	72.53
776.489	70.1
776.667	67.46
776.846	64.44
777.025	61.88
777.203	55.35
777.382	52.2
777.56	55.54
777.739	54.29
777.917	56.79
778.096	61.64
778.274	57.43
778.453	64.94
778.631	65.45
778.81	64.64
778.988	62.88
779.166	66.03
779.345	71.58
779.523	72.06
779.702	73.69
779.88	72.24
780.058	69.6
780.237	71.69
780.415	70.19
780.593	72.95
780.771	74.99
780.95	76.46
781.128	76.55
781.306	70.63
781.484	68.81
781.662	71.09
781.841	68.53
782.019	72.33
782.197	71
782.375	71.32
782.553	70.54
782.731	62.66
782.909	63.37
783.087	59.77
783.265	68.65
783.443	62.25
783.621	57.39
783.799	58.8
783.977	58.64
784.155	62.99
784.333	57.67
784.511	53.7
784.689	62.9
784.867	65.05
785.045	67.31
785.223	65.27
785.4	72.02
785.578	67.39
785.756	68.77
785.934	66.35
786.112	62.79
786.289	61.43
786.467	62.26
786.645	63.81
786.823	65.22
787	65.97
787.178	64.34
787.356	60.85
787.533	67.49
787.711	67.9
787.889	64.99
788.066	63.58
788.244	68.6
788.421	67.55
788.599	61
788.776	56.23
788.954	52.8
789.131	52.73
789.309	49.8
789.486	46.45
789.664	50.04
789.841	54.83
790.019	61.09
790.196	61.78
790.373	62.61
790.551	60.37
790.728	57.74
790.906	63.25
791.083	70.26
791.26	77.15
791.437	71
791.615	67.19
791.792	67.72
791.969	61.68
792.146	61.38
792.324	66.09
792.501	67.09
792.678	67.81
792.855	63.35
793.032	57.61
793.209	53.59
793.387	56.86
793.564	58.27
793.741	57.95
793.918	63.32
794.095	60.15
794.272	60.05
794.449	60.25
794.626	59.11
794.803	63.48
794.98	61.35
795.157	66.93
795.334	64.74
795.511	62.96
795.688	64.06
795.864	67.12
796.041	67.43
796.218	65.7
796.395	72.8
796.572	76.47
796.749	73.2
796.925	73.5
797.102	66.14
797.279	68.73
797.456	71.31
797.632	68.77
797.809	63.26
797.986	69.14
798.162	73.9
798.339	63.44
798.516	64.91
798.692	63.3
798.869	66.98
799.046	67.9
799.222	67.76
799.399	69.03
799.575	68.76
799.752	64.33
799.928	61.24
800.105	57.03
800.281	65.48
800.458	59.82
800.634	68.56
800.811	60.77
800.987	69.38
801.163	73.35
801.34	74.59
801.516	72.64
801.692	77.19
801.869	74.31
802.045	69.21
802.221	66.35
802.398	69.11
802.574	61.12
802.75	72.08
802.926	66.01
803.103	61.09
803.279	56.44
803.455	65.24
803.631	62.71
803.807	64.15
803.983	67.3
804.16	69.15
804.336	68.52
804.512	77.99
804.688	71.46
804.864	78.79
805.04	73.64
805.216	72.38
805.392	65.5
805.568	67.45
805.744	69.7
805.92	65.23
806.096	61.4
806.272	60.95
806.448	56.21
806.623	58.23
806.799	55.48
806.975	60.71
807.151	64.56
807.327	68.48
807.503	68.37
807.678	69.51
807.854	75.93
808.03	79.8
808.206	79.59
808.381	89.77
808.557	102.11
808.733	98.33
808.908	96.63
809.084	106.11
809.26	95.57
809.435	101.05
809.611	101.84
809.787	95.83
809.962	93.62
810.138	104.88
810.313	89.34
810.489	84
810.664	82.03
810.84	82.44
811.015	65.37
811.191	71
811.366	69.63
811.542	68.78
811.717	72.73
811.892	73.72
812.068	65.17
812.243	64.49
812.419	58.61
812.594	59.01
812.769	64.33
812.944	75.55
813.12	76.04
813.295	71.06
813.47	68.36
813.645	70.79
813.821	70.48
813.996	64.35
814.171	69.3
814.346	72.26
814.521	72.48
814.697	65.78
814.872	68.13
815.047	73.88
815.222	74.68
815.397	71.2
815.572	67.97
815.747	63.89
815.922	71.72
816.097	70.16
816.272	66.68
816.447	69.65
816.622	67.15
816.797	63.87
816.972	59.66
817.147	56.81
817.322	56.28
817.496	55.88
817.671	57.18
817.846	48.42
818.021	51.8
818.196	58.09
818.371	50.8
818.545	56.89
818.72	55.48
818.895	48.92
819.069	50.26
819.244	51.83
819.419	56.18
819.594	58
819.768	60.76
819.943	58.41
820.117	53.87
820.292	54.19
820.467	54.89
820.641	54.64
820.816	55.04
820.99	54.69
821.165	54
821.339	52.61
821.514	51.04
821.688	51.32
821.863	51.53
822.037	53.36
822.212	54
822.386	53.62
822.56	53.95
822.735	53.69
822.909	54.36
823.084	54.49
823.258	53.73
823.432	55.73
823.606	55.32
823.781	53.73
823.955	51.63
824.129	50.42
824.303	50.43
824.478	50.65
824.652	52.96
824.826	50.5
825	50.67
825.174	51.41
825.348	49.02
825.523	50.84
825.697	51.39
825.871	53.91
826.045	54.53
826.219	52.41
826.393	50.51
826.567	51.18
826.741	53.69
826.915	55.23
827.089	54.64
827.263	54.44
827.437	53.67
827.611	55.61
827.784	54.9
827.958	54.86
828.132	57.62
828.306	60.71
828.48	57.64
828.654	58.59
828.827	53.79
829.001	53.81
829.175	55.53
829.349	54.56
829.522	51.77
829.696	47.6
829.87	48.53
830.044	47.48
830.217	43.1
830.391	41.73
830.565	41.37
830.738	46.66
830.912	45.65
831.085	46.39
831.259	51.31
831.432	56.31
831.606	56.84
831.779	54.31
831.953	54.64
832.126	59.23
832.3	60.46
832.473	56.06
832.647	51.03
832.82	52.29
832.994	50.66
833.167	49.15
833.34	48.31
833.514	46.29
833.687	47.83
833.86	48.54
834.034	46.79
834.207	46.73
834.38	46.96
834.553	49.72
834.727	50.77
834.9	54.91
835.073	52.05
835.246	50.31
835.419	51.24
835.593	47.4
835.766	46.72
835.939	42.93
836.112	44.54
836.285	50.4
836.458	52.66
836.631	57.49
836.804	55.71
836.977	62.51
837.15	62.84
837.323	63.68
837.496	82.14
837.669	78.74
837.842	79.94
838.015	95.69
838.188	84.9
838.361	91.79
838.533	83.09
838.706	84.55
838.879	85.91
839.052	89.75
839.225	110.21
839.398	99.31
839.57	92.56
839.743	99.63
839.916	90.45
840.088	80.18
840.261	74.93
840.434	72.29
840.607	68.11
840.779	64.29
840.952	61.14
841.124	63.74
841.297	57.04
841.47	56.5
841.642	48.9
841.815	48.42
841.987	61.74
842.16	59.84
842.332	70.28
842.505	65.42
842.677	75.54
842.85	87.04
843.022	77.56
843.194	79.07
843.367	89.43
843.539	102.41
843.712	105.61
843.884	104.28
844.056	83.03
844.229	90.52
844.401	136.7
844.573	133.91
844.745	107.27
844.918	90.18
845.09	109.16
845.262	122.59
845.434	152.65
845.606	142.25
845.779	151.54
845.951	407.87
846.123	359.71
846.295	291.72
846.467	151.38
846.639	149.69
846.811	381.25
846.983	332.08
847.155	407.93
847.327	183.43
847.499	170.16
847.671	205.79
847.843	164.86
848.015	146.78
848.187	122.77
848.359	411.56
848.531	-437.21
848.703	399.83
848.875	-916.07
849.047	1144.41
849.218	-489.31
849.39	-33.65
849.562	-60.77
849.734	-35.88
849.905	-72.55
850.077	-167.65
850.249	876.56
850.421	743.75
850.592	-647.98
850.764	172.93
850.936	117.41
851.107	18.68
851.279	31.3
851.451	18.99
851.622	17.08
851.794	28.37
851.965	24.31
852.137	32.8
852.308	46.23
852.48	39.08
852.651	25.79
852.823	33.24
852.994	34.91
853.166	25.09
853.337	28.65
853.509	65.94
853.68	1215
853.851	54.47
854.023	46.24
854.194	36.14
854.365	115.78
854.537	139.95
854.708	115.14
854.879	127.16
855.05	152.22
855.222	156.76
855.393	327.73
855.564	797.01
855.735	-626.38
855.906	-2014.25
856.078	-394.73
856.249	-947.73
856.42	-22017.86
856.591	1088.68
856.762	7650
856.933	532.16
857.104	1193.18
857.275	261.58
857.446	125.64
857.617	112.24
857.788	103.7
857.959	98.35
858.13	103.69
858.301	137.15
858.472	117.11
858.643	74.55
858.814	69.15
858.985	81.28
859.155	39.45
859.326	-23.81
859.497	-119.92
859.668	217.2
859.839	51.05
860.009	82.73
860.18	11.49
860.351	-44.31
860.522	-90.62
860.692	-68.92
860.863	28.58
861.034	-36.51
861.204	-24.9
861.375	-0.6
861.546	-18.9
861.716	7.64
861.887	-64.78
862.057	1982
862.228	104.06
862.398	384.88
862.569	183.42
862.739	276.77
862.91	194.12
863.08	141.24
863.251	134.62
863.421	139.79
863.592	111.71
863.762	119.15
863.932	137.08
864.103	120.61
864.273	91.33
864.443	371.17
864.614	99.12
864.784	153.95
864.954	204.1
865.125	341.35
865.295	298.57
865.465	631.65
865.635	297.57
865.805	203.71
865.976	122.75
866.146	85.41
866.316	62.8
866.486	83.84
866.656	60.43
866.826	-3.13
866.996	-13.12
867.166	-236.2
867.336	-222.95
867.506	-516.2
867.676	115.87
867.846	67.7
868.016	59.11
868.186	68.86
868.356	56.99
868.526	82.08
868.696	87.74
868.866	77.06
869.036	68.43
869.206	124.79
869.376	131.68
869.545	60.08
869.715	67.24
869.885	65.22
870.055	58.17
870.224	35.19
870.394	50.87
870.564	58.9
870.734	72.82
870.903	63.07
871.073	60.07
871.243	49.97
871.412	27.71
871.582	48.78
871.751	53.61
871.921	58.88
872.091	89.95
872.26	87.6
872.43	81.63
872.599	82.34
872.769	94.45
872.938	126.86
873.108	120.57
873.277	123.08
873.446	103.27
873.616	112.57
873.785	125.49
873.955	150.29
874.124	147.04
874.293	159.68
874.463	145.77
874.632	107.21
874.801	101.11
874.971	80.94
875.14	100.28
875.309	73.16
875.478	56.73
875.647	43.72
875.817	37.93
875.986	31.2
876.155	44.46
876.324	38.74
876.493	50.92
876.662	80.86
876.831	120.76
877	92.53
877.17	88.41
877.339	85.99
877.508	90.07
877.677	83.84
877.846	97.54
878.015	100.12
878.184	114.76
878.352	103.67
878.521	53.65
878.69	34.71
878.859	46.89
879.028	53.02
879.197	63.11
879.366	61.16
879.534	57.35
879.703	53.77
879.872	60.55
880.041	50.48
880.21	54.42
880.378	56.49
880.547	47.28
880.716	49.7
880.884	51.01
881.053	44.15
881.222	43.45
881.39	48.51
881.559	53.15
881.727	49.82
881.896	52.87
882.065	50.71
882.233	47.79
882.402	49.08
882.57	45.39
882.739	45.79
882.907	50.57
883.076	48.09
883.244	44.79
883.412	42.21
883.581	42.24
883.749	44.12
883.918	41.65
884.086	45.31
884.254	45.4
884.423	47.96
884.591	46.82
884.759	41.16
884.927	35.98
885.096	30.63
885.264	28.84
885.432	27.73
885.6	26
885.769	25.61
885.937	24.26
886.105	30.14
886.273	25.76
886.441	25.31
886.609	18.53
886.777	33.15
886.945	44.97
887.113	52.39
887.281	38.64
887.449	10.64
887.617	36.49
887.785	30.64
887.953	-4.85
888.121	-34.84
888.289	-37.8
888.457	-35.01
888.625	-55.75
888.793	-99.96
888.961	-139.22
889.129	25.61
889.296	68.93
889.464	45.96
889.632	46.15
889.8	82.24
889.967	99.48
890.135	91.82
