Data from JASIL_2992_Reflection_02.txt Node
Date: Mon Nov 09 09:46:56 EST 2015
User: Geneva
Spectrometer: USB4E03002
Autoset integration time: false
Trigger mode: 4
Integration Time (sec): 1.000000E-1
Scans to average: 10
Electric dark correction enabled: false
Nonlinearity correction enabled: false
Boxcar width: 5
Stray light correction enabled: false
XAxis mode: Wavelengths
Stop averaging: false
Number of Pixels in Spectrum: 3648
>>>>>Begin Spectral Data<<<<<
177.575	75.86
177.794	74.56
178.014	72.3
178.233	58.32
178.452	68.33
178.672	63.19
178.891	60.83
179.11	47.79
179.33	37.85
179.549	37.16
179.768	-24.43
179.987	13.62
180.207	30.13
180.426	26.31
180.645	30.65
180.864	10.21
181.084	34.32
181.303	10.28
181.522	5.17
181.741	13.12
181.96	22.89
182.179	15
182.398	-5.12
182.618	-26.06
182.837	-9.75
183.056	-4.51
183.275	-8.77
183.494	-29.15
183.713	6.8
183.932	11.72
184.151	11.14
184.37	11.53
184.589	8.42
184.808	-11.55
185.027	-20.25
185.246	-71.97
185.465	-26.46
185.684	-16.32
185.903	-27.82
186.122	-46.48
186.341	-71.12
186.56	-159.04
186.779	-100
186.998	-53.39
187.216	-39.22
187.435	-34.63
187.654	-30.96
187.873	-50.84
188.092	-129.1
188.311	-104.45
188.53	-84.01
188.748	-31.45
188.967	-58.63
189.186	-72.96
189.405	-63.83
189.623	-9.18
189.842	-8.81
190.061	-11.72
190.28	-77.09
190.498	-86.45
190.717	-97.45
190.936	-113.09
191.154	-430.33
191.373	-53.6
191.592	-119.62
191.81	-136.47
192.029	-343.45
192.248	-386.49
192.466	-154.62
192.685	-124.64
192.904	-83.77
193.122	-114.37
193.341	-198.73
193.559	-136.71
193.778	-145.7
193.996	-53.23
194.215	7.32
194.433	8.27
194.652	1.44
194.87	26.03
195.089	23.93
195.307	9.52
195.526	-16.75
195.744	5.21
195.963	2.05
196.181	-55.41
196.399	-82.86
196.618	-129.81
196.836	-154.49
197.055	-138.56
197.273	-139.02
197.491	-136.16
197.71	-44.93
197.928	-42.26
198.146	-28.91
198.365	-53.19
198.583	17.14
198.801	31.38
199.019	31.3
199.238	25.69
199.456	46.77
199.674	24.2
199.892	34.35
200.111	-9.23
200.329	-52.48
200.547	-9.63
200.765	6.1
200.983	-47.01
201.202	-182.61
201.42	-97.48
201.638	10.45
201.856	2.82
202.074	13.51
202.292	321.95
202.51	3.45
202.728	36.9
202.946	-35.71
203.165	-51.72
203.383	-81
203.601	-145.45
203.819	-345.93
204.037	-272.13
204.255	-244.33
204.473	-167.42
204.691	-201.67
204.909	-273.78
205.127	-227.05
205.345	-211.35
205.562	-595.51
205.78	-147.27
205.998	-66.46
206.216	-92.88
206.434	-123.23
206.652	-116.16
206.87	-93.67
207.088	-75.45
207.306	-96.81
207.523	-166.93
207.741	-128.83
207.959	-76.8
208.177	-208.3
208.395	-164.66
208.612	-107.41
208.83	-95.15
209.048	-63.29
209.266	-98.7
209.483	-53.08
209.701	-19.59
209.919	25.22
210.136	-59.14
210.354	-58.81
210.572	8.18
210.79	-4.94
211.007	43.71
211.225	60.26
211.442	36.33
211.66	31.23
211.878	36.01
212.095	3.11
212.313	-1.15
212.53	16.84
212.748	18.58
212.966	16.48
213.183	14.38
213.401	7.54
213.618	7.28
213.836	13.22
214.053	13.21
214.271	11.04
214.488	32.59
214.705	28.3
214.923	25.47
215.14	30.37
215.358	16.64
215.575	27.33
215.793	29.13
216.01	19.51
216.227	43.78
216.445	70.82
216.662	29.7
216.879	15.75
217.097	34.6
217.314	66.11
217.531	19.48
217.749	21.82
217.966	36.84
218.183	24.23
218.4	34.42
218.618	-64.33
218.835	-78.44
219.052	-265.71
219.269	-475.44
219.487	-160.23
219.704	-815.87
219.921	856.14
220.138	1064.1
220.355	684.93
220.572	0
220.79	-939.39
221.007	-100
221.224	57.35
221.441	27.02
221.658	-66.89
221.875	-106.43
222.092	-42.61
222.309	-16.81
222.526	-21.44
222.743	-37.39
222.96	-48.7
223.177	-65.28
223.394	-111.31
223.611	-186.65
223.828	-292.58
224.045	-187.99
224.262	-109.45
224.479	-131.73
224.696	-119.26
224.913	-116.33
225.13	-136.14
225.347	-130.08
225.564	-111.18
225.781	-57.9
225.997	-45.15
226.214	-34.25
226.431	-16.35
226.648	-22.93
226.865	-11.76
227.082	-20.85
227.298	-26.99
227.515	-14.52
227.732	-3.88
227.949	-2.59
228.165	-5.29
228.382	-3.01
228.599	-1.39
228.816	-7.05
229.032	-12.12
229.249	-17.98
229.466	-11.99
229.682	-13.19
229.899	-17.06
230.116	-33.01
230.332	-40.93
230.549	-50
230.765	-115.5
230.982	-113.41
231.199	-104.58
231.415	-72.21
231.632	-76.41
231.848	-84.61
232.065	-70.29
232.281	-79.1
232.498	-57.65
232.714	-52.68
232.931	-52.98
233.147	-21.72
233.364	-14.51
233.58	-12.5
233.797	-13.1
234.013	-12.81
234.23	-13.96
234.446	-5.64
234.662	10.36
234.879	9.75
235.095	19.06
235.312	16.99
235.528	14.03
235.744	7.55
235.961	20.64
236.177	25.15
236.393	25.81
236.61	22.03
236.826	17.47
237.042	11.11
237.258	6.94
237.475	4.46
237.691	7.59
237.907	7.73
238.123	-3.44
238.339	-16.73
238.556	-29.51
238.772	-47.1
238.988	-27.89
239.204	-24.23
239.42	-23.61
239.636	-8.97
239.853	3.68
240.069	-0.95
240.285	1.08
240.501	11.08
240.717	10.24
240.933	14.26
241.149	19.59
241.365	17.35
241.581	12.98
241.797	10.79
242.013	4.24
242.229	-1.38
242.445	1.92
242.661	0.19
242.877	-10.87
243.093	-18.24
243.309	-22.59
243.525	-35.12
243.741	-37.79
243.957	-27.74
244.173	-20.94
244.388	-20.22
244.604	-16.28
244.82	-16.34
245.036	-9.98
245.252	-2.21
245.468	1.06
245.683	0.87
245.899	6.52
246.115	7.04
246.331	4.19
246.547	3.4
246.762	8
246.978	6.45
247.194	7.21
247.409	2.85
247.625	-0.73
247.841	2.16
248.057	4.6
248.272	3.74
248.488	5.24
248.703	7.31
248.919	4.51
249.135	-7.38
249.35	-5.11
249.566	-2.96
249.782	-1.68
249.997	-0.11
250.213	-13.06
250.428	-11.99
250.644	-13.6
250.859	-15.86
251.075	-14.16
251.29	-8.21
251.506	0.68
251.721	3.2
251.937	2.29
252.152	2.95
252.368	9.64
252.583	16.12
252.798	18.18
253.014	18.7
253.229	21.87
253.445	18.46
253.66	12.19
253.875	-4.54
254.091	-12.45
254.306	-6.22
254.521	6.27
254.737	0.36
254.952	5.6
255.167	5.66
255.383	3.94
255.598	4.37
255.813	5.58
256.028	8.7
256.244	6.86
256.459	7.74
256.674	6.23
256.889	2.62
257.104	1.91
257.32	-0.54
257.535	0.21
257.75	-1.72
257.965	-0.76
258.18	1.27
258.395	1.59
258.61	4.91
258.826	3.62
259.041	3.34
259.256	-0.27
259.471	1.19
259.686	1.8
259.901	-1.23
260.116	-1.05
260.331	-5.64
260.546	-5.93
260.761	-7.14
260.976	-13.5
261.191	-10.56
261.406	-11.69
261.621	-5.35
261.836	-6.67
262.05	-8.94
262.265	-3.53
262.48	1.03
262.695	4.82
262.91	3.13
263.125	5.45
263.34	4.03
263.555	7.01
263.769	6.75
263.984	8.75
264.199	2.66
264.414	6.35
264.629	8.46
264.843	6.97
265.058	6.19
265.273	4.56
265.488	0.96
265.702	3.65
265.917	-0.38
266.132	-2.71
266.346	-3.43
266.561	3.63
266.776	1.73
266.99	-1.36
267.205	2.84
267.42	4.99
267.634	4.06
267.849	3.68
268.063	8.89
268.278	9.43
268.492	11.92
268.707	10.21
268.922	7.5
269.136	5.56
269.351	4.4
269.565	0.4
269.78	-1.2
269.994	-0.93
270.209	1.03
270.423	-3.03
270.637	-2.03
270.852	-0.57
271.066	-1.7
271.281	-1.71
271.495	0.9
271.709	0.67
271.924	-0.42
272.138	1.67
272.353	5.76
272.567	4.9
272.781	8.07
272.996	7.12
273.21	4.13
273.424	2.53
273.638	-2.83
273.853	-4.82
274.067	-3.11
274.281	-4.34
274.495	-7.58
274.71	-11.22
274.924	-10.95
275.138	-11.37
275.352	-9.77
275.566	-6.71
275.781	-5.65
275.995	0.84
276.209	2.55
276.423	0.4
276.637	2
276.851	4.28
277.065	5.1
277.279	2.92
277.493	3.93
277.707	1.86
277.921	-1.92
278.135	-0.73
278.349	-5.49
278.563	-8.76
278.777	-5.12
278.991	-4.32
279.205	-9.13
279.419	-9.18
279.633	-7.52
279.847	-12.32
280.061	-11.58
280.275	-9.7
280.489	-9.83
280.703	-6.82
280.917	-2.85
281.131	-1.87
281.344	0.41
281.558	1.38
281.772	2.26
281.986	2.55
282.2	4.47
282.414	4.13
282.627	3.07
282.841	4.66
283.055	4.1
283.269	4.05
283.482	3.11
283.696	3.57
283.91	6.66
284.123	5.4
284.337	5.59
284.551	8.4
284.764	10.46
284.978	10.92
285.192	10.48
285.405	9.68
285.619	7.63
285.833	4.72
286.046	1.93
286.26	-1.87
286.473	-0.25
286.687	-1.9
286.9	-5.73
287.114	-6.68
287.327	-5.4
287.541	-5.66
287.754	-7.42
287.968	-4.79
288.181	-4.08
288.395	-2.71
288.608	-1.83
288.822	-1.51
289.035	0.03
289.248	1.07
289.462	-0.78
289.675	-0.25
289.889	0.83
290.102	4.73
290.315	2.98
290.529	3.21
290.742	2.82
290.955	1.7
291.169	0.05
291.382	-1.51
291.595	-5.3
291.808	-3.02
292.022	-5.43
292.235	-5.21
292.448	-8.15
292.661	-8.21
292.875	-6.62
293.088	-4.96
293.301	-0.72
293.514	-2.66
293.727	-1.21
293.94	0.27
294.153	0.92
294.367	1.1
294.58	-0.97
294.793	-1.62
295.006	-1.91
295.219	-2.43
295.432	-3.11
295.645	-3.1
295.858	-2.19
296.071	-3.06
296.284	-2.07
296.497	-4.86
296.71	-5.08
296.923	-3.38
297.136	-0.81
297.349	2.61
297.562	3.98
297.775	4.71
297.988	6.11
298.201	7.46
298.414	10.34
298.626	11.53
298.839	13.46
299.052	15.25
299.265	15.58
299.478	13.47
299.691	9.99
299.903	10.05
300.116	7.18
300.329	1.99
300.542	0.22
300.755	-2.12
300.967	-2.25
301.18	-2.83
301.393	-4.33
301.605	-2.78
301.818	-3.87
302.031	-2.45
302.243	-4.74
302.456	-3.57
302.669	-0.22
302.881	0.65
303.094	0.37
303.307	-0.18
303.519	-1.19
303.732	-0.92
303.944	-2.53
304.157	-0.53
304.37	-0.82
304.582	0.32
304.795	1.31
305.007	-0.11
305.22	-1.04
305.432	-3.42
305.645	-5.28
305.857	-3.6
306.069	-2.59
306.282	-2.33
306.494	-0.18
306.707	-2.31
306.919	-2.11
307.132	-3.38
307.344	-3.32
307.556	-2.66
307.769	1.87
307.981	0.89
308.193	0.65
308.406	-0.95
308.618	0.56
308.83	1.44
309.043	3.04
309.255	1.91
309.467	1.72
309.679	1.64
309.892	2.25
310.104	1.66
310.316	2.61
310.528	4.55
310.74	4.09
310.953	2.31
311.165	0.73
311.377	-1.59
311.589	-0.48
311.801	-0.75
312.013	0.94
312.225	1.36
312.437	-0.36
312.649	0.91
312.862	-2.83
313.074	-3.02
313.286	0.16
313.498	-1.57
313.71	-1.2
313.922	-1.7
314.134	2.24
314.346	1.13
314.558	0.11
314.77	1.08
314.982	4.56
315.193	9.7
315.405	7.2
315.617	3.96
315.829	2.7
316.041	4.62
316.253	4.73
316.465	4.31
316.677	4.02
316.888	7.4
317.1	7.76
317.312	1.64
317.524	-1.08
317.736	4.63
317.947	5.21
318.159	5.72
318.371	8.29
318.583	5.83
318.794	3
319.006	1.89
319.218	-1.15
319.43	0.97
319.641	2.67
319.853	1.08
320.064	-0.61
320.276	0.77
320.488	3.13
320.699	2.29
320.911	4.83
321.123	5.66
321.334	4.16
321.546	2.01
321.757	-0.9
321.969	-1.77
322.18	0.04
322.392	-0.62
322.603	-2.43
322.815	-0.97
323.026	0.38
323.238	0.07
323.449	0.13
323.661	2.74
323.872	3.67
324.083	5.44
324.295	7.18
324.506	6.56
324.718	7.4
324.929	8.15
325.14	8.01
325.352	7.93
325.563	9.6
325.774	9.85
325.986	10.85
326.197	12.23
326.408	10.32
326.62	7.11
326.831	9.17
327.042	8.21
327.253	9.58
327.464	8.05
327.676	6.2
327.887	4.23
328.098	4.42
328.309	3.61
328.52	4.08
328.732	6.07
328.943	8.76
329.154	8.26
329.365	11.45
329.576	10.88
329.787	11.59
329.998	10.41
330.209	11.27
330.42	13.01
330.631	12.92
330.842	12.8
331.053	14.03
331.264	14.88
331.475	14.62
331.686	14.43
331.897	16.07
332.108	15.72
332.319	15.93
332.53	15.11
332.741	14.83
332.952	16.48
333.163	16.96
333.374	15.61
333.585	14.69
333.795	13.82
334.006	14.83
334.217	14.16
334.428	13.76
334.639	14.85
334.849	14.43
335.06	12.23
335.271	13.76
335.482	11.65
335.692	10.24
335.903	11.88
336.114	11.6
336.325	12.12
336.535	12.24
336.746	13.41
336.957	14.74
337.167	16.16
337.378	16.72
337.589	15.51
337.799	15.51
338.01	15.07
338.22	14.43
338.431	12.37
338.642	9.16
338.852	6.58
339.063	4.46
339.273	4.89
339.484	5.71
339.694	6.05
339.905	4.84
340.115	6.1
340.326	6.62
340.536	5.61
340.746	9.24
340.957	10.28
341.167	12.2
341.378	11.41
341.588	8.21
341.799	9.67
342.009	10.37
342.219	8.72
342.43	7.38
342.64	8.76
342.85	11.76
343.061	10.79
343.271	10.7
343.481	10.74
343.691	12.56
343.902	14.98
344.112	12.79
344.322	11.2
344.532	13.26
344.743	14.46
344.953	14.69
345.163	11.79
345.373	12.35
345.583	11.58
345.793	10.17
346.004	9.43
346.214	8.19
346.424	7.97
346.634	10.19
346.844	9.11
347.054	9.96
347.264	6.21
347.474	7.88
347.684	9.26
347.894	9.96
348.104	12.1
348.314	12.2
348.524	13.43
348.734	15.78
348.944	15.01
349.154	16.05
349.364	17.3
349.574	20.25
349.784	20.06
349.994	20.23
350.204	21.11
350.413	20.22
350.623	23.12
350.833	22.73
351.043	20.44
351.253	21.66
351.463	20.45
351.672	17.83
351.882	17.29
352.092	17.13
352.302	15.99
352.511	15.72
352.721	16.92
352.931	15.75
353.141	12.41
353.35	15.65
353.56	13.56
353.77	12.04
353.979	13.54
354.189	14.79
354.399	14.24
354.608	13.35
354.818	13.36
355.027	11.48
355.237	12.08
355.447	15.6
355.656	13.75
355.866	14.45
356.075	15.31
356.285	13.74
356.494	11.62
356.704	11.21
356.913	11.17
357.123	11.47
357.332	10.51
357.542	9.69
357.751	8.04
357.96	8.13
358.17	8.6
358.379	8.61
358.589	8.61
358.798	9.4
359.007	9.76
359.217	10.17
359.426	9.51
359.635	9.63
359.845	8.27
360.054	7.25
360.263	7.51
360.472	7.99
360.682	7.37
360.891	8.83
361.1	8.98
361.309	8.66
361.519	8.36
361.728	8.23
361.937	9.02
362.146	10.84
362.355	12.95
362.564	12.45
362.774	11.97
362.983	13.19
363.192	12.55
363.401	12.61
363.61	12.43
363.819	12.46
364.028	11.37
364.237	11.38
364.446	10.79
364.655	10.57
364.864	11.54
365.073	10.82
365.282	10.87
365.491	11.39
365.7	13.21
365.909	13.03
366.118	12.45
366.327	13.17
366.536	14.51
366.745	13.65
366.954	14.57
367.162	13.27
367.371	14.1
367.58	15.32
367.789	14.19
367.998	13.48
368.207	14.8
368.415	16.02
368.624	16.08
368.833	16.03
369.042	16.68
369.25	15.83
369.459	16.53
369.668	16.66
369.877	14.38
370.085	15.17
370.294	14.71
370.503	13.06
370.711	12.37
370.92	11.82
371.129	12.23
371.337	12.16
371.546	11.44
371.754	10.76
371.963	10.3
372.171	11.06
372.38	11.68
372.589	12.3
372.797	11.17
373.006	12.75
373.214	12.8
373.423	11.87
373.631	11.98
373.84	12.23
374.048	13.02
374.256	12.23
374.465	12.64
374.673	11.75
374.882	11.55
375.09	14.07
375.298	12.65
375.507	13.88
375.715	13.33
375.923	13.32
376.132	13.42
376.34	14.54
376.548	15.76
376.757	14.53
376.965	14.01
377.173	14.44
377.381	13.08
377.59	12.44
377.798	12.66
378.006	11.66
378.214	11.11
378.423	10.79
378.631	9.42
378.839	8.83
379.047	9.82
379.255	9.86
379.463	9.58
379.671	10.16
379.879	10.33
380.088	8.93
380.296	8.64
380.504	8.91
380.712	9.39
380.92	10.02
381.128	11.3
381.336	11.1
381.544	11.46
381.752	11.03
381.96	11.42
382.168	11.38
382.376	12.18
382.584	12.45
382.791	12.49
382.999	11.58
383.207	10.82
383.415	8.74
383.623	8.58
383.831	9.52
384.039	7.33
384.247	6.81
384.454	7.27
384.662	6.62
384.87	7.07
385.078	6.86
385.285	7.42
385.493	6.95
385.701	8.11
385.909	8.47
386.116	7.57
386.324	9.38
386.532	8.86
386.739	8.99
386.947	8.8
387.155	7.86
387.362	8.48
387.57	7.09
387.778	7.7
387.985	8.4
388.193	7.88
388.4	7.9
388.608	8.66
388.816	7.55
389.023	7.57
389.231	8.29
389.438	10.36
389.646	11.15
389.853	12.13
390.061	11.15
390.268	10.08
390.475	10.88
390.683	10.33
390.89	10.16
391.098	12.27
391.305	13.09
391.512	13.4
391.72	12.83
391.927	10.8
392.135	11.13
392.342	11.73
392.549	12.11
392.756	11.01
392.964	10.76
393.171	9.57
393.378	8.05
393.586	7.15
393.793	6.91
394	6.54
394.207	8.37
394.414	8.33
394.622	8.13
394.829	8.19
395.036	8.69
395.243	9.49
395.45	11.33
395.657	12.22
395.864	11.78
396.072	10.62
396.279	11.53
396.486	11.48
396.693	11.93
396.9	12.96
397.107	12.67
397.314	12.47
397.521	11.69
397.728	10.7
397.935	10.77
398.142	10.12
398.349	9.86
398.556	8.49
398.763	7.07
398.97	7.13
399.177	5.98
399.383	6.3
399.59	5.78
399.797	6.32
400.004	5.73
400.211	5.76
400.418	6.33
400.625	7.77
400.831	8.84
401.038	9.07
401.245	7.38
401.452	7.71
401.658	6.74
401.865	7.62
402.072	8.32
402.279	8.24
402.485	9.03
402.692	9.22
402.899	9
403.105	8.75
403.312	9.8
403.519	10.29
403.725	10.85
403.932	11.07
404.138	10.53
404.345	9.46
404.552	9.46
404.758	8.5
404.965	9.48
405.171	9.68
405.378	9.91
405.584	9.51
405.791	10.54
405.997	10.15
406.204	10.34
406.41	10.31
406.617	10.53
406.823	9.88
407.029	10.34
407.236	9.05
407.442	9.02
407.649	8.7
407.855	7.45
408.061	6.51
408.268	6.49
408.474	5.64
408.68	6.29
408.887	6.39
409.093	7.52
409.299	8.09
409.505	8.36
409.712	7.88
409.918	8.06
410.124	8.72
410.33	8.56
410.537	9
410.743	9.4
410.949	7.76
411.155	8.42
411.361	9.07
411.567	8.83
411.773	9.55
411.98	8.36
412.186	8.27
412.392	7.81
412.598	8.43
412.804	6.96
413.01	7.23
413.216	8.93
413.422	7.52
413.628	7.31
413.834	6.46
414.04	4.93
414.246	5.6
414.452	5.96
414.658	5.65
414.864	5.39
415.07	6.2
415.275	5.71
415.481	6.5
415.687	7.23
415.893	7.19
416.099	7.41
416.305	8.17
416.511	8.34
416.716	7.97
416.922	8.92
417.128	8.65
417.334	8.05
417.539	8.85
417.745	8.35
417.951	7.92
418.157	7.76
418.362	8.09
418.568	8.02
418.774	8.09
418.979	8.5
419.185	8.62
419.391	8.54
419.596	9.12
419.802	9.18
420.008	9.3
420.213	5.4
420.419	5.59
420.624	5.03
420.83	5.38
421.035	5.35
421.241	5.2
421.446	4.73
421.652	4.89
421.857	4.55
422.063	4.36
422.268	4.31
422.474	8.48
422.679	8.39
422.885	8.25
423.09	8.2
423.295	8.1
423.501	7.55
423.706	7.49
423.911	7.68
424.117	7.9
424.322	7.64
424.527	7.73
424.733	7.6
424.938	7.32
425.143	7.69
425.349	7.39
425.554	8.35
425.759	8.52
425.964	9.05
426.169	8.48
426.375	7.83
426.58	7.67
426.785	6.69
426.99	6.8
427.195	7.86
427.4	8.31
427.605	7.62
427.811	6.93
428.016	6.78
428.221	6.81
428.426	6.69
428.631	7.43
428.836	8.06
429.041	8.33
429.246	8.36
429.451	7.41
429.656	7.26
429.861	8.47
430.066	7.51
430.271	7.93
430.476	7.3
430.681	7.66
430.886	8.09
431.09	7.46
431.295	7.65
431.5	7.93
431.705	8.37
431.91	8.91
432.115	8.08
432.32	8.63
432.524	8.44
432.729	8.51
432.934	8.57
433.139	8.01
433.343	8.23
433.548	8.57
433.753	8.32
433.958	7.88
434.162	7.6
434.367	7.93
434.572	7.45
434.776	7.88
434.981	7.36
435.186	7.11
435.39	7.41
435.595	7.35
435.799	6.12
436.004	6.34
436.209	6.76
436.413	5.99
436.618	6.34
436.822	6.45
437.027	5.55
437.231	6.57
437.436	6.94
437.64	6.81
437.845	6.03
438.049	7.37
438.253	7.53
438.458	6.58
438.662	6.97
438.867	6.89
439.071	7.07
439.275	8.11
439.48	7.62
439.684	7.44
439.888	7.39
440.093	7.7
440.297	7.25
440.501	7.41
440.706	7.52
440.91	7.49
441.114	7.18
441.318	7.34
441.523	6.89
441.727	6.79
441.931	6.98
442.135	7.21
442.339	7.69
442.543	8.05
442.748	7.68
442.952	7.99
443.156	7.72
443.36	8.28
443.564	7.7
443.768	7.13
443.972	7.33
444.176	7.1
444.38	7.1
444.584	7.61
444.788	7.49
444.992	7.31
445.196	7.49
445.4	8
445.604	7.85
445.808	7.91
446.012	8.32
446.216	8.44
446.42	8.75
446.624	8.29
446.828	8.21
447.032	8.06
447.235	7.86
447.439	8.22
447.643	7.85
447.847	7.65
448.051	7.16
448.254	7.08
448.458	6.89
448.662	6.64
448.866	6.58
449.069	5.89
449.273	5.33
449.477	5.74
449.681	5.56
449.884	5.59
450.088	5.45
450.292	6.3
450.495	6.07
450.699	6.61
450.902	6.84
451.106	7.29
451.31	7.27
451.513	8.2
451.717	8.12
451.92	7.81
452.124	7.31
452.327	7.34
452.531	7.97
452.734	8.57
452.938	8.37
453.141	8.62
453.345	8.73
453.548	9.01
453.752	8.71
453.955	9.23
454.158	8.99
454.362	9.85
454.565	9.76
454.769	9.7
454.972	9.65
455.175	9.16
455.379	7.74
455.582	7.89
455.785	7.65
455.988	6.75
456.192	6.21
456.395	6.74
456.598	6.27
456.801	5.85
457.005	5.69
457.208	5.19
457.411	5.34
457.614	6.21
457.817	5.84
458.021	5.43
458.224	5.95
458.427	5.92
458.63	5.6
458.833	5.2
459.036	5.44
459.239	5.16
459.442	5.8
459.645	6.02
459.848	5.92
460.051	6.26
460.254	7.05
460.457	7.14
460.66	6.97
460.863	6.79
461.066	7.66
461.269	7.88
461.472	8.23
461.675	7.65
461.878	7.66
462.081	7.31
462.284	6.65
462.486	6.14
462.689	6.33
462.892	7.22
463.095	7.25
463.298	6.47
463.5	6.58
463.703	6.36
463.906	6.81
464.109	7.19
464.311	7.64
464.514	8.09
464.717	8.44
464.92	8.6
465.122	7.95
465.325	8.28
465.528	8.53
465.73	8.29
465.933	8.08
466.135	7.58
466.338	6.93
466.541	7.33
466.743	7.36
466.946	7.26
467.148	6.74
467.351	7.34
467.553	6.76
467.756	7.03
467.958	7.35
468.161	7.42
468.363	7.35
468.566	7.66
468.768	7.29
468.971	7.44
469.173	7.01
469.375	6.65
469.578	5.62
469.78	6.12
469.983	5.34
470.185	4.89
470.387	4.89
470.59	5.27
470.792	4.71
470.994	4.69
471.196	4.16
471.399	4.68
471.601	5.63
471.803	5.87
472.005	5.84
472.208	6.76
472.41	7.12
472.612	7.35
472.814	7.05
473.016	7.23
473.218	7.08
473.421	7.17
473.623	6.61
473.825	6.23
474.027	6.16
474.229	6.1
474.431	5.58
474.633	4.68
474.835	4.6
475.037	4.96
475.239	4.84
475.441	4.71
475.643	4.99
475.845	5.84
476.047	5.9
476.249	6.34
476.451	6.56
476.653	6.59
476.855	7.25
477.057	6.94
477.258	6.67
477.46	7.13
477.662	7.14
477.864	7.62
478.066	7.44
478.268	7.06
478.469	6.97
478.671	7.1
478.873	7.57
479.075	7.07
479.276	7.74
479.478	7.72
479.68	7.62
479.882	7.74
480.083	7.12
480.285	7.03
480.487	7.18
480.688	6.91
480.89	6.67
481.091	6.37
481.293	6.63
481.495	6.23
481.696	6.47
481.898	6.46
482.099	6.44
482.301	6.68
482.502	6.75
482.704	6.95
482.905	7.08
483.107	7.13
483.308	7.23
483.51	7.27
483.711	7.3
483.913	7.33
484.114	7.29
484.315	7.4
484.517	7.28
484.718	7.21
484.92	7.07
485.121	7.07
485.322	7.22
485.524	7.34
485.725	7.25
485.926	7.32
486.127	6.96
486.329	6.89
486.53	7.04
486.731	7.11
486.932	7.27
487.134	7.27
487.335	7.08
487.536	6.99
487.737	6.83
487.938	7
488.139	7.02
488.341	7.34
488.542	7.61
488.743	7.39
488.944	7.39
489.145	6.86
489.346	6.69
489.547	6.87
489.748	6.77
489.949	6.7
490.15	6.85
490.351	6.86
490.552	6.94
490.753	6.66
490.954	6.57
491.155	6.59
491.356	6.67
491.557	6.89
491.758	7.06
491.959	7.21
492.159	7.16
492.36	6.95
492.561	7.09
492.762	6.89
492.963	7.32
493.164	7.51
493.364	7.49
493.565	7.86
493.766	7.43
493.967	7.39
494.167	7.39
494.368	7.43
494.569	7.58
494.769	7.29
494.97	7.53
495.171	7.56
495.371	7.62
495.572	7.25
495.773	7.42
495.973	7.53
496.174	7.94
496.375	7.62
496.575	7.8
496.776	7.9
496.976	8.06
497.177	8.12
497.377	7.98
497.578	7.58
497.778	8.08
497.979	7.84
498.179	8.13
498.38	7.46
498.58	7.5
498.78	7.64
498.981	7.13
499.181	6.89
499.382	6.72
499.582	6.28
499.782	6.42
499.983	6.4
500.183	6.53
500.383	6.22
500.584	6.12
500.784	6.43
500.984	6.42
501.184	6.89
501.385	7.11
501.585	6.87
501.785	7.06
501.985	7.25
502.185	7.23
502.386	7.1
502.586	7.72
502.786	8.02
502.986	8.16
503.186	8.21
503.386	8.37
503.586	8.68
503.786	8.82
503.987	9.06
504.187	9.12
504.387	9.32
504.587	8.93
504.787	8.51
504.987	8.56
505.187	8.64
505.387	8.49
505.587	7.97
505.786	7.7
505.986	7.84
506.186	7.4
506.386	7.41
506.586	7.16
506.786	8.1
506.986	8.25
507.186	8.27
507.386	8.1
507.585	8.9
507.785	9.26
507.985	9.23
508.185	9.46
508.384	9.61
508.584	9.84
508.784	9.88
508.984	9.81
509.183	9.75
509.383	9.89
509.583	9.93
509.782	9.33
509.982	8.99
510.182	9.18
510.381	9.23
510.581	9.72
510.781	10.05
510.98	10.24
511.18	10.2
511.379	10.35
511.579	9.95
511.778	10.56
511.978	10.87
512.177	11.5
512.377	11.8
512.576	12.07
512.776	12.38
512.975	12.19
513.175	12.03
513.374	12.37
513.573	12.63
513.773	12.75
513.972	12.25
514.172	11.88
514.371	11.57
514.57	11.06
514.77	11.47
514.969	11.09
515.168	11.08
515.367	11.67
515.567	11.15
515.766	10.94
515.965	11.55
516.164	11.38
516.364	11.57
516.563	11.69
516.762	12.19
516.961	12
517.16	12.83
517.359	12.86
517.559	12.5
517.758	12.98
517.957	13.36
518.156	13.23
518.355	13.86
518.554	14.11
518.753	14.44
518.952	14.38
519.151	14.39
519.35	13.94
519.549	14.13
519.748	14.48
519.947	14.34
520.146	14.4
520.345	14.65
520.544	14.52
520.743	14.03
520.942	14.09
521.141	14.62
521.339	14.62
521.538	14.75
521.737	14.53
521.936	14.81
522.135	14.44
522.333	14.25
522.532	14.46
522.731	14.36
522.93	14.75
523.129	14.73
523.327	14.53
523.526	14.37
523.725	14.48
523.923	14.66
524.122	14.45
524.321	14.9
524.519	14.98
524.718	14.84
524.917	15.02
525.115	15.44
525.314	15.53
525.512	15.61
525.711	15.82
525.909	15.81
526.108	16.21
526.306	16.34
526.505	16.23
526.703	16.45
526.902	16.55
527.1	16.62
527.299	16.55
527.497	16.67
527.696	16.72
527.894	16.68
528.092	16.78
528.291	16.77
528.489	16.81
528.688	17.11
528.886	17.19
529.084	17.37
529.283	17.51
529.481	17.59
529.679	17.36
529.877	17.33
530.076	17.41
530.274	17.57
530.472	17.67
530.67	17.94
530.869	17.94
531.067	17.67
531.265	17.65
531.463	17.59
531.661	17.72
531.859	18.01
532.057	18.36
532.255	18.33
532.454	18.34
532.652	18.58
532.85	18.56
533.048	18.56
533.246	18.96
533.444	19.06
533.642	19.15
533.84	19.3
534.038	19.38
534.236	19.51
534.434	20.02
534.632	20.01
534.83	19.99
535.027	19.95
535.225	20.25
535.423	20.04
535.621	20.05
535.819	20.13
536.017	20.08
536.215	20.34
536.412	19.91
536.61	20.17
536.808	20.12
537.006	20.21
537.203	20.26
537.401	20.11
537.599	20.26
537.797	20.54
537.994	20.8
538.192	20.68
538.39	20.76
538.587	21.18
538.785	20.62
538.983	21.23
539.18	21.08
539.378	20.97
539.575	21
539.773	20.98
539.97	20.77
540.168	20.87
540.366	21.14
540.563	21.2
540.761	21.07
540.958	21.31
541.155	20.99
541.353	21.09
541.55	21.7
541.748	21.85
541.945	21.98
542.143	22.11
542.34	21.96
542.537	21.73
542.735	21.49
542.932	21.8
543.129	21.85
543.327	22.2
543.524	22.31
543.721	21.84
543.919	21.63
544.116	21.81
544.313	22.17
544.51	22.59
544.708	22.62
544.905	22.81
545.102	22.8
545.299	23.09
545.496	23.31
545.693	23.42
545.891	23.73
546.088	23.84
546.285	24.14
546.482	24.09
546.679	23.64
546.876	23.66
547.073	23.6
547.27	23.82
547.467	23.84
547.664	23.45
547.861	22.69
548.058	22.37
548.255	22.06
548.452	21.43
548.649	21.71
548.846	22
549.043	22.98
549.24	23.7
549.437	23.98
549.633	23.69
549.83	23.53
550.027	24.52
550.224	25.03
550.421	25.51
550.618	25.94
550.814	25.69
551.011	26.03
551.208	26.04
551.405	25.58
551.601	25.49
551.798	25.21
551.995	25.57
552.191	24.99
552.388	24.28
552.585	24.3
552.781	23.73
552.978	23.92
553.175	23.76
553.371	23.74
553.568	24.12
553.764	23.49
553.961	23.83
554.157	23.95
554.354	24.62
554.55	24.91
554.747	25.27
554.943	25.71
555.14	25.92
555.336	25.94
555.533	25.14
555.729	24.75
555.926	25.15
556.122	25.29
556.318	25.03
556.515	24.98
556.711	25.43
556.907	25.44
557.104	25.96
557.3	25.87
557.496	26.32
557.693	26.33
557.889	26.58
558.085	26.53
558.281	27.21
558.478	27.17
558.674	26.76
558.87	27
559.066	26.63
559.262	26.51
559.459	25.69
559.655	25.45
559.851	25.81
560.047	25.66
560.243	25.71
560.439	24.74
560.635	24.76
560.831	25.36
561.027	24.36
561.223	24.69
561.419	24.64
561.615	24.91
561.811	24.73
562.007	24.73
562.203	24.61
562.399	24.42
562.595	24.88
562.791	24.55
562.987	23.83
563.183	24.98
563.379	24.86
563.575	24.85
563.771	24.94
563.966	24.92
564.162	25.36
564.358	25.83
564.554	26.04
564.75	26.78
564.945	27.62
565.141	27.94
565.337	27.55
565.533	27.77
565.728	27.44
565.924	27.38
566.12	27.16
566.315	26.9
566.511	26.43
566.707	26.66
566.902	25.62
567.098	25.22
567.293	25.48
567.489	25.28
567.684	25.1
567.88	25.62
568.076	26.02
568.271	25.86
568.467	25.89
568.662	26.14
568.858	26.09
569.053	26.64
569.248	26.69
569.444	26.02
569.639	26.43
569.835	26.55
570.03	26.9
570.225	26.94
570.421	27.21
570.616	27.45
570.812	27.06
571.007	27.22
571.202	27.12
571.397	27.2
571.593	27.66
571.788	27.75
571.983	28.12
572.178	28.01
572.374	28.18
572.569	28.09
572.764	27.52
572.959	27.45
573.154	26.97
573.35	27.05
573.545	26.98
573.74	26.94
573.935	26.68
574.13	26.48
574.325	26.48
574.52	26.34
574.715	26.48
574.91	26.32
575.105	27.16
575.3	27.28
575.495	27.14
575.69	26.97
575.885	27.09
576.08	26.92
576.275	26.85
576.47	27.12
576.665	27.69
576.86	28.51
577.055	28.8
577.25	28.12
577.444	28.23
577.639	28.54
577.834	28.39
578.029	28.38
578.224	29.01
578.418	28.94
578.613	28.43
578.808	27.77
579.003	27.09
579.197	27.48
579.392	28.26
579.587	28.99
579.781	28.18
579.976	28.48
580.171	28.07
580.365	27.49
580.56	27.29
580.755	28.1
580.949	28.51
581.144	28.24
581.338	28.36
581.533	28.37
581.727	27.1
581.922	27.42
582.116	26.78
582.311	27.66
582.505	27.65
582.7	28.5
582.894	27.94
583.089	28.61
583.283	28.78
583.478	29.32
583.672	28.94
583.866	29.33
584.061	29.93
584.255	30.38
584.449	30.01
584.644	29.71
584.838	28.89
585.032	28.77
585.226	27.69
585.421	28.1
585.615	27.51
585.809	27.57
586.003	27.65
586.198	27.76
586.392	28.38
586.586	29.09
586.78	30.4
586.974	31.42
587.168	31.69
587.363	31.83
587.557	31.68
587.751	31.83
587.945	32.15
588.139	32.07
588.333	31.64
588.527	32.54
588.721	31.73
588.915	30.94
589.109	30.22
589.303	29.76
589.497	29.79
589.691	29.06
589.885	28.9
590.079	28.62
590.273	29.55
590.466	29.29
590.66	28.1
590.854	28.35
591.048	28.6
591.242	28.49
591.436	28.17
591.629	27.87
591.823	29.46
592.017	29.18
592.211	28.82
592.404	28.51
592.598	28.92
592.792	28.64
592.986	29.14
593.179	27.93
593.373	28.6
593.567	29.04
593.76	29.05
593.954	27.94
594.147	28.33
594.341	28.86
594.535	28.68
594.728	29.03
594.922	29.33
595.115	28.57
595.309	29.7
595.502	29.11
595.696	29.04
595.889	29.81
596.083	30.08
596.276	29.89
596.47	30.04
596.663	29.03
596.856	28.34
597.05	29.27
597.243	29.42
597.437	29.24
597.63	28.85
597.823	29.14
598.017	28.13
598.21	28.19
598.403	28.05
598.596	27.59
598.79	28.98
598.983	29.16
599.176	27.78
599.369	27.96
599.563	28.55
599.756	29.79
599.949	30.18
600.142	30.11
600.335	29.83
600.528	30.27
600.722	31.03
600.915	30.9
601.108	30.94
601.301	31.09
601.494	31.49
601.687	31.02
601.88	29.45
602.073	29.34
602.266	29.5
602.459	29.41
602.652	29.53
602.845	29.28
603.038	29.36
603.231	29.44
603.424	29.58
603.617	28.43
603.809	28.08
604.002	28.52
604.195	27.65
604.388	27.1
604.581	27.78
604.774	27.48
604.966	27.85
605.159	28.12
605.352	28.21
605.545	27.81
605.737	29.78
605.93	30.27
606.123	30.58
606.316	31.79
606.508	32.11
606.701	31.51
606.894	31.91
607.086	31.55
607.279	30.45
607.471	29.62
607.664	29.83
607.857	27.98
608.049	28.2
608.242	28.11
608.434	27.1
608.627	27.31
608.819	27.54
609.012	27.02
609.204	26.97
609.397	27.27
609.589	27.38
609.782	27.33
609.974	27.67
610.166	27.04
610.359	27.77
610.551	28.93
610.743	28.89
610.936	28.7
611.128	28.59
611.32	28.53
611.513	28.57
611.705	30.1
611.897	30.08
612.09	30.58
612.282	31
612.474	31.05
612.666	30.08
612.858	30.57
613.051	31.43
613.243	32.26
613.435	31.15
613.627	31.34
613.819	30.14
614.011	30.95
614.203	30.83
614.395	30.55
614.588	29.58
614.78	29.55
614.972	29.69
615.164	28.79
615.356	29.21
615.548	30.14
615.74	30.59
615.932	30.76
616.124	30.15
616.315	29.73
616.507	29.41
616.699	29.58
616.891	30.05
617.083	29.77
617.275	29.67
617.467	29.19
617.659	29.22
617.85	29.56
618.042	30.35
618.234	30.53
618.426	30.75
618.618	30.92
618.809	31.67
619.001	32.13
619.193	31.4
619.384	32.05
619.576	31.54
619.768	31.35
619.959	30.55
620.151	30.27
620.343	30.01
620.534	30.42
620.726	30.93
620.917	30.05
621.109	30.17
621.301	31.69
621.492	31.35
621.684	31.77
621.875	31.3
622.067	31.8
622.258	30.65
622.45	31.62
622.641	31.53
622.832	31.04
623.024	31.35
623.215	31.25
623.407	30.4
623.598	30.09
623.789	30.06
623.981	30.9
624.172	31.04
624.363	32.18
624.555	31.24
624.746	31.17
624.937	31.05
625.129	30.13
625.32	30.13
625.511	29.93
625.702	31.08
625.893	30.99
626.085	31.14
626.276	30.39
626.467	29.95
626.658	31.03
626.849	30.51
627.04	31.26
627.231	32.26
627.422	32.62
627.614	32.53
627.805	31.37
627.996	32.28
628.187	31.39
628.378	32.46
628.569	33.26
628.76	32.05
628.951	32.71
629.142	32.38
629.332	32.37
629.523	32.63
629.714	33.04
629.905	33.31
630.096	32.14
630.287	32.75
630.478	31.48
630.669	31.22
630.859	32.23
631.05	31.68
631.241	31.28
631.432	31
631.623	29.98
631.813	30.35
632.004	30.82
632.195	31.51
632.385	30.32
632.576	30.36
632.767	28.98
632.957	28.39
633.148	28.94
633.339	29.44
633.529	29.72
633.72	30.17
633.91	30.17
634.101	29.55
634.292	27.93
634.482	28.43
634.673	29.05
634.863	28.89
635.054	29.81
635.244	30.27
635.435	30.4
635.625	30.18
635.815	29.83
636.006	28.76
636.196	29.38
636.387	30.33
636.577	31.49
636.767	31.19
636.958	32.14
637.148	31.02
637.338	31.21
637.529	31.13
637.719	31.79
637.909	30.9
638.099	32.18
638.29	31.39
638.48	31.04
638.67	31.04
638.86	31.92
639.05	32.84
639.241	32.87
639.431	31.74
639.621	30.07
639.811	29.02
640.001	30.28
640.191	29.31
640.381	29.86
640.571	29.78
640.761	29.19
640.951	28.65
641.141	27.24
641.331	27.35
641.521	27.84
641.711	28.69
641.901	29.47
642.091	28.81
642.281	29.76
642.471	30.05
642.661	30.75
642.851	30.52
643.041	30.28
643.231	30.8
643.42	30.66
643.61	29.97
643.8	31.38
643.99	30.85
644.18	31.56
644.369	31.1
644.559	30.21
644.749	29.82
644.939	30
645.128	29.69
645.318	30.44
645.508	31.25
645.697	31.96
645.887	31.18
646.076	31.58
646.266	30.88
646.456	31.33
646.645	30.99
646.835	31.03
647.024	31.69
647.214	32.92
647.403	32.3
647.593	32.17
647.782	32.11
647.972	32.03
648.161	31.57
648.351	31.56
648.54	31.53
648.73	31.42
648.919	31.29
649.108	30.22
649.298	28.77
649.487	28.9
649.677	28.2
649.866	28.31
650.055	27.55
650.244	27.78
650.434	28.63
650.623	28.26
650.812	28.7
651.002	29.92
651.191	30.66
651.38	31.67
651.569	32.98
651.758	33.12
651.947	32.31
652.137	33.66
652.326	33.69
652.515	31.87
652.704	31.74
652.893	31.91
653.082	31.47
653.271	30.57
653.46	29.81
653.649	28.94
653.838	30
654.027	30.9
654.216	30.2
654.405	31.02
654.594	31.82
654.783	31.42
654.972	33.09
655.161	30.9
655.35	32.2
655.539	31.78
655.728	31.35
655.916	29.89
656.105	29.62
656.294	29.82
656.483	29.77
656.672	29.06
656.86	28.89
657.049	27.93
657.238	29.24
657.427	28.87
657.615	29.88
657.804	30.32
657.993	30.88
658.181	31.88
658.37	31.71
658.559	31.89
658.747	32.9
658.936	33.72
659.125	31.71
659.313	32.25
659.502	32.52
659.69	32.39
659.879	31.97
660.067	32.09
660.256	31.52
660.444	31.07
660.633	30.25
660.821	30.33
661.01	29.84
661.198	31.74
661.387	31.02
661.575	30.44
661.763	30.33
661.952	30.87
662.14	31.21
662.328	30.76
662.517	31.89
662.705	32.47
662.893	33.93
663.082	33.93
663.27	34.01
663.458	34.66
663.646	33.4
663.834	34.46
664.023	33.16
664.211	30.96
664.399	30.12
664.587	28.63
664.775	27.59
664.963	25.72
665.152	27.3
665.34	28.5
665.528	28.38
665.716	31.51
665.904	30.04
666.092	30.03
666.28	31.04
666.468	31.01
666.656	32.28
666.844	33.05
667.032	33.17
667.22	32.33
667.408	31.2
667.596	30.73
667.784	28.83
667.971	29.97
668.159	30.55
668.347	29.75
668.535	28.96
668.723	28.85
668.911	29.74
669.098	29.61
669.286	28.88
669.474	28.52
669.662	29.64
669.849	29.49
670.037	29.02
670.225	27.97
670.413	30.12
670.6	31.46
670.788	29.8
670.976	28.56
671.163	27.84
671.351	27.18
671.538	27
671.726	26.46
671.913	27.55
672.101	27.39
672.289	29.63
672.476	28.56
672.664	28.37
672.851	29.9
673.039	29.21
673.226	29.51
673.413	30.29
673.601	29.96
673.788	29.13
673.976	29.29
674.163	29.17
674.35	28.55
674.538	30.53
674.725	30.5
674.912	31.57
675.1	32.59
675.287	33.17
675.474	34.46
675.662	35.88
675.849	36.3
676.036	34.27
676.223	34.57
676.411	33.68
676.598	32.11
676.785	33.76
676.972	32.84
677.159	32.48
677.346	31.44
677.533	31.32
677.721	30.54
677.908	31.16
678.095	33.21
678.282	32.71
678.469	32.78
678.656	33.01
678.843	32.81
679.03	32.82
679.217	33.78
679.404	34.14
679.591	33.8
679.778	34.11
679.964	33.37
680.151	31.3
680.338	31.83
680.525	31.65
680.712	30.73
680.899	30.32
681.086	30.39
681.272	30.34
681.459	30.21
681.646	29.92
681.833	29.99
682.02	30.52
682.206	31.78
682.393	32.45
682.58	31.48
682.766	31.29
682.953	31.1
683.14	31.12
683.326	29.89
683.513	30.76
683.7	30.26
683.886	29.55
684.073	28.37
684.259	29.32
684.446	27.98
684.632	29.73
684.819	31.38
685.005	31.27
685.192	31.11
685.378	33.12
685.565	33.32
685.751	33.73
685.938	34.04
686.124	33.95
686.31	34.39
686.497	33.9
686.683	34.06
686.87	33.51
687.056	32.18
687.242	32.15
687.429	30.23
687.615	29.64
687.801	29.19
687.987	28.66
688.174	30.16
688.36	28.35
688.546	28.5
688.732	28.05
688.918	26.51
689.105	26.63
689.291	27.19
689.477	26.88
689.663	26
689.849	26.98
690.035	29.84
690.221	28.05
690.407	27.18
690.593	27.05
690.779	25.86
690.965	26.61
691.151	28.25
691.337	27.49
691.523	29.26
691.709	30.5
691.895	29.9
692.081	28.32
692.267	30.34
692.453	30.5
692.639	30.93
692.825	31.28
693.011	31.51
693.196	30.72
693.382	30.14
693.568	28.68
693.754	27.95
693.94	28.88
694.125	28.24
694.311	26.03
694.497	28.75
694.682	28.7
694.868	28.23
695.054	26.38
695.239	26.6
695.425	27.63
695.611	28.76
695.796	29.6
695.982	28.7
696.168	29.3
696.353	29.5
696.539	28.35
696.724	28.84
696.91	30.07
697.095	30.94
697.281	30.35
697.466	29.96
697.652	29.29
697.837	28.87
698.023	28.91
698.208	27.98
698.393	27.59
698.579	28.65
698.764	27.22
698.949	27.32
699.135	27.63
699.32	26.62
699.505	26.3
699.691	25.86
699.876	27.44
700.061	27.99
700.246	29.24
700.432	32.61
700.617	31.76
700.802	34.84
700.987	33.51
701.172	34.73
701.358	36.33
701.543	35.75
701.728	36.04
701.913	36.06
702.098	34.69
702.283	36.12
702.468	33.8
702.653	33.86
702.838	31.73
703.023	31.87
703.208	30.72
703.393	30.1
703.578	31.82
703.763	32.78
703.948	29.21
704.133	29.98
704.318	24.7
704.503	24.6
704.688	24.23
704.873	24.79
705.057	25.21
705.242	26.81
705.427	28.44
705.612	28.31
705.797	26.56
705.981	26.62
706.166	26.06
706.351	28.97
706.536	29.05
706.72	29.8
706.905	31.13
707.09	32.06
707.274	31.03
707.459	30.42
707.644	30.28
707.828	33.19
708.013	35.79
708.197	36.52
708.382	35.26
708.567	35.45
708.751	35.6
708.936	35.99
709.12	34.85
709.305	35.66
709.489	35.19
709.673	35.18
709.858	34
710.042	30.82
710.227	31.27
710.411	31.3
710.596	31.04
710.78	29.32
710.964	27.86
711.149	29.35
711.333	28.59
711.517	29.39
711.702	30.63
711.886	29.16
712.07	32.3
712.254	31.55
712.438	32.29
712.623	31.72
712.807	30.87
712.991	29.96
713.175	31.62
713.359	33.41
713.544	33.33
713.728	32.49
713.912	33.72
714.096	33.93
714.28	34.79
714.464	33.54
714.648	33.99
714.832	35.74
715.016	37.46
715.2	34.05
715.384	31.46
715.568	31.38
715.752	30.69
715.936	28.43
716.12	28.78
716.304	28.39
716.488	29.15
716.671	29.94
716.855	28.14
717.039	27.55
717.223	28.94
717.407	28.48
717.59	27.91
717.774	30.04
717.958	31.5
718.142	27.62
718.325	27.73
718.509	28.31
718.693	30.22
718.877	28.43
719.06	26.89
719.244	28.45
719.428	27.39
719.611	29.43
719.795	28.09
719.978	25.93
720.162	28.01
720.345	29.95
720.529	29.29
720.713	24.23
720.896	25.87
721.08	25.41
721.263	22.79
721.446	24.19
721.63	23.24
721.813	22.55
721.997	24.26
722.18	24.87
722.364	20.32
722.547	22.27
722.73	23.87
722.914	26.95
723.097	31.15
723.28	31.07
723.464	32.5
723.647	33.37
723.83	32.39
724.013	32.39
724.197	30.77
724.38	33.24
724.563	31.73
724.746	33.87
724.929	30.92
725.112	28.06
725.296	31.9
725.479	28.4
725.662	27.63
725.845	27.36
726.028	28.41
726.211	30.7
726.394	29.86
726.577	31.32
726.76	29.1
726.943	30.66
727.126	31.26
727.309	27.42
727.492	30.18
727.675	26.27
727.858	25.99
728.041	23.81
728.224	23.05
728.407	23.65
728.589	20.59
728.772	21.38
728.955	21.88
729.138	22.82
729.321	23.44
729.503	23.21
729.686	26.12
729.869	26.96
730.052	28.43
730.234	26.7
730.417	26.53
730.6	28.11
730.782	28.65
730.965	27.1
731.148	27.65
731.33	27.41
731.513	26.47
731.695	27.34
731.878	30.96
732.061	32.51
732.243	33.13
732.426	32.71
732.608	33.31
732.791	33.54
732.973	36.92
733.156	33.89
733.338	34.57
733.52	35.94
733.703	34.37
733.885	30.11
734.068	29.3
734.25	30.9
734.432	28.61
734.615	27.35
734.797	25.8
734.979	24.5
735.162	27.41
735.344	27.65
735.526	29.42
735.708	29.68
735.891	34.14
736.073	36.13
736.255	37.7
736.437	39.37
736.619	40.89
736.802	44.19
736.984	42.7
737.166	42.2
737.348	40.64
737.53	38.56
737.712	40.63
737.894	35.81
738.076	33.54
738.258	31.25
738.44	31.21
738.622	28.19
738.804	26.54
738.986	27.81
739.168	26.57
739.35	26.72
739.532	24.47
739.714	22.15
739.896	22.04
740.078	21.25
740.259	23.94
740.441	26.55
740.623	28.18
740.805	25.96
740.987	26.73
741.168	25.06
741.35	24.28
741.532	26.7
741.714	27.99
741.895	30.22
742.077	29.54
742.259	27.13
742.44	24.43
742.622	21.92
742.804	23.15
742.985	21.99
743.167	22.15
743.348	23.48
743.53	25.01
743.711	24.29
743.893	22.1
744.075	24.49
744.256	22.51
744.438	23.03
744.619	27.6
744.8	28.87
744.982	26.21
745.163	24.23
745.345	25.66
745.526	24.26
745.707	24.15
745.889	22.94
746.07	17.56
746.252	20.44
746.433	19.28
746.614	19.97
746.795	21.36
746.977	29.2
747.158	35.12
747.339	37
747.52	38.78
747.702	38.29
747.883	40.98
748.064	45.21
748.245	45.07
748.426	44.94
748.607	43.26
748.788	40.48
748.97	36.07
749.151	35.71
749.332	35.33
749.513	30.87
749.694	33.64
749.875	32.18
750.056	33.99
750.237	34.39
750.418	36.35
750.599	34.3
750.78	30.74
750.96	31.1
751.141	33.85
751.322	29.97
751.503	28.58
751.684	29.68
751.865	31.14
752.046	26.69
752.226	25.34
752.407	26.3
752.588	25.54
752.769	28.8
752.949	28.44
753.13	21.68
753.311	23.95
753.492	25.45
753.672	23.14
753.853	19.78
754.034	19.91
754.214	20.45
754.395	19.18
754.575	24.69
754.756	24.48
754.937	27.01
755.117	31.48
755.298	34.05
755.478	36.11
755.659	36.67
755.839	42.95
756.02	44.6
756.2	48.13
756.381	46.24
756.561	42.87
756.741	40.51
756.922	37.59
757.102	35.15
757.283	32.04
757.463	34.24
757.643	33.3
757.823	31.53
758.004	35.91
758.184	30.68
758.364	33.02
758.545	30.51
758.725	33.43
758.905	37.28
759.085	38.84
759.265	37.53
759.446	34.05
759.626	28.49
759.806	25.44
759.986	18.83
760.166	19.51
760.346	16.25
760.526	18.91
760.706	18.71
760.886	19.05
761.066	17.37
761.246	16.07
761.426	18
761.606	23.43
761.786	21.01
761.966	24.36
762.146	26.11
762.326	28.44
762.506	30.19
762.686	30.25
762.866	26.97
763.046	28.96
763.225	31.29
763.405	29.78
763.585	29.68
763.765	30.76
763.945	31.32
764.124	29.24
764.304	28.14
764.484	25.92
764.664	25.59
764.843	29.74
765.023	25.85
765.203	23.54
765.382	24.52
765.562	23.76
765.741	25.24
765.921	20.31
766.101	23.53
766.28	24.76
766.46	29.94
766.639	30.78
766.819	32.75
766.998	34.18
767.178	36.78
767.357	37.53
767.537	33.78
767.716	32.86
767.896	37.17
768.075	35.48
768.254	37.81
768.434	36.92
768.613	33.05
768.792	30.78
768.972	29.77
769.151	26.68
769.33	25.63
769.51	26.43
769.689	25.16
769.868	25.27
770.047	23.97
770.226	24.51
770.406	16.11
770.585	13.54
770.764	9.05
770.943	5.12
771.122	13.39
771.301	15.92
771.48	22.11
771.66	29.69
771.839	29.76
772.018	32.4
772.197	26.53
772.376	28.9
772.555	33.47
772.734	34
772.913	40.01
773.092	40.03
773.271	38.87
773.449	35.38
773.628	26.83
773.807	23.25
773.986	26.26
774.165	25.62
774.344	26.23
774.523	31.83
774.701	34.51
774.88	33.76
775.059	28.48
775.238	30.11
775.417	31.73
775.595	41.02
775.774	47.42
775.953	43.47
776.131	44.73
776.31	39
776.489	37.01
776.667	32.85
776.846	39.66
777.025	39.52
777.203	38.34
777.382	35.62
777.56	34.94
777.739	35.81
777.917	32.98
778.096	33.4
778.274	38.5
778.453	37.66
778.631	43.29
778.81	34.37
778.988	33.74
779.166	31.53
779.345	33.1
779.523	32.41
779.702	28.28
779.88	34.69
780.058	30.39
780.237	28.6
780.415	34.49
780.593	33.1
780.771	38.24
780.95	36.34
781.128	40.38
781.306	40.26
781.484	35.98
781.662	31.69
781.841	28.21
782.019	32.87
782.197	33.48
782.375	33.33
782.553	31.37
782.731	25.53
782.909	27.41
783.087	27.87
783.265	25.83
783.443	29.62
783.621	41.3
783.799	41.62
783.977	39.88
784.155	41.87
784.333	34.07
784.511	35.65
784.689	35.73
784.867	34.33
785.045	31.19
785.223	30.82
785.4	36.69
785.578	36.21
785.756	39.21
785.934	38.57
786.112	36.63
786.289	40.87
786.467	39.91
786.645	39.41
786.823	43.42
787	43.55
787.178	46.38
787.356	35.35
787.533	31.22
787.711	29.44
787.889	29.7
788.066	32.85
788.244	33.84
788.421	37.06
788.599	40.49
788.776	34.9
788.954	31.3
789.131	31.52
789.309	34.2
789.486	32.1
789.664	31.16
789.841	31.04
790.019	29.25
790.196	26.56
790.373	25.06
790.551	23.11
790.728	27.31
790.906	32.77
791.083	34.46
791.26	32.23
791.437	30.85
791.615	32.45
791.792	34.39
791.969	33.13
792.146	34.64
792.324	32.91
792.501	35.59
792.678	30.23
792.855	29.14
793.032	28.67
793.209	25.82
793.387	28.24
793.564	27.43
793.741	27.19
793.918	28.51
794.095	26.18
794.272	27.44
794.449	25.13
794.626	34.33
794.803	35.39
794.98	33.3
795.157	35.63
795.334	37.45
795.511	37.55
795.688	39.83
795.864	44.14
796.041	50.66
796.218	48.58
796.395	50.51
796.572	48.95
796.749	54.41
796.925	58.4
797.102	63.02
797.279	62.45
797.456	60.29
797.632	54.08
797.809	50.19
797.986	42.16
798.162	39.8
798.339	29.15
798.516	24.03
798.692	16.31
798.869	6.69
799.046	8.46
799.222	-0.07
799.399	12.46
799.575	19.41
799.752	17.39
799.928	25.6
800.105	25.75
800.281	36.55
800.458	30.47
800.634	32.49
800.811	33.4
800.987	31.07
801.163	24.07
801.34	20.86
801.516	22.32
801.692	27.36
801.869	23.96
802.045	25.39
802.221	28.6
802.398	37.23
802.574	33.99
802.75	30.93
802.926	32.07
803.103	37.55
803.279	36.91
803.455	37.58
803.631	29.08
803.807	31.05
803.983	25.85
804.16	17.72
804.336	17.52
804.512	16.06
804.688	19.86
804.864	12.84
805.04	5.23
805.216	0
805.392	-2.6
805.568	3.46
805.744	3.71
805.92	12
806.096	22.3
806.272	17.73
806.448	21.37
806.623	20.82
806.799	26.35
806.975	31.55
807.151	29.93
807.327	16.26
807.503	19.88
807.678	19.21
807.854	8.6
808.03	-4.74
808.206	-13.32
808.381	-11.99
808.557	-13.41
808.733	-8.37
808.908	-2.94
809.084	5.93
809.26	9.97
809.435	11.24
809.611	3.98
809.787	17.27
809.962	22.07
810.138	28.51
810.313	24.98
810.489	34.64
810.664	19.27
810.84	21.45
811.015	14.66
811.191	9.4
811.366	6.58
811.542	16.52
811.717	18.07
811.892	21.78
812.068	21.44
812.243	24.97
812.419	18.29
812.594	12.22
812.769	14.5
812.944	21.22
813.12	28.97
813.295	30.14
813.47	29.65
813.645	32.2
813.821	34.32
813.996	38.48
814.171	37.94
814.346	50.28
814.521	64.48
814.697	58.01
814.872	64.33
815.047	68.43
815.222	59.88
815.397	66.02
815.572	56.68
815.747	58.93
815.922	58.25
816.097	63.64
816.272	50.03
816.447	49.29
816.622	54.01
816.797	44.37
816.972	42.79
817.147	41.99
817.322	36.78
817.496	42.78
817.671	40.67
817.846	38.21
818.021	32.43
818.196	33.8
818.371	25.41
818.545	25.71
818.72	28.6
818.895	29.58
819.069	37.86
819.244	37.75
819.419	33.39
819.594	30.47
819.768	30.99
819.943	33.37
820.117	34.35
820.292	32.45
820.467	28.86
820.641	28.83
820.816	28.15
820.99	27.65
821.165	26.38
821.339	25.99
821.514	26.51
821.688	24.85
821.863	23.58
822.037	23.81
822.212	26.41
822.386	28.03
822.56	26.52
822.735	25.43
822.909	22.17
823.084	24.06
823.258	25.79
823.432	25.75
823.606	28.91
823.781	30.1
823.955	29.98
824.129	26.3
824.303	27.13
824.478	28.62
824.652	29.45
824.826	31.21
825	26.5
825.174	24.67
825.348	23.57
825.523	24.3
825.697	22.29
825.871	20.64
826.045	22.99
826.219	19.47
826.393	20.67
826.567	20.65
826.741	18.83
826.915	19.83
827.089	16.99
827.263	14.55
827.437	12.07
827.611	15.02
827.784	13.9
827.958	8.43
828.132	10.91
828.306	8.02
828.48	3.66
828.654	6.61
828.827	5.36
829.001	8.88
829.175	13.52
829.349	12.12
829.522	9.11
829.696	3.99
829.87	11.15
830.044	6.72
830.217	0.21
830.391	2.98
830.565	6.18
830.738	4.42
830.912	7.28
831.085	6.38
831.259	8.95
831.432	16.7
831.606	21.72
831.779	21.48
831.953	24.36
832.126	26.14
832.3	26.49
832.473	25.95
832.647	32.24
832.82	25.72
832.994	29.74
833.167	28.7
833.34	26.37
833.514	26.09
833.687	27.42
833.86	31.22
834.034	35.58
834.207	41.82
834.38	41.31
834.553	37.38
834.727	45.37
834.9	44.29
835.073	48.49
835.246	49.63
835.419	48.82
835.593	40.79
835.766	35.56
835.939	19.41
836.112	1.15
836.285	4.06
836.458	9.64
836.631	5.92
836.804	5.72
836.977	6.37
837.15	1.83
837.323	-1.7
837.496	8.53
837.669	12.92
837.842	40
838.015	56.36
838.188	55.1
838.361	38.55
838.533	38.55
838.706	29.05
838.879	24.95
839.052	14.44
839.225	13.64
839.398	12.78
839.57	25.99
839.743	10.94
839.916	10.64
840.088	-0.31
840.261	5.38
840.434	-20.52
840.607	-15.46
840.779	-4.86
840.952	10.69
841.124	13.46
841.297	11.29
841.47	12.03
841.642	38.64
841.815	22.46
841.987	34.66
842.16	21.18
842.332	31.64
842.505	31.89
842.677	26.16
842.85	18.35
843.022	15.13
843.194	21.3
843.367	4.96
843.539	4.04
843.712	20.72
843.884	8.04
844.056	16.84
844.229	6.92
844.401	-0.75
844.573	-2.6
844.745	9.57
844.918	3.66
845.09	-3.89
845.262	-30.95
845.434	-66.09
845.606	-82.66
845.779	-120.56
845.951	-117.54
846.123	-110.28
846.295	-79.56
846.467	-131.36
846.639	-260.94
846.811	-361.36
846.983	-425.16
847.155	-263.82
847.327	-108.89
847.499	-144.07
847.671	-54.74
847.843	-85.89
848.015	-100.83
848.187	-125.61
848.359	-201.12
848.531	-366.67
848.703	-104.83
848.875	-200
849.047	-222.88
849.218	-70.34
849.39	19.46
849.562	-10.58
849.734	-13.58
849.905	10.7
850.077	13.07
850.249	30
850.421	15.57
850.592	12.71
850.764	16.24
850.936	38.66
851.107	24.37
851.279	-0.6
851.451	14.92
851.622	21.99
851.794	18.89
851.965	20.59
852.137	10.01
852.308	11.18
852.48	3.77
852.651	12.05
852.823	1.21
852.994	1.05
853.166	38.23
853.337	48.79
853.509	45.08
853.68	40.03
853.851	44.59
854.023	35.29
854.194	42.4
854.365	49.15
854.537	43.7
854.708	35.76
854.879	35.53
855.05	28.49
855.222	24.65
855.393	25.85
855.564	19.79
855.735	14.68
855.906	7.95
856.078	-15.57
856.249	-89.43
856.42	-81.7
856.591	-54.22
856.762	-110.66
856.933	-119.05
857.104	-66.78
857.275	-161.24
857.446	-91.55
857.617	-121.08
857.788	-47.07
857.959	-4.62
858.13	9.69
858.301	-2.3
858.472	-13.14
858.643	6.67
858.814	19.43
858.985	9.21
859.155	17.89
859.326	-3.73
859.497	18.72
859.668	3.53
859.839	-24.21
860.009	-26.25
860.18	-14.75
860.351	-35.42
860.522	-33.83
860.692	-55.89
860.863	-73.31
861.034	-59.95
861.204	-34.75
861.375	-45.28
861.546	-96.34
861.716	-110.9
861.887	-80.38
862.057	-75.28
862.228	-38.86
862.398	-55.27
862.569	-58.05
862.739	-39.69
862.91	-29.44
863.08	-12.38
863.251	-6.15
863.421	20.25
863.592	28.94
863.762	35.41
863.932	46.88
864.103	44.92
864.273	47.89
864.443	43.53
864.614	48.34
864.784	43.07
864.954	22.26
865.125	29.07
865.295	24.33
865.465	40.27
865.635	30.93
865.805	20.53
865.976	23.13
866.146	36.31
866.316	27.53
866.486	34.52
866.656	46.09
866.826	53.7
866.996	53.4
867.166	46.19
867.336	31.81
867.506	41
867.676	65.11
867.846	55.18
868.016	47.99
868.186	94.17
868.356	-32.21
868.526	-218.75
868.696	-11700
868.866	191.76
869.036	11.93
869.206	-227.42
869.376	-346.34
869.545	-102.22
869.715	-134.69
869.885	-93.43
870.055	-28.41
870.224	7.79
870.394	-46.67
870.564	-53.49
870.734	-74.66
870.903	-156.9
871.073	-40.4
871.243	-18.53
871.412	-66.07
871.582	-5.87
871.751	-98.45
871.921	-70.04
872.091	-54.09
872.26	-20.77
872.43	17.92
872.599	25.12
872.769	28.25
872.938	14.88
873.108	-6.6
873.277	-10.42
873.446	-28.81
873.616	-12.82
873.785	-20.22
873.955	9.27
874.124	3.71
874.293	6.46
874.463	-8.7
874.632	-46.67
874.801	-40.14
874.971	-40.16
875.14	-33.07
875.309	-32.61
875.478	-31.48
875.647	-40.29
875.817	-55.23
875.986	-79.45
876.155	-75.52
876.324	-51.27
876.493	-49.55
876.662	-70.78
876.831	-55.49
877	-47.41
877.17	-39.78
877.339	-16.04
877.508	-19.25
877.677	-27.91
877.846	-7.45
878.015	-20.47
878.184	-15.22
878.352	-8.21
878.521	0.87
878.69	5.33
878.859	9.2
879.028	14.76
879.197	-2.29
879.366	2.25
879.534	14.95
879.703	4.62
879.872	9.78
880.041	9.57
880.21	8.87
880.378	10.59
880.547	14.76
880.716	17.97
880.884	16.42
881.053	23.15
881.222	21.28
881.39	17.82
881.559	21.57
881.727	20.55
881.896	22.26
882.065	27.19
882.233	28.69
882.402	22.74
882.57	18.28
882.739	19.92
882.907	8.04
883.076	0.65
883.244	10.72
883.412	15.51
883.581	12.05
883.749	-0.48
883.918	1.15
884.086	-12.26
884.254	-30.99
884.423	-26.73
884.591	-34.17
884.759	-66.92
884.927	-59.69
885.096	-99.43
885.264	-165.33
885.432	-186.91
885.6	-120.49
885.769	-95.05
885.937	-91.82
886.105	-35.57
886.273	-61.49
886.441	-50.64
886.609	33.28
886.777	17.36
886.945	29.25
887.113	50.42
887.281	42.72
887.449	28.74
887.617	13.71
887.785	6.12
887.953	18.16
888.121	31.72
888.289	21.98
888.457	3.61
888.625	23.97
888.793	31.06
888.961	48.38
889.129	70.89
889.296	80.06
889.464	83.77
889.632	86.83
889.8	105.11
889.967	76.05
890.135	88.98
