Data from JASIL_3266_Reflection_1.txt Node
Date: Mon Nov 16 21:01:11 EST 2015
User: Geneva
Spectrometer: USB4E03002
Autoset integration time: false
Trigger mode: 4
Integration Time (sec): 1.000000E-1
Scans to average: 10
Electric dark correction enabled: false
Nonlinearity correction enabled: false
Boxcar width: 5
Stray light correction enabled: false
XAxis mode: Wavelengths
Stop averaging: false
Number of Pixels in Spectrum: 3648
>>>>>Begin Spectral Data<<<<<
177.575	-568.38
177.794	-630.71
178.014	-684.94
178.233	-1185.98
178.452	-1745.78
178.672	-1150.76
178.891	-1568.87
179.11	4940.54
179.33	1663.39
179.549	-8281.82
179.768	1527.97
179.987	1825.81
180.207	1032.26
180.426	601.74
180.645	650.87
180.864	1126.62
181.084	513.88
181.303	475
181.522	950
181.741	3026.76
181.96	663.25
182.179	887.36
182.398	1005.78
182.618	1006.78
182.837	956.3
183.056	851.59
183.275	532.25
183.494	520
183.713	572.1
183.932	464.07
184.151	493.87
184.37	535.33
184.589	399.32
184.808	334.58
185.027	328.63
185.246	411.64
185.465	579.22
185.684	653.13
185.903	2751.72
186.122	1051.12
186.341	1306.18
186.56	660.53
186.779	1173.58
186.998	1763.85
187.216	1746.46
187.435	1410.78
187.654	1275.68
187.873	627.48
188.092	504.54
188.311	445
188.53	709.28
188.748	691.93
188.967	1574.4
189.186	798.08
189.405	835.93
189.623	981.94
189.842	888.48
190.061	923.44
190.28	2546.15
190.498	-2647.5
190.717	1899.21
190.936	-3755.93
191.154	-1825.89
191.373	-38716.67
191.592	-21109.09
191.81	-1355.75
192.029	-1747.33
192.248	-547.59
192.466	-533.57
192.685	-595.81
192.904	-811.72
193.122	-539.47
193.341	-1242.7
193.559	-1217.26
193.778	-1386.67
193.996	-1689.31
194.215	57500
194.433	-5369.05
194.652	1144.33
194.87	1005.63
195.089	889.08
195.307	1018.42
195.526	3172.88
195.744	1639.47
195.963	953.3
196.181	20575
196.399	-1540.17
196.618	8755
196.836	28783.33
197.055	-1443.44
197.273	-3015.52
197.491	-2098.89
197.71	-3892.16
197.928	2755
198.146	4845.24
198.365	-20880
198.583	1040.69
198.801	1371.35
199.019	3051.95
199.238	-5347.62
199.456	2259.43
199.674	966.53
199.892	697.01
200.111	925.38
200.329	911.32
200.547	734.65
200.765	640.84
200.983	662.95
201.202	504.52
201.42	818.5
201.638	520.52
201.856	605.4
202.074	1792.56
202.292	2162.63
202.51	1453.74
202.728	2116.49
202.946	-4857.5
203.165	6909.09
203.383	-2326.8
203.601	-2797.67
203.819	4846
204.037	24390
204.255	2557.73
204.473	1084.58
204.691	1533.33
204.909	992.24
205.127	1100.47
205.345	1303.98
205.562	1037.13
205.78	722.48
205.998	774.29
206.216	717.14
206.434	713.85
206.652	632.12
206.87	508.19
207.088	423.41
207.306	512.76
207.523	448.8
207.741	353.88
207.959	395.45
208.177	426.18
208.395	351.47
208.612	387.48
208.83	346.07
209.048	381.02
209.266	489.62
209.483	488.94
209.701	406.14
209.919	474.95
210.136	480.32
210.354	1113.5
210.572	1022.62
210.79	1545.93
211.007	911.79
211.225	1598.45
211.442	-8728.57
211.66	-2483.33
211.878	-1223.61
212.095	274.96
212.313	303.45
212.53	414.21
212.748	247.59
212.966	231.55
213.183	228.78
213.401	240.69
213.618	208.81
213.836	250.13
214.053	236.75
214.271	223.68
214.488	1712.61
214.705	907.8
214.923	691.29
215.14	723.13
215.358	611.69
215.575	942.45
215.793	905.48
216.01	1312.27
216.227	455.11
216.445	356.17
216.662	418.78
216.879	436.73
217.097	368.78
217.314	411.82
217.531	499.3
217.749	566
217.966	674.67
218.183	595.32
218.4	685.99
218.618	910.63
218.835	991.74
219.052	647.87
219.269	545.45
219.487	821.18
219.704	558.47
219.921	431.55
220.138	328.42
220.355	338.36
220.572	351.86
220.79	377.96
221.007	446.6
221.224	631.61
221.441	556.52
221.658	651.34
221.875	448.5
222.092	471.33
222.309	702.9
222.526	774.6
222.743	671.43
222.96	917.45
223.177	449.47
223.394	477.53
223.611	314.57
223.828	394.08
224.045	448.45
224.262	521.71
224.479	364.53
224.696	268.69
224.913	311.73
225.13	255.09
225.347	210.5
225.564	196.39
225.781	149.43
225.997	149.64
226.214	115.97
226.431	94.13
226.648	77.63
226.865	76.39
227.082	74.91
227.298	70.82
227.515	67.79
227.732	65.26
227.949	61.55
228.165	59.69
228.382	55.25
228.599	58.01
228.816	58.37
229.032	58.58
229.249	49.7
229.466	50.63
229.682	49.11
229.899	45.8
230.116	48.08
230.332	52.61
230.549	58.97
230.765	59.6
230.982	64.46
231.199	65.2
231.415	71.47
231.632	82.92
231.848	88.3
232.065	95.61
232.281	98.53
232.498	101.95
232.714	102.36
232.931	100.4
233.147	100.15
233.364	105.53
233.58	107.27
233.797	107.24
234.013	102.76
234.23	102.18
234.446	96.32
234.662	93.46
234.879	90.07
235.095	88.2
235.312	90.11
235.528	86.94
235.744	82.07
235.961	83.65
236.177	77.4
236.393	91.07
236.61	96.25
236.826	100.55
237.042	102.83
237.258	103.93
237.475	101.84
237.691	104.58
237.907	112.01
238.123	113.18
238.339	102.29
238.556	102.96
238.772	91.26
238.988	79.99
239.204	76.45
239.42	73.99
239.636	71.57
239.853	69.89
240.069	64
240.285	60.84
240.501	55.35
240.717	53.13
240.933	47.45
241.149	45.1
241.365	44.39
241.581	42.78
241.797	40.54
242.013	38.86
242.229	37.23
242.445	36.61
242.661	36.43
242.877	37.79
243.093	37.25
243.309	40.86
243.525	41.3
243.741	42.91
243.957	44.34
244.173	45.45
244.388	47.43
244.604	47.29
244.82	44.71
245.036	41.38
245.252	37.64
245.468	35.32
245.683	31.16
245.899	30.73
246.115	28.8
246.331	26.57
246.547	24.08
246.762	22.53
246.978	22.69
247.194	22.79
247.409	21.89
247.625	22.68
247.841	23.26
248.057	25.34
248.272	24.78
248.488	26.62
248.703	28.93
248.919	30.19
249.135	32.41
249.35	32.63
249.566	34.03
249.782	35.27
249.997	36.49
250.213	35.69
250.428	34.26
250.644	38.26
250.859	35.26
251.075	31.55
251.29	35.11
251.506	34.88
251.721	35.51
251.937	36.55
252.152	38.29
252.368	37.82
252.583	40.03
252.798	42.71
253.014	39.97
253.229	40.91
253.445	43.59
253.66	43.86
253.875	45.3
254.091	48.42
254.306	48.01
254.521	47.9
254.737	46.78
254.952	45.89
255.167	41.72
255.383	41.27
255.598	40.69
255.813	38.16
256.028	39.83
256.244	39.49
256.459	35.59
256.674	33.88
256.889	30.34
257.104	29.38
257.32	26.62
257.535	25.55
257.75	23.26
257.965	21.85
258.18	22.33
258.395	19.98
258.61	18.61
258.826	18.84
259.041	19.65
259.256	20.3
259.471	19.52
259.686	19.85
259.901	19.76
260.116	20.57
260.331	21.08
260.546	20.74
260.761	21.47
260.976	21.52
261.191	21.62
261.406	21.78
261.621	22.51
261.836	25.35
262.05	26.22
262.265	29.93
262.48	30.89
262.695	31.66
262.91	32.73
263.125	32.48
263.34	33.85
263.555	34.98
263.769	35.81
263.984	35.2
264.199	36.62
264.414	36.28
264.629	32.05
264.843	31.45
265.058	30.67
265.273	28.07
265.488	29.1
265.702	28.25
265.917	27.27
266.132	26.35
266.346	27.91
266.561	24.76
266.776	25.04
266.99	24.96
267.205	25.82
267.42	24
267.634	26.4
267.849	23.95
268.063	25.32
268.278	26.82
268.492	26.81
268.707	26.28
268.922	26.57
269.136	25.75
269.351	25.61
269.565	22.7
269.78	23.81
269.994	24.08
270.209	25.84
270.423	23.69
270.637	22.58
270.852	21.22
271.066	19.83
271.281	21.29
271.495	20.53
271.709	20.43
271.924	23.51
272.138	23.98
272.353	23.43
272.567	22.96
272.781	23.04
272.996	22.22
273.21	22.28
273.424	23.12
273.638	22.25
273.853	24.11
274.067	24.46
274.281	23.5
274.495	23.75
274.71	22.69
274.924	21.83
275.138	24.37
275.352	25.35
275.566	25.29
275.781	24.16
275.995	23.86
276.209	22.06
276.423	24.03
276.637	22.53
276.851	24.14
277.065	25.73
277.279	26.92
277.493	25.51
277.707	24.72
277.921	25.96
278.135	26.45
278.349	27.97
278.563	28.46
278.777	27.77
278.991	28.69
279.205	26.92
279.419	26.35
279.633	26.54
279.847	25.99
280.061	26.67
280.275	24.95
280.489	25.29
280.703	22.78
280.917	24.02
281.131	22.91
281.344	23.31
281.558	24.69
281.772	22.65
281.986	22.05
282.2	22.73
282.414	21.5
282.627	22.28
282.841	21.65
283.055	22.5
283.269	21.73
283.482	21.67
283.696	21.49
283.91	19.38
284.123	20.52
284.337	20.16
284.551	19.53
284.764	19.34
284.978	19.34
285.192	19.62
285.405	19.94
285.619	18.39
285.833	19.19
286.046	18.19
286.26	18.1
286.473	17.19
286.687	17.66
286.9	18.55
287.114	19.4
287.327	20.13
287.541	20.44
287.754	19.97
287.968	20.81
288.181	20.25
288.395	19.86
288.608	20.85
288.822	22.55
289.035	22.49
289.248	22.41
289.462	21.7
289.675	21.93
289.889	21.44
290.102	20.22
290.315	21.46
290.529	21.14
290.742	21.95
290.955	22.82
291.169	23.16
291.382	22.93
291.595	22.52
291.808	22.69
292.022	21.95
292.235	22.6
292.448	23.57
292.661	21.96
292.875	23.93
293.088	24.2
293.301	22.29
293.514	21.69
293.727	21.43
293.94	21.45
294.153	22.42
294.367	22.15
294.58	21.85
294.793	20.48
295.006	21.97
295.219	20.64
295.432	20.36
295.645	19.89
295.858	19.16
296.071	18.44
296.284	17.63
296.497	15.84
296.71	15.94
296.923	16.53
297.136	16.37
297.349	15.05
297.562	15.77
297.775	15.95
297.988	16
298.201	17.27
298.414	17.85
298.626	18.38
298.839	19.68
299.052	19.27
299.265	18.72
299.478	20.79
299.691	21.15
299.903	20.17
300.116	19.99
300.329	21.56
300.542	20.13
300.755	20.19
300.967	20.48
301.18	20.65
301.393	22.45
301.605	22.24
301.818	22.04
302.031	22.05
302.243	22.57
302.456	23.02
302.669	22.33
302.881	23.77
303.094	23.97
303.307	23.61
303.519	24.09
303.732	23.27
303.944	23.55
304.157	23.82
304.37	24.73
304.582	23.96
304.795	23.4
305.007	23.77
305.22	22.98
305.432	22.94
305.645	23.34
305.857	23.68
306.069	23.64
306.282	23.61
306.494	23.91
306.707	23.03
306.919	23.67
307.132	24.3
307.344	25.13
307.556	24.4
307.769	24.6
307.981	25.9
308.193	24.85
308.406	24.2
308.618	23.65
308.83	23.92
309.043	23.35
309.255	23.12
309.467	22.37
309.679	20.85
309.892	20.72
310.104	20.28
310.316	19.15
310.528	19.35
310.74	18.49
310.953	18.05
311.165	17.14
311.377	18.04
311.589	18.17
311.801	17.77
312.013	18.85
312.225	20.02
312.437	19.88
312.649	19.49
312.862	19.19
313.074	19.58
313.286	20.53
313.498	21.76
313.71	20.78
313.922	21.77
314.134	23.32
314.346	22.74
314.558	21.74
314.77	21.22
314.982	21.99
315.193	21.88
315.405	22.34
315.617	21.4
315.829	21.69
316.041	22.76
316.253	20.93
316.465	20.63
316.677	21.58
316.888	23.14
317.1	23.97
317.312	24.3
317.524	25.19
317.736	26.14
317.947	28.46
318.159	27.03
318.371	26.69
318.583	27.95
318.794	28.23
319.006	26.38
319.218	24.74
319.43	25.12
319.641	25.61
319.853	24.88
320.064	24.43
320.276	24.35
320.488	25.84
320.699	26.32
320.911	25.99
321.123	26.63
321.334	29.44
321.546	29.95
321.757	30.05
321.969	31.03
322.18	30.97
322.392	30.55
322.603	29.32
322.815	28.12
323.026	27.65
323.238	27.56
323.449	24.95
323.661	22.79
323.872	22.36
324.083	22.12
324.295	20.56
324.506	20.73
324.718	18.98
324.929	19.45
325.14	20.18
325.352	20.62
325.563	21.16
325.774	21.9
325.986	21.43
326.197	21.71
326.408	22.22
326.62	22.93
326.831	22.88
327.042	24.02
327.253	23.14
327.464	23.62
327.676	21.94
327.887	22.35
328.098	23.18
328.309	25.46
328.52	26.64
328.732	25.93
328.943	25.69
329.154	26.49
329.365	27.92
329.576	28.35
329.787	26.8
329.998	29.32
330.209	27.31
330.42	25.6
330.631	25.49
330.842	24.09
331.053	25.37
331.264	25.28
331.475	23.77
331.686	24.12
331.897	23.63
332.108	25.13
332.319	23.88
332.53	23.38
332.741	24.27
332.952	23.54
333.163	23.39
333.374	22.39
333.585	21.91
333.795	23.11
334.006	21.12
334.217	21.14
334.428	19.63
334.639	19.74
334.849	20.09
335.06	20.94
335.271	21.11
335.482	21.93
335.692	22.44
335.903	21.91
336.114	22.19
336.325	23.84
336.535	23.88
336.746	24.56
336.957	25.2
337.167	25.75
337.378	25.72
337.589	24.34
337.799	23.71
338.01	23.99
338.22	24.76
338.431	24.77
338.642	24.36
338.852	24.16
339.063	24.04
339.273	23.1
339.484	23.75
339.694	23.88
339.905	25.11
340.115	25.46
340.326	25.02
340.536	26.02
340.746	25.22
340.957	25.43
341.167	25.52
341.378	26.17
341.588	26.57
341.799	26.24
342.009	25.39
342.219	24.6
342.43	24.9
342.64	24.54
342.85	23.13
343.061	22.78
343.271	21.74
343.481	20.82
343.691	20.05
343.902	20.17
344.112	19.38
344.322	19.02
344.532	19.3
344.743	19.66
344.953	19.87
345.163	20.05
345.373	20.23
345.583	21.05
345.793	22.17
346.004	22.55
346.214	21.68
346.424	21.73
346.634	21.34
346.844	21.61
347.054	21.58
347.264	21.34
347.474	21.43
347.684	21.03
347.894	20.2
348.104	19.28
348.314	18.5
348.524	20.05
348.734	20.12
348.944	21.23
349.154	20.58
349.364	20.28
349.574	20.06
349.784	20.23
349.994	20.83
350.204	21.05
350.413	21.22
350.623	21.54
350.833	19.98
351.043	19.78
351.253	20.29
351.463	19.77
351.672	18.74
351.882	18.73
352.092	18.68
352.302	19.14
352.511	19.1
352.721	19.46
352.931	19.63
353.141	20.34
353.35	20.69
353.56	20.42
353.77	21.84
353.979	22.87
354.189	22.6
354.399	22.21
354.608	21.8
354.818	22.1
355.027	22.14
355.237	21.69
355.447	21.61
355.656	22.22
355.866	21.67
356.075	21.41
356.285	20.82
356.494	20.78
356.704	20.77
356.913	20.44
357.123	20.43
357.332	19.84
357.542	19.45
357.751	18.83
357.96	19.26
358.17	18.64
358.379	17.68
358.589	17.79
358.798	17.43
359.007	16.63
359.217	15.77
359.426	14.88
359.635	14.81
359.845	14.26
360.054	14.63
360.263	13.3
360.472	13.03
360.682	13.2
360.891	12.95
361.1	13.44
361.309	13.76
361.519	13.96
361.728	14.67
361.937	14.39
362.146	15.27
362.355	16.05
362.564	16.92
362.774	17.27
362.983	17.64
363.192	18.04
363.401	17.99
363.61	17.83
363.819	18.46
364.028	18.03
364.237	19.27
364.446	18.81
364.655	18.02
364.864	17.72
365.073	18.15
365.282	18.41
365.491	17.71
365.7	18.05
365.909	17.71
366.118	17.23
366.327	17.77
366.536	17.3
366.745	17.67
366.954	18.63
367.162	19.04
367.371	19.57
367.58	19.65
367.789	19.88
367.998	19.73
368.207	20.73
368.415	21.33
368.624	20.57
368.833	20.92
369.042	20.64
369.25	20.83
369.459	20.07
369.668	19.57
369.877	18.78
370.085	18.83
370.294	18.99
370.503	18.37
370.711	18.31
370.92	18.42
371.129	18.95
371.337	18.91
371.546	17.69
371.754	18.05
371.963	17.93
372.171	18.05
372.38	18.78
372.589	19.18
372.797	19.26
373.006	18.56
373.214	18.16
373.423	16.69
373.631	16.62
373.84	15.93
374.048	14.83
374.256	14.23
374.465	14.8
374.673	14.43
374.882	12.93
375.09	12.77
375.298	13.68
375.507	14.51
375.715	14.71
375.923	13.83
376.132	13.71
376.34	13.97
376.548	14.56
376.757	14.67
376.965	14.9
377.173	15.26
377.381	15.84
377.59	15.63
377.798	15.47
378.006	14.93
378.214	16.35
378.423	17.14
378.631	17.71
378.839	16.94
379.047	17.07
379.255	16.53
379.463	17.01
379.671	16.56
379.879	16.05
380.088	15.72
380.296	16.45
380.504	16.48
380.712	16.24
380.92	15.78
381.128	16.54
381.336	15.84
381.544	16.13
381.752	15.77
381.96	15.53
382.168	15.67
382.376	16.09
382.584	16.1
382.791	15.03
382.999	15.9
383.207	15.71
383.415	15.72
383.623	15.56
383.831	14.35
384.039	14.38
384.247	15.11
384.454	15.57
384.662	15.25
384.87	14.7
385.078	15.36
385.285	14.83
385.493	15.17
385.701	14.89
385.909	15.11
386.116	15.87
386.324	15.98
386.532	15.62
386.739	14.94
386.947	14.49
387.155	15.32
387.362	15.3
387.57	14.6
387.778	14.98
387.985	14.73
388.193	14.41
388.4	15.1
388.608	15.01
388.816	14.77
389.023	15.28
389.231	15.3
389.438	14.65
389.646	14.65
389.853	15.14
390.061	14.49
390.268	14.23
390.475	14.58
390.683	13.47
390.89	13.42
391.098	13.27
391.305	13.22
391.512	12.33
391.72	11.61
391.927	11.59
392.135	11.91
392.342	11.81
392.549	12.71
392.756	12.93
392.964	13.48
393.171	13.62
393.378	13.87
393.586	13.42
393.793	13.8
394	14.63
394.207	14.5
394.414	14.58
394.622	14.8
394.829	14.15
395.036	14.03
395.243	13.92
395.45	14.58
395.657	14.96
395.864	15.35
396.072	16.46
396.279	16.67
396.486	17.13
396.693	16.78
396.9	16.82
397.107	16.85
397.314	16.44
397.521	16.72
397.728	15.75
397.935	15.34
398.142	14.84
398.349	13.96
398.556	13.33
398.763	12.77
398.97	13
399.177	13.47
399.383	13.8
399.59	14.23
399.797	13.65
400.004	14.24
400.211	14.43
400.418	15.59
400.625	16.38
400.831	16.81
401.038	17.06
401.245	16.63
401.452	16.71
401.658	16.41
401.865	16.15
402.072	16.11
402.279	15.38
402.485	15.26
402.692	14.64
402.899	14.23
403.105	14.41
403.312	14.52
403.519	14.88
403.725	13.91
403.932	14.11
404.138	13.89
404.345	14.06
404.552	13.96
404.758	14.01
404.965	13.4
405.171	13.78
405.378	13.43
405.584	12.86
405.791	11.98
405.997	12.5
406.204	12.48
406.41	13.06
406.617	13.14
406.823	13.57
407.029	13.73
407.236	13.82
407.442	13.08
407.649	13.65
407.855	14
408.061	14.71
408.268	14.99
408.474	15.19
408.68	13.81
408.887	13.45
409.093	13.62
409.299	13.25
409.505	13.55
409.712	13.56
409.918	12.93
410.124	12.75
410.33	12.5
410.537	11.79
410.743	11.41
410.949	12.44
411.155	12.36
411.361	12.52
411.567	12.43
411.773	12.49
411.98	12.58
412.186	12.54
412.392	12.57
412.598	12.48
412.804	12.88
413.01	13.05
413.216	13.2
413.422	13.58
413.628	13.05
413.834	13.09
414.04	13.42
414.246	13.73
414.452	14.33
414.658	14.27
414.864	14.41
415.07	14.36
415.275	14.44
415.481	13.97
415.687	13.64
415.893	13.41
416.099	13.51
416.305	13.39
416.511	13.25
416.716	12.21
416.922	12.09
417.128	11.69
417.334	11.79
417.539	11.39
417.745	11.81
417.951	11.85
418.157	11.53
418.362	11.29
418.568	10.84
418.774	10.37
418.979	10.83
419.185	10.66
419.391	10.98
419.596	10.81
419.802	10.98
420.008	10.57
420.213	12.81
420.419	13.2
420.624	12.97
420.83	13.26
421.035	13.44
421.241	13.22
421.446	13.45
421.652	13.1
421.857	13.16
422.063	13.09
422.268	13.02
422.474	10.86
422.679	10.41
422.885	10.46
423.09	10.11
423.295	10.05
423.501	10.35
423.706	10.14
423.911	10.34
424.117	10.21
424.322	9.96
424.527	9.99
424.733	10
424.938	10.25
425.143	10.36
425.349	10.6
425.554	11.12
425.759	10.89
425.964	10.91
426.169	10.87
426.375	10.65
426.58	11.08
426.785	11.11
426.99	11.35
427.195	11.36
427.4	11.16
427.605	11.56
427.811	10.85
428.016	10.91
428.221	11.15
428.426	11.6
428.631	12.17
428.836	12.04
429.041	12.66
429.246	12.51
429.451	13
429.656	13.41
429.861	12.95
430.066	13.22
430.271	13.64
430.476	13.16
430.681	13.01
430.886	13
431.09	12.9
431.295	12.57
431.5	12.53
431.705	12.14
431.91	11.99
432.115	11.91
432.32	12.15
432.524	11.66
432.729	11.99
432.934	11.79
433.139	11.59
433.343	11.95
433.548	11.61
433.753	11.41
433.958	11.79
434.162	11.75
434.367	11.95
434.572	11.92
434.776	12.39
434.981	12.38
435.186	12.55
435.39	12.76
435.595	12.68
435.799	12.81
436.004	12.9
436.209	12.58
436.413	12.52
436.618	12.59
436.822	12.42
437.027	11.89
437.231	11.79
437.436	11.48
437.64	11.33
437.845	11.12
438.049	10.94
438.253	11.16
438.458	10.91
438.662	10.94
438.867	10.8
439.071	11.04
439.275	11.37
439.48	11.55
439.684	11.84
439.888	11.63
440.093	11.87
440.297	11.88
440.501	11.99
440.706	12.35
440.91	12.39
441.114	12.37
441.318	12.69
441.523	12.48
441.727	12.41
441.931	12.13
442.135	12.18
442.339	11.87
442.543	12.16
442.748	12.05
442.952	11.73
443.156	11.96
443.36	11.87
443.564	11.37
443.768	11.2
443.972	11.44
444.176	11.4
444.38	11.44
444.584	11.35
444.788	11.17
444.992	10.97
445.196	10.98
445.4	10.96
445.604	10.85
445.808	10.88
446.012	11.07
446.216	10.75
446.42	10.83
446.624	10.98
446.828	10.93
447.032	10.88
447.235	10.98
447.439	10.99
447.643	10.99
447.847	11.4
448.051	11.43
448.254	11.32
448.458	11.41
448.662	11.19
448.866	11.29
449.069	11.51
449.273	11.85
449.477	11.73
449.681	11.85
449.884	11.75
450.088	11.57
450.292	11.65
450.495	11.53
450.699	11.72
450.902	12.19
451.106	12.09
451.31	12.34
451.513	12.68
451.717	12.86
451.92	13.1
452.124	13.12
452.327	13.48
452.531	13.22
452.734	13.38
452.938	13.33
453.141	13.16
453.345	13.16
453.548	12.85
453.752	12.47
453.955	12.76
454.158	12.3
454.362	12.31
454.565	12.09
454.769	12
454.972	12.36
455.175	12.32
455.379	12.51
455.582	12.19
455.785	12.39
455.988	12.29
456.192	11.92
456.395	12.37
456.598	12.65
456.801	12.49
457.005	12.75
457.208	12.41
457.411	12.53
457.614	12.54
457.817	12.86
458.021	12.61
458.224	12.49
458.427	12.41
458.63	12.08
458.833	11.69
459.036	11.32
459.239	11.15
459.442	11.15
459.645	11.12
459.848	11.23
460.051	11.18
460.254	11.36
460.457	11.43
460.66	11.56
460.863	11.75
461.066	11.71
461.269	12.08
461.472	11.97
461.675	12.05
461.878	12.02
462.081	12.04
462.284	11.99
462.486	11.85
462.689	12.15
462.892	12.13
463.095	11.84
463.298	11.73
463.5	11.61
463.703	11.7
463.906	11.84
464.109	11.95
464.311	11.86
464.514	12.34
464.717	12.4
464.92	11.61
465.122	11.76
465.325	12.03
465.528	12.45
465.73	12.11
465.933	12.43
466.135	12.39
466.338	12.2
466.541	11.81
466.743	11.46
466.946	11.5
467.148	11.92
467.351	11.8
467.553	12.08
467.756	12.2
467.958	12.59
468.161	12.72
468.363	12.67
468.566	12.58
468.768	12.84
468.971	12.85
469.173	12.56
469.375	12.45
469.578	12.47
469.78	12.18
469.983	11.89
470.185	11.85
470.387	11.93
470.59	12.08
470.792	12.17
470.994	12.22
471.196	12.04
471.399	12.3
471.601	12.3
471.803	12.17
472.005	11.95
472.208	12.07
472.41	11.85
472.612	11.7
472.814	11.66
473.016	11.46
473.218	11.38
473.421	11.37
473.623	11.34
473.825	11.72
474.027	11.75
474.229	12.03
474.431	12.06
474.633	12.52
474.835	12.51
475.037	12.45
475.239	12.73
475.441	12.73
475.643	13.06
475.845	12.87
476.047	12.77
476.249	12.6
476.451	12.41
476.653	12.36
476.855	11.99
477.057	11.81
477.258	11.48
477.46	11.45
477.662	11.69
477.864	11.35
478.066	11.4
478.268	11.05
478.469	11
478.671	10.99
478.873	10.78
479.075	10.8
479.276	10.82
479.478	10.88
479.68	10.7
479.882	10.42
480.083	10.32
480.285	10.37
480.487	10.7
480.688	10.75
480.89	10.72
481.091	10.77
481.293	10.76
481.495	10.46
481.696	10.48
481.898	10.38
482.099	10.41
482.301	10.3
482.502	10.07
482.704	9.72
482.905	9.52
483.107	9.37
483.308	9.22
483.51	9.11
483.711	9.11
483.913	9.01
484.114	9.02
484.315	8.96
484.517	8.91
484.718	8.96
484.92	9.01
485.121	9.01
485.322	9.13
485.524	9.12
485.725	9.24
485.926	9.23
486.127	9.2
486.329	9.07
486.53	8.93
486.731	8.96
486.932	8.99
487.134	8.99
487.335	9.08
487.536	9
487.737	9.12
487.938	9.11
488.139	9.13
488.341	9.16
488.542	9.35
488.743	9.5
488.944	9.63
489.145	9.62
489.346	9.7
489.547	9.79
489.748	9.86
489.949	9.76
490.15	9.74
490.351	9.83
490.552	9.95
490.753	9.89
490.954	9.79
491.155	9.78
491.356	9.85
491.557	9.88
491.758	9.78
491.959	9.68
492.159	9.84
492.36	9.85
492.561	9.97
492.762	9.97
492.963	9.99
493.164	10.33
493.364	10.32
493.565	10.39
493.766	10.53
493.967	10.7
494.167	11.05
494.368	10.98
494.569	11.05
494.769	11.02
494.97	11.3
495.171	11.57
495.371	11.54
495.572	11.63
495.773	11.6
495.973	11.62
496.174	11.65
496.375	11.72
496.575	11.71
496.776	11.6
496.976	11.16
497.177	11.09
497.377	11.18
497.578	11.03
497.778	11.22
497.979	11.31
498.179	11.28
498.38	11.19
498.58	11.21
498.78	11.2
498.981	11.47
499.181	11.97
499.382	11.76
499.582	11.59
499.782	11.43
499.983	11.3
500.183	11.29
500.383	11.22
500.584	11.19
500.784	11.28
500.984	11.53
501.184	11.51
501.385	11.34
501.585	11.49
501.785	11.75
501.985	12.05
502.185	12.06
502.386	11.93
502.586	12.03
502.786	12.34
502.986	12.11
503.186	12.2
503.386	12.08
503.586	12.16
503.786	12.24
503.987	11.71
504.187	11.73
504.387	11.94
504.587	12
504.787	11.95
504.987	12.27
505.187	12.58
505.387	12.6
505.587	12.88
505.786	13.29
505.986	13.4
506.186	13.74
506.386	13.85
506.586	13.68
506.786	13.63
506.986	13.82
507.186	13.46
507.386	13.27
507.585	13.22
507.785	12.95
507.985	12.57
508.185	12.47
508.384	12.4
508.584	12.15
508.784	12.15
508.984	12.26
509.183	12.15
509.383	12.3
509.583	12.09
509.782	12.2
509.982	12.56
510.182	12.58
510.381	12.76
510.581	12.93
510.781	13
510.98	13.07
511.18	13.07
511.379	12.89
511.579	12.65
511.778	12.98
511.978	12.88
512.177	12.62
512.377	12.76
512.576	12.65
512.776	12.58
512.975	12.58
513.175	12.68
513.374	12.71
513.573	12.85
513.773	13.04
513.972	12.82
514.172	12.94
514.371	13.22
514.57	13.33
514.77	13.43
514.969	13.74
515.168	13.7
515.367	13.85
515.567	14.14
515.766	14.35
515.965	14.44
516.164	14.8
516.364	14.72
516.563	14.66
516.762	14.55
516.961	14.55
517.16	14.41
517.359	14.46
517.559	14.25
517.758	14.02
517.957	14.01
518.156	14.05
518.355	13.79
518.554	13.82
518.753	13.52
518.952	13.57
519.151	13.66
519.35	13.57
519.549	13.47
519.748	13.65
519.947	13.8
520.146	14
520.345	13.88
520.544	14.01
520.743	14.23
520.942	14.65
521.141	14.83
521.339	14.9
521.538	14.98
521.737	15.24
521.936	15.13
522.135	15.16
522.333	15.11
522.532	15.16
522.731	15.22
522.93	14.9
523.129	14.68
523.327	14.79
523.526	14.73
523.725	14.74
523.923	14.77
524.122	14.6
524.321	14.57
524.519	14.51
524.718	14.63
524.917	14.7
525.115	14.91
525.314	15.04
525.512	14.97
525.711	14.94
525.909	14.86
526.108	14.75
526.306	14.89
526.505	14.86
526.703	14.86
526.902	14.67
527.1	14.48
527.299	14.35
527.497	14.29
527.696	14.2
527.894	14.17
528.092	14.11
528.291	14.14
528.489	14.09
528.688	14.04
528.886	13.94
529.084	14.01
529.283	14.14
529.481	14.14
529.679	14.19
529.877	14.23
530.076	14.28
530.274	14.57
530.472	14.77
530.67	14.97
530.869	15.18
531.067	15.38
531.265	15.5
531.463	15.54
531.661	15.9
531.859	16.05
532.057	16.14
532.255	16.26
532.454	16.06
532.652	15.97
532.85	15.9
533.048	15.85
533.246	15.92
533.444	15.94
533.642	15.98
533.84	15.86
534.038	15.83
534.236	15.9
534.434	15.85
534.632	16.01
534.83	16.29
535.027	16.3
535.225	16.52
535.423	16.67
535.621	16.88
535.819	16.86
536.017	16.85
536.215	16.94
536.412	16.89
536.61	16.93
536.808	17.21
537.006	17.12
537.203	17.65
537.401	17.62
537.599	17.75
537.797	17.72
537.994	17.72
538.192	17.82
538.39	17.88
538.587	18
538.785	18.12
538.983	18.04
539.18	17.84
539.378	17.44
539.575	17.54
539.773	17.29
539.97	17.25
540.168	17.6
540.366	17.72
540.563	17.72
540.761	17.69
540.958	17.67
541.155	17.72
541.353	17.77
541.55	17.7
541.748	17.63
541.945	17.71
542.143	17.71
542.34	17.47
542.537	17.37
542.735	17.36
542.932	17.53
543.129	17.64
543.327	17.59
543.524	17.65
543.721	17.91
543.919	18.09
544.116	18.39
544.313	18.81
544.51	18.97
544.708	19.3
544.905	19.58
545.102	19.6
545.299	19.82
545.496	19.91
545.693	20.01
545.891	20.03
546.088	20.33
546.285	20.16
546.482	20.02
546.679	20.15
546.876	20.23
547.073	20.17
547.27	20.02
547.467	19.85
547.664	19.9
547.861	20.07
548.058	20.27
548.255	20.07
548.452	20.29
548.649	20.7
548.846	20.67
549.043	20.8
549.24	20.88
549.437	21
549.633	20.98
549.83	21.1
550.027	21.15
550.224	21.07
550.421	21.26
550.618	21.37
550.814	20.77
551.011	21.21
551.208	21.19
551.405	21.41
551.601	21.66
551.798	21.97
551.995	21.81
552.191	22.09
552.388	22.21
552.585	22.03
552.781	22.16
552.978	22.77
553.175	22.48
553.371	22.48
553.568	22.61
553.764	22.71
553.961	22.69
554.157	23.07
554.354	22.88
554.55	22.89
554.747	23.19
554.943	22.76
555.14	22.64
555.336	23.06
555.533	23.18
555.729	22.96
555.926	23.37
556.122	23.29
556.318	23.31
556.515	23.75
556.711	23.8
556.907	23.92
557.104	24.21
557.3	23.98
557.496	23.79
557.693	23.64
557.889	23.94
558.085	23.88
558.281	24.41
558.478	24.24
558.674	24.07
558.87	24.32
559.066	24.36
559.262	24.31
559.459	24.62
559.655	24.81
559.851	25.31
560.047	25.26
560.243	25.21
560.439	25.25
560.635	25.23
560.831	25.35
561.027	25.34
561.223	25.17
561.419	25.39
561.615	25.66
561.811	25.82
562.007	25.68
562.203	25.72
562.399	25.26
562.595	25.28
562.791	25.51
562.987	25.34
563.183	25.49
563.379	25.96
563.575	26.34
563.771	26.13
563.966	25.89
564.162	26.07
564.358	26.05
564.554	26.34
564.75	25.94
564.945	25.91
565.141	25.85
565.337	25.93
565.533	25.62
565.728	25.22
565.924	24.83
566.12	25.15
566.315	24.89
566.511	24.74
566.707	24.83
566.902	25.07
567.098	25.31
567.293	25.58
567.489	25.29
567.684	25.16
567.88	25.42
568.076	25.81
568.271	25.5
568.467	25.52
568.662	25.79
568.858	25.99
569.053	26.13
569.248	26.19
569.444	26.29
569.639	26.68
569.835	26.83
570.03	26.66
570.225	26.74
570.421	26.88
570.616	27
570.812	27.11
571.007	27.04
571.202	26.63
571.397	26.6
571.593	26.53
571.788	26.24
571.983	26.32
572.178	26.45
572.374	26.43
572.569	26.55
572.764	26.45
572.959	26.36
573.154	26.29
573.35	26.79
573.545	26.81
573.74	26.87
573.935	26.92
574.13	26.97
574.325	27.19
574.52	27.2
574.715	27.11
574.91	27.23
575.105	27.29
575.3	27.3
575.495	26.94
575.69	26.94
575.885	26.9
576.08	27.44
576.275	27.8
576.47	27.9
576.665	28.25
576.86	28.49
577.055	28.45
577.25	28.64
577.444	28.59
577.639	29.09
577.834	28.96
578.029	29.07
578.224	28.87
578.418	28.85
578.613	28.94
578.808	29.09
579.003	28.98
579.197	29.43
579.392	29.62
579.587	29.99
579.781	29.59
579.976	30.41
580.171	30.67
580.365	30.65
580.56	30.21
580.755	30.57
580.949	30.64
581.144	30.82
581.338	30.62
581.533	30.67
581.727	31.03
581.922	31.12
582.116	30.62
582.311	30.23
582.505	30.37
582.7	30.59
582.894	30.33
583.089	29.82
583.283	30.25
583.478	30.26
583.672	30.31
583.866	29.8
584.061	30.07
584.255	30.24
584.449	30.63
584.644	30.65
584.838	30.93
585.032	31.22
585.226	31.79
585.421	31.76
585.615	31.94
585.809	31.77
586.003	31.66
586.198	31.71
586.392	31.85
586.586	31.83
586.78	31.52
586.974	31.33
587.168	30.46
587.363	30.49
587.557	30.32
587.751	30.15
587.945	30.17
588.139	30.44
588.333	30.64
588.527	30.29
588.721	30.51
588.915	30.54
589.109	30.69
589.303	31.09
589.497	30.76
589.691	30.84
589.885	30.81
590.079	30.67
590.273	30.71
590.466	30.81
590.66	30.97
590.854	30.76
591.048	31.06
591.242	31.01
591.436	31.04
591.629	30.86
591.823	30.81
592.017	30.99
592.211	31.41
592.404	31.4
592.598	30.6
592.792	30.21
592.986	30.45
593.179	30.27
593.373	29.99
593.567	30.27
593.76	30.76
593.954	30.45
594.147	30.61
594.341	30.34
594.535	30.6
594.728	31.24
594.922	31.15
595.115	30.65
595.309	30.72
595.502	31.02
595.696	31.01
595.889	30.74
596.083	30.86
596.276	30.25
596.47	30.42
596.663	30.23
596.856	30.29
597.05	30.44
597.243	30.74
597.437	30.84
597.63	30.73
597.823	30.69
598.017	30.73
598.21	30.71
598.403	31.45
598.596	31.9
598.79	31.85
598.983	31.51
599.176	31.88
599.369	31.62
599.563	31.56
599.756	32.37
599.949	32.3
600.142	31.89
600.335	32.14
600.528	32.33
600.722	31.59
600.915	31.62
601.108	32.22
601.301	32.01
601.494	32.11
601.687	32.09
601.88	31.42
602.073	31.53
602.266	31.69
602.459	31.89
602.652	32.09
602.845	32.41
603.038	32.35
603.231	32.38
603.424	32.23
603.617	32.47
603.809	32.53
604.002	32.41
604.195	32.46
604.388	32.63
604.581	32.49
604.774	32.47
604.966	31.94
605.159	32.2
605.352	31.57
605.545	31.91
605.737	31.67
605.93	31.9
606.123	32.2
606.316	31.95
606.508	31.94
606.701	32
606.894	32.1
607.086	32.44
607.279	32.37
607.471	33.08
607.664	32.93
607.857	33.01
608.049	32.71
608.242	33.02
608.434	33.15
608.627	33.26
608.819	32.97
609.012	32.64
609.204	32.89
609.397	33.23
609.589	33
609.782	33.01
609.974	33.24
610.166	33.28
610.359	32.78
610.551	32.63
610.743	32.82
610.936	33.35
611.128	33.14
611.32	32.96
611.513	32.6
611.705	32.94
611.897	33.53
612.09	33.57
612.282	33.83
612.474	34.03
612.666	33.87
612.858	33.71
613.051	33.66
613.243	34
613.435	34.77
613.627	35.09
613.819	35.03
614.011	35.41
614.203	35.5
614.395	35.31
614.588	35.02
614.78	35.27
614.972	35.34
615.164	35.52
615.356	35.65
615.548	34.76
615.74	35.31
615.932	35.02
616.124	34.11
616.315	33.98
616.507	34.52
616.699	35.38
616.891	35.81
617.083	35.7
617.275	35.68
617.467	35.55
617.659	36.14
617.85	35.83
618.042	36.09
618.234	35.98
618.426	35.77
618.618	35.23
618.809	34.65
619.001	34.26
619.193	35.09
619.384	35.1
619.576	35.31
619.768	34.99
619.959	34.72
620.151	34.7
620.343	35.27
620.534	36.06
620.726	35.94
620.917	35.8
621.109	36.24
621.301	35.85
621.492	35.99
621.684	36.48
621.875	36.66
622.067	36.41
622.258	36.15
622.45	36.02
622.641	35.61
622.832	35.79
623.024	35.63
623.215	35.28
623.407	34.8
623.598	34.85
623.789	34.02
623.981	34.6
624.172	34.59
624.363	34.77
624.555	34.53
624.746	34.12
624.937	33.97
625.129	34.9
625.32	35.07
625.511	35.61
625.702	34.95
625.893	35.27
626.085	34.69
626.276	35.1
626.467	34.98
626.658	35.44
626.849	35.49
627.04	35.53
627.231	34.94
627.422	34.87
627.614	34.87
627.805	34.86
627.996	34.93
628.187	35.01
628.378	35.39
628.569	35.91
628.76	35.8
628.951	35.65
629.142	36.01
629.332	36.23
629.523	36.29
629.714	35.92
629.905	36.38
630.096	36.41
630.287	36.85
630.478	36.18
630.669	35.67
630.859	35.83
631.05	36.01
631.241	36.28
631.432	36.21
631.623	35.86
631.813	36.15
632.004	35.95
632.195	35.05
632.385	34.82
632.576	35.08
632.767	35.15
632.957	35.4
633.148	35.75
633.339	35.21
633.529	35.12
633.72	35.29
633.91	35.07
634.101	35.42
634.292	35.98
634.482	35.81
634.673	35.37
634.863	35.62
635.054	35.49
635.244	35.04
635.435	35.03
635.625	35.11
635.815	34.92
636.006	35.68
636.196	35.35
636.387	35.62
636.577	35.99
636.767	36.43
636.958	36.37
637.148	36.03
637.338	36.79
637.529	37.48
637.719	37.95
637.909	38.62
638.099	38.52
638.29	38.72
638.48	39.37
638.67	39.47
638.86	39.43
639.05	39.25
639.241	39.81
639.431	39.97
639.621	40.32
639.811	40
640.001	40.37
640.191	39.39
640.381	39.99
640.571	39.55
640.761	39.48
640.951	39.68
641.141	40.01
641.331	39.5
641.521	39.51
641.711	39.01
641.901	39.36
642.091	39.3
642.281	40.02
642.471	39.15
642.661	39.5
642.851	38.88
643.041	38.94
643.231	38.88
643.42	39.08
643.61	38.9
643.8	39.05
643.99	38.57
644.18	38.41
644.369	38.01
644.559	38.44
644.749	37.99
644.939	38.5
645.128	38.06
645.318	38.3
645.508	38.39
645.697	38.75
645.887	38.27
646.076	38.94
646.266	38.76
646.456	38.81
646.645	38.6
646.835	38.4
647.024	38.38
647.214	38.94
647.403	37.92
647.593	37.8
647.782	37.32
647.972	37
648.161	36.86
648.351	37.52
648.54	37.81
648.73	37.78
648.919	37.03
649.108	36.63
649.298	36.86
649.487	37.45
649.677	37.87
649.866	38.04
650.055	39.02
650.244	39.07
650.434	37.87
650.623	38.15
650.812	37.8
651.002	38.93
651.191	39.79
651.38	39.55
651.569	39.97
651.758	39.83
651.947	39.81
652.137	39.61
652.326	39.32
652.515	39.15
652.704	39.05
652.893	39.9
653.082	39.37
653.271	38.64
653.46	38.65
653.649	38.37
653.838	38.29
654.027	38.12
654.216	38.12
654.405	38.38
654.594	39.06
654.783	39.19
654.972	39.13
655.161	39.16
655.35	38.65
655.539	38.53
655.728	38.89
655.916	38.81
656.105	39.23
656.294	38.42
656.483	38.58
656.672	38.51
656.86	37.68
657.049	37.31
657.238	36.7
657.427	37.04
657.615	36.71
657.804	36.25
657.993	35.55
658.181	34.89
658.37	35.75
658.559	35.44
658.747	35.29
658.936	35.45
659.125	37.24
659.313	38.36
659.502	38.64
659.69	38.76
659.879	39.08
660.067	39.97
660.256	40.53
660.444	40.5
660.633	40.95
660.821	41.93
661.01	42.45
661.198	40.24
661.387	40.18
661.575	39.68
661.763	40.17
661.952	40.6
662.14	40.44
662.328	40.4
662.517	39.89
662.705	39.23
662.893	38.54
663.082	38.6
663.27	39.38
663.458	37.96
663.646	38.29
663.834	38.93
664.023	38.71
664.211	39.16
664.399	38.48
664.587	38.36
664.775	38.52
664.963	38.97
665.152	38.24
665.34	38.54
665.528	39.21
665.716	39.52
665.904	38.7
666.092	38.34
666.28	38.78
666.468	39.11
666.656	39.3
666.844	39.53
667.032	39.14
667.22	39.59
667.408	38.69
667.596	38.68
667.784	39.51
667.971	39.86
668.159	40.58
668.347	40.05
668.535	40.37
668.723	39.73
668.911	40.41
669.098	40.49
669.286	40.85
669.474	41.81
669.662	42.07
669.849	42.03
670.037	42.47
670.225	41.97
670.413	41.45
670.6	41.48
670.788	43.01
670.976	42.86
671.163	43.4
671.351	43.96
671.538	43.09
671.726	43.4
671.913	42.61
672.101	42.02
672.289	42.5
672.476	42.49
672.664	42.51
672.851	42.94
673.039	42.25
673.226	41.68
673.413	41.75
673.601	42.03
673.788	42.42
673.976	42.2
674.163	41.46
674.35	41.54
674.538	42.54
674.725	42.9
674.912	42.55
675.1	43.04
675.287	42.58
675.474	42.42
675.662	42.78
675.849	43.11
676.036	43.13
676.223	44.3
676.411	43.9
676.598	43.19
676.785	43.52
676.972	43.19
677.159	43.59
677.346	44.48
677.533	44.47
677.721	44.44
677.908	44.42
678.095	45.5
678.282	44.67
678.469	43.84
678.656	43.52
678.843	43.33
679.03	42.74
679.217	42.24
679.404	42.11
679.591	42.07
679.778	42.33
679.964	41.04
680.151	40.59
680.338	40.64
680.525	40.92
680.712	41.05
680.899	40.31
681.086	40.86
681.272	41.04
681.459	40.87
681.646	40.3
681.833	39.48
682.02	40.54
682.206	40.51
682.393	41.48
682.58	41.8
682.766	41.71
682.953	42.06
683.14	41.7
683.326	42.4
683.513	42.69
683.7	43.55
683.886	43.92
684.073	43.54
684.259	43.19
684.446	42.56
684.632	42.36
684.819	42.97
685.005	44
685.192	44.42
685.378	44.33
685.565	44.39
685.751	43.5
685.938	43.08
686.124	43.43
686.31	44.68
686.497	44.63
686.683	45.24
686.87	44.95
687.056	44.58
687.242	44.59
687.429	43.83
687.615	42.98
687.801	43.17
687.987	44.25
688.174	44.07
688.36	43.15
688.546	43.33
688.732	43.19
688.918	44.44
689.105	45.2
689.291	44.73
689.477	45.32
689.663	46.71
689.849	46.75
690.035	46.21
690.221	46.02
690.407	47.46
690.593	47.34
690.779	47.74
690.965	46.24
691.151	45.62
691.337	46.07
691.523	46
691.709	45.5
691.895	46.13
692.081	46.83
692.267	47.54
692.453	46.5
692.639	46.88
692.825	46.98
693.011	47.77
693.196	47.38
693.382	47.83
693.568	48.45
693.754	49.05
693.94	49.44
694.125	49.01
694.311	48.24
694.497	48.41
694.682	48.37
694.868	47.61
695.054	47.55
695.239	48.47
695.425	48.06
695.611	46.89
695.796	45.95
695.982	44.84
696.168	44.29
696.353	44.74
696.539	42.72
696.724	42.86
696.91	43.75
697.095	43.56
697.281	42.63
697.466	42.06
697.652	41.83
697.837	41.74
698.023	41.7
698.208	41.5
698.393	41.06
698.579	41.82
698.764	40.94
698.949	40.23
699.135	40.6
699.32	40.21
699.505	40.8
699.691	41.45
699.876	41.47
700.061	41.76
700.246	42.34
700.432	42.73
700.617	43.51
700.802	44.38
700.987	45.46
701.172	46.05
701.358	47.24
701.543	46.76
701.728	47.38
701.913	47.72
702.098	47.52
702.283	47.57
702.468	47.8
702.653	48.3
702.838	49.45
703.023	48.93
703.208	47.88
703.393	47.78
703.578	48.99
703.763	50.04
703.948	50.41
704.133	50.97
704.318	52.39
704.503	52.51
704.688	51.85
704.873	51.18
705.057	51.87
705.242	51.83
705.427	52.21
705.612	52.14
705.797	50.57
705.981	51.1
706.166	50.67
706.351	49.1
706.536	49.59
706.72	49.7
706.905	49.83
707.09	49.33
707.274	49.69
707.459	49.04
707.644	47.74
707.828	47.61
708.013	47.68
708.197	47.89
708.382	48.71
708.567	48.35
708.751	47.14
708.936	45.84
709.12	44.89
709.305	44.78
709.489	45.36
709.673	46.54
709.858	47.44
710.042	47.16
710.227	46.45
710.411	47.13
710.596	47.74
710.78	49.14
710.964	50.03
711.149	50.95
711.333	51.23
711.517	50.88
711.702	50.87
711.886	49.27
712.07	48.97
712.254	50.33
712.438	49.56
712.623	49.24
712.807	48.69
712.991	48.2
713.175	47.72
713.359	47.54
713.544	48.38
713.728	47.39
713.912	49.15
714.096	50.44
714.28	49.91
714.464	49.42
714.648	49.5
714.832	50.28
715.016	50.78
715.2	50.7
715.384	50.99
715.568	49.73
715.752	50.96
715.936	50.34
716.12	49.27
716.304	48.99
716.488	49.38
716.671	49.35
716.855	49.01
717.039	48.48
717.223	47.85
717.407	47.54
717.59	48.38
717.774	48.65
717.958	48.06
718.142	49.42
718.325	50.47
718.509	50.66
718.693	51.85
718.877	52.73
719.06	53.72
719.244	55.18
719.428	56.16
719.611	57.77
719.795	57.19
719.978	58.31
720.162	56.81
720.345	57.11
720.529	56.43
720.713	55.07
720.896	54
721.08	55.14
721.263	56.1
721.446	56.01
721.63	55.13
721.813	55.83
721.997	56.7
722.18	57.88
722.364	58.51
722.547	58.77
722.73	58.81
722.914	59
723.097	59
723.28	58.43
723.464	57.95
723.647	56.54
723.83	56.39
724.013	56.57
724.197	55.64
724.38	54.32
724.563	54.73
724.746	56.1
724.929	56.61
725.112	55.58
725.296	57.1
725.479	56.04
725.662	56.29
725.845	53.99
726.028	54.13
726.211	53.87
726.394	54.57
726.577	55.4
726.76	54.93
726.943	55.58
727.126	55.18
727.309	52.1
727.492	53.02
727.675	52.9
727.858	55.44
728.041	54.4
728.224	52.79
728.407	52.06
728.589	51.55
728.772	49.92
728.955	49.13
729.138	50.24
729.321	50.3
729.503	51.69
729.686	50.04
729.869	49.69
730.052	50.72
730.234	53.37
730.417	52.48
730.6	52.34
730.782	51.79
730.965	51.67
731.148	51.27
731.33	51.73
731.513	50.66
731.695	51.54
731.878	51.73
732.061	48.9
732.243	47.72
732.426	48.62
732.608	48.11
732.791	50.4
732.973	49.71
733.156	50.01
733.338	51.48
733.52	52.27
733.703	53.82
733.885	53.61
734.068	55.72
734.25	54.75
734.432	55.61
734.615	58.04
734.797	56.58
734.979	57.14
735.162	57.4
735.344	56.46
735.526	54.66
735.708	54.58
735.891	53.17
736.073	52.96
736.255	55.15
736.437	55.42
736.619	54.79
736.802	55.06
736.984	56.02
737.166	54.54
737.348	54.43
737.53	56.52
737.712	55.97
737.894	58.01
738.076	57.06
738.258	56.93
738.44	56.57
738.622	56.89
738.804	58.15
738.986	56.99
739.168	58.66
739.35	58.75
739.532	57.84
739.714	59.82
739.896	58.44
740.078	60.6
740.259	59.36
740.441	61.35
740.623	60.77
740.805	59.82
740.987	61.34
741.168	60.13
741.35	60.41
741.532	59.6
741.714	58.05
741.895	59.53
742.077	57.94
742.259	59.14
742.44	56.97
742.622	57.38
742.804	59.38
742.985	57.71
743.167	58.28
743.348	59.38
743.53	59.84
743.711	60.93
743.893	61.06
744.075	62.26
744.256	62.14
744.438	62.91
744.619	65.6
744.8	64.65
744.982	67.08
745.163	70.39
745.345	67.19
745.526	67.41
745.707	66.28
745.889	65.54
746.07	65.58
746.252	66.13
746.433	65.28
746.614	63.15
746.795	61.92
746.977	64.54
747.158	62.3
747.339	64.23
747.52	65.02
747.702	64.78
747.883	64.76
748.064	63.05
748.245	63.51
748.426	64.58
748.607	63.57
748.788	65.79
748.97	59.51
749.151	60.08
749.332	61.64
749.513	62.91
749.694	64.65
749.875	67.64
750.056	67.94
750.237	69.28
750.418	70.4
750.599	71.32
750.78	68.64
750.96	72.7
751.141	72.87
751.322	72.33
751.503	68.6
751.684	70.08
751.865	66.55
752.046	66.29
752.226	63.6
752.407	62.34
752.588	61.49
752.769	63.35
752.949	63.3
753.13	64.26
753.311	63.37
753.492	68.31
753.672	66.53
753.853	68.55
754.034	69.74
754.214	69.65
754.395	71.7
754.575	72.63
754.756	73.29
754.937	73.75
755.117	72.16
755.298	71.97
755.478	71.8
755.659	73.19
755.839	71.06
756.02	71.34
756.2	73.1
756.381	72.19
756.561	72.98
756.741	74.19
756.922	73.37
757.102	74.82
757.283	76.08
757.463	70.73
757.643	69.94
757.823	71.21
758.004	71.02
758.184	70.91
758.364	69.82
758.545	69.78
758.725	67.91
758.905	67.4
759.085	66
759.265	63.85
759.446	66.12
759.626	65.96
759.806	64.12
759.986	62.53
760.166	61.85
760.346	62.75
760.526	61.78
760.706	62.28
760.886	62.13
761.066	62.48
761.246	60.55
761.426	60.7
761.606	57.09
761.786	58.14
761.966	59.06
762.146	59.79
762.326	58.6
762.506	57.35
762.686	55.95
762.866	55.04
763.046	53.9
763.225	54.56
763.405	54.13
763.585	54.64
763.765	53.9
763.945	54.27
764.124	54.64
764.304	55.45
764.484	57.02
764.664	56.8
764.843	57.52
765.023	59.2
765.203	59.41
765.382	59.78
765.562	61.94
765.741	62.42
765.921	63.94
766.101	61.71
766.28	60.7
766.46	60.2
766.639	61.4
766.819	60.93
766.998	59.25
767.178	60.35
767.357	61.17
767.537	63.57
767.716	66.31
767.896	66.05
768.075	66.44
768.254	66.08
768.434	67.43
768.613	66.19
768.792	68.86
768.972	67.95
769.151	71.93
769.33	72.73
769.51	70.34
769.689	70.15
769.868	68.3
770.047	72.24
770.226	72.23
770.406	69.56
770.585	71.55
770.764	71.36
770.943	75.44
771.122	71.68
771.301	74.3
771.48	73.35
771.66	72.69
771.839	74.01
772.018	72.42
772.197	77.29
772.376	82.79
772.555	85.7
772.734	85.51
772.913	83.64
773.092	83.63
773.271	82.26
773.449	85
773.628	83.2
773.807	85.88
773.986	85.33
774.165	81.5
774.344	79.91
774.523	75.68
774.701	75.86
774.88	79.59
775.059	78.35
775.238	78.75
775.417	80.21
775.595	80.82
775.774	79.67
775.953	79.37
776.131	80.41
776.31	77.93
776.489	78.74
776.667	77.29
776.846	72.46
777.025	74.55
777.203	71.14
777.382	70.56
777.56	71.99
777.739	72.06
777.917	75.88
778.096	74.9
778.274	77.18
778.453	75.99
778.631	76.96
778.81	80.99
778.988	82.03
779.166	84.15
779.345	85.12
779.523	90.71
779.702	92.18
779.88	90.28
780.058	92.65
780.237	93.22
780.415	95.57
780.593	96.85
780.771	94.2
780.95	95.12
781.128	95.51
781.306	93.02
781.484	85
781.662	86.14
781.841	86.23
782.019	82.02
782.197	79.77
782.375	77.16
782.553	75.44
782.731	76.45
782.909	75.69
783.087	77.86
783.265	78.4
783.443	81.07
783.621	77.92
783.799	78.36
783.977	82.75
784.155	84.66
784.333	84.59
784.511	85.96
784.689	88.71
784.867	87.08
785.045	86.3
785.223	86.6
785.4	88.27
785.578	87.06
785.756	85.3
785.934	81.39
786.112	80.16
786.289	84.05
786.467	82.47
786.645	78.49
786.823	79.41
787	78.97
787.178	81.27
787.356	77.34
787.533	78.28
787.711	76.98
787.889	77.56
788.066	75.75
788.244	76.68
788.421	76.39
788.599	82.06
788.776	86.78
788.954	84.23
789.131	81.29
789.309	82.93
789.486	84.04
789.664	86.31
789.841	91.56
790.019	90.77
790.196	91.32
790.373	89.13
790.551	83.98
790.728	84.28
790.906	87.54
791.083	89.9
791.26	91.58
791.437	91.1
791.615	92.35
791.792	88.22
791.969	89.51
792.146	86.36
792.324	86.7
792.501	92.46
792.678	88.8
792.855	86.62
793.032	85.77
793.209	85.19
793.387	86.75
793.564	86.59
793.741	88.59
793.918	89.91
794.095	87.94
794.272	95.04
794.449	92.71
794.626	93.42
794.803	94.75
794.98	94.92
795.157	94.27
795.334	92.82
795.511	90.91
795.688	90.72
795.864	92.72
796.041	95.22
796.218	89.52
796.395	85.07
796.572	81.66
796.749	81.72
796.925	81.96
797.102	81.87
797.279	80.18
797.456	80.81
797.632	78.26
797.809	81.88
797.986	86.51
798.162	90.07
798.339	94.54
798.516	99.97
798.692	101.11
798.869	100.3
799.046	102.19
799.222	100.7
799.399	102.46
799.575	105.87
799.752	97.34
799.928	88.96
800.105	85.41
800.281	87.17
800.458	85.17
800.634	82.09
800.811	84.71
800.987	88.85
801.163	91.78
801.34	91.41
801.516	90.74
801.692	93.61
801.869	98.76
802.045	100.98
802.221	97.51
802.398	97.41
802.574	98.31
802.75	97.94
802.926	97.72
803.103	98.97
803.279	99.12
803.455	99.48
803.631	101.84
803.807	100.49
803.983	109.05
804.16	112
804.336	117.89
804.512	119.82
804.688	127.6
804.864	132.3
805.04	128.73
805.216	125.27
805.392	127.02
805.568	127.88
805.744	126
805.92	116.56
806.096	115.49
806.272	111.52
806.448	110.81
806.623	111.15
806.799	109.33
806.975	108.38
807.151	111.27
807.327	113.35
807.503	108.07
807.678	113.21
807.854	116.84
808.03	114.52
808.206	117.44
808.381	112.33
808.557	104.5
808.733	99.96
808.908	101.36
809.084	102.85
809.26	101.68
809.435	104.46
809.611	100.14
809.787	93.82
809.962	101.94
810.138	105.75
810.313	110.33
810.489	109.44
810.664	112.08
810.84	110.3
811.015	106.14
811.191	114.57
811.366	116.09
811.542	122.87
811.717	131.07
811.892	123.37
812.068	120.7
812.243	128.54
812.419	127.11
812.594	127.16
812.769	133.13
812.944	137.77
813.12	129.83
813.295	134
813.47	131.19
813.645	132.38
813.821	141.04
813.996	140.87
814.171	140.2
814.346	149.94
814.521	149.12
814.697	148.2
814.872	140.1
815.047	136.87
815.222	130.64
815.397	127.64
815.572	125.81
815.747	117.09
815.922	109.17
816.097	101.61
816.272	97.85
816.447	91.07
816.622	87.17
816.797	93.89
816.972	97.04
817.147	95.48
817.322	98.07
817.496	98.17
817.671	95.14
817.846	101.22
818.021	103.11
818.196	98.75
818.371	102.05
818.545	103.77
818.72	98.78
818.895	94.09
819.069	91.59
819.244	90.77
819.419	88.56
819.594	86.82
819.768	78.31
819.943	74.12
820.117	70.09
820.292	65.97
820.467	64.2
820.641	62.06
820.816	58.71
820.99	55.75
821.165	52.24
821.339	49.24
821.514	47.56
821.688	46.82
821.863	45.09
822.037	44.79
822.212	44.17
822.386	43.63
822.56	42.43
822.735	41.86
822.909	42.3
823.084	41.45
823.258	41.92
823.432	43.26
823.606	44.53
823.781	45.68
823.955	47.1
824.129	47.94
824.303	48.87
824.478	50.23
824.652	52.1
824.826	52.94
825	56.42
825.174	57.2
825.348	56.7
825.523	55.17
825.697	54.89
825.871	54.75
826.045	55.33
826.219	55.24
826.393	54.4
826.567	52.99
826.741	53.59
826.915	53.13
827.089	54.31
827.263	55.77
827.437	56.91
827.611	59.33
827.784	59.96
827.958	61.78
828.132	61.14
828.306	63.67
828.48	67.25
828.654	68.51
828.827	67.32
829.001	69.07
829.175	68.09
829.349	70.22
829.522	72.68
829.696	73.71
829.87	75.01
830.044	83.48
830.217	86.23
830.391	94.6
830.565	95.13
830.738	105.42
830.912	105.38
831.085	109.23
831.259	108.09
831.432	109.49
831.606	119.21
831.779	118.34
831.953	105.26
832.126	100.84
832.3	93.07
832.473	92.31
832.647	90.27
832.82	85.32
832.994	84.84
833.167	78.39
833.34	74.16
833.514	69.97
833.687	67.13
833.86	68.38
834.034	71.41
834.207	68.93
834.38	68.88
834.553	66.59
834.727	70.28
834.9	71.17
835.073	77.57
835.246	78.62
835.419	80.97
835.593	87.76
835.766	89.92
835.939	88.62
836.112	94.72
836.285	93.4
836.458	96.57
836.631	94.37
836.804	95.78
836.977	98.08
837.15	104.22
837.323	102.66
837.496	102.94
837.669	110.3
837.842	112.25
838.015	110.09
838.188	118.51
838.361	118
838.533	117.48
838.706	125.35
838.879	128.71
839.052	129.85
839.225	140.15
839.398	135.54
839.57	129.8
839.743	139.28
839.916	145.55
840.088	130.16
840.261	140.87
840.434	157.43
840.607	149.17
840.779	158.52
840.952	159.41
841.124	148.06
841.297	165.82
841.47	160.67
841.642	150.17
841.815	152.17
841.987	187.45
842.16	180.62
842.332	176.27
842.505	187.97
842.677	166.98
842.85	179.38
843.022	193.4
843.194	192.97
843.367	212.27
843.539	209.77
843.712	184.48
843.884	166.41
844.056	167.88
844.229	165.64
844.401	168.71
844.573	171.8
844.745	174.32
844.918	176.54
845.09	170.05
845.262	187.25
845.434	189.34
845.606	205.35
845.779	204.19
845.951	236.72
846.123	209.78
846.295	218.97
846.467	226.88
846.639	211.94
846.811	222.55
846.983	215.03
847.155	220.23
847.327	204.63
847.499	218.17
847.671	261.16
847.843	231.1
848.015	342.4
848.187	306.59
848.359	319.55
848.531	328.93
848.703	320.99
848.875	411.45
849.047	360.39
849.218	512.02
849.39	474.86
849.562	403.85
849.734	388.21
849.905	315.44
850.077	380
850.249	504.49
850.421	602.49
850.592	510.43
850.764	416.97
850.936	407.78
851.107	401.8
851.279	466.44
851.451	367.42
851.622	314.77
851.794	265.41
851.965	233.48
852.137	207.89
852.308	188.51
852.48	203.28
852.651	196.52
852.823	195.26
852.994	195.17
853.166	182.34
853.337	182.58
853.509	210.11
853.68	280.86
853.851	277.61
854.023	341.36
854.194	354.18
854.365	397.07
854.537	399.66
854.708	612.78
854.879	1035.9
855.05	906.45
855.222	832.41
855.393	551.62
855.564	576.05
855.735	520.32
855.906	389.94
856.078	408.21
856.249	484.6
856.42	449.45
856.591	378.15
856.762	348.28
856.933	448.23
857.104	509.83
857.275	563.88
857.446	353.38
857.617	341.93
857.788	339.44
857.959	290.1
858.13	247.39
858.301	292.91
858.472	338.09
858.643	358.79
858.814	389.18
858.985	360.86
859.155	371.38
859.326	491.2
859.497	488.37
859.668	460.09
859.839	794.81
860.009	505.49
860.18	379.12
860.351	299.33
860.522	298.74
860.692	247.61
860.863	263.58
861.034	254.1
861.204	224.32
861.375	252.93
861.546	249.47
861.716	233.93
861.887	267.81
862.057	320.58
862.228	288.99
862.398	309.25
862.569	305.35
862.739	318.45
862.91	290.43
863.08	382.8
863.251	374.5
863.421	414.71
863.592	389.5
863.762	413.36
863.932	319.22
864.103	381.34
864.273	288.81
864.443	308.49
864.614	259.32
864.784	288.7
864.954	261.18
865.125	277.2
865.295	309.62
865.465	303.71
865.635	319.03
865.805	324.34
865.976	339.13
866.146	388.56
866.316	472.44
866.486	713.17
866.656	491.52
866.826	504.1
866.996	444.49
867.166	380.19
867.336	364.73
867.506	305.61
867.676	322.72
867.846	294.08
868.016	301.77
868.186	269.74
868.356	232.89
868.526	263.26
868.696	282.79
868.866	312.73
869.036	330.12
869.206	304.31
869.376	353.53
869.545	330.82
869.715	384.31
869.885	443.23
870.055	476.6
870.224	552.81
870.394	788.53
870.564	590.11
870.734	600.22
870.903	503.27
871.073	576.18
871.243	449.72
871.412	486.35
871.582	382.32
871.751	340.53
871.921	340.99
872.091	299.86
872.26	270.52
872.43	208.84
872.599	214.01
872.769	245.67
872.938	248.48
873.108	321.61
873.277	321.25
873.446	390.72
873.616	370
873.785	379.85
873.955	493.22
874.124	360.57
874.293	1002.05
874.463	1086.83
874.632	1244.7
874.801	1310.92
874.971	453.06
875.14	475.43
875.309	319.22
875.478	284.23
875.647	279.69
875.817	239.09
875.986	272.72
876.155	258.92
876.324	268.1
876.493	264.11
876.662	252.88
876.831	272.11
877	269.62
877.17	319.83
877.339	377.94
877.508	292.2
877.677	326.44
877.846	345.19
878.015	296.35
878.184	249.29
878.352	232.06
878.521	224.44
878.69	226.58
878.859	201.92
879.028	212.87
879.197	191.22
879.366	206.28
879.534	195.87
879.703	190.48
879.872	175.38
880.041	174.37
880.21	168.01
880.378	166.23
880.547	150
880.716	135.25
880.884	130.56
881.053	121.57
881.222	112.93
881.39	102.42
881.559	92.51
881.727	86.98
881.896	85.57
882.065	78.47
882.233	74.98
882.402	74.79
882.57	74.85
882.739	70.97
882.907	72.92
883.076	75.73
883.244	80.29
883.412	81.74
883.581	84.68
883.749	88.95
883.918	96.07
884.086	100.08
884.254	99.24
884.423	104.38
884.591	108.53
884.759	111.04
884.927	110.6
885.096	104.45
885.264	119.33
885.432	124.2
885.6	125.69
885.769	133.46
885.937	145.06
886.105	154.49
886.273	153.2
886.441	159.84
886.609	164.76
886.777	174.26
886.945	196.64
887.113	193.91
887.281	216.44
887.449	222.75
887.617	216.3
887.785	243.87
887.953	243.54
888.121	247.51
888.289	244.3
888.457	323.23
888.625	431.46
888.793	344.46
888.961	348.16
889.129	263.07
889.296	269.13
889.464	290.69
889.632	234.59
889.8	264.43
889.967	280.07
890.135	331.57
