Data from JASIL_3336_Reflection_2.txt Node
Date: Tue Nov 17 20:22:02 EST 2015
User: Geneva
Spectrometer: USB4E03002
Autoset integration time: false
Trigger mode: 4
Integration Time (sec): 1.000000E-1
Scans to average: 10
Electric dark correction enabled: false
Nonlinearity correction enabled: false
Boxcar width: 5
Stray light correction enabled: false
XAxis mode: Wavelengths
Stop averaging: false
Number of Pixels in Spectrum: 3648
>>>>>Begin Spectral Data<<<<<
177.575	-52.48
177.794	-160.87
178.014	-234.83
178.233	-533.96
178.452	-618.33
178.672	-364.57
178.891	-912.07
179.11	7420
179.33	2197.83
179.549	1923.53
179.768	-8445.45
179.987	738.64
180.207	360.66
180.426	572.6
180.645	586.4
180.864	3388.24
181.084	350
181.303	356.25
181.522	493.1
181.741	417.98
181.96	625.25
182.179	4200
182.398	-733.77
182.618	-316.42
182.837	-331.43
183.056	-423.5
183.275	-495
183.494	-199.23
183.713	-160.13
183.932	-104.29
184.151	-92.22
184.37	-95.09
184.589	-127.14
184.808	-102.48
185.027	-104.53
185.246	-133.46
185.465	-124.51
185.684	-156.9
185.903	-244.66
186.122	-302.08
186.341	-749.56
186.56	-501.19
186.779	-2981.48
186.998	-287.3
187.216	-349.44
187.435	-372.73
187.654	-395.76
187.873	-288.39
188.092	-373.72
188.311	-559.29
188.53	-437.5
188.748	-169.27
188.967	-161.62
189.186	-118.04
189.405	-317.18
189.623	-256.25
189.842	-225.7
190.061	-182.06
190.28	-123.35
190.498	-177.59
190.717	-152.31
190.936	-159.4
191.154	-519.23
191.373	-1195.4
191.592	2406.98
191.81	850.49
192.029	974.74
192.248	456.86
192.466	516.57
192.685	209.47
192.904	359.41
193.122	216.85
193.341	243.7
193.559	236.16
193.778	296.13
193.996	201.9
194.215	631.88
194.433	292.86
194.652	301.4
194.87	276.25
195.089	367.69
195.307	892.98
195.526	-605.1
195.744	-523.74
195.963	-597.33
196.181	-728.1
196.399	-1234.48
196.618	1448.68
196.836	834.75
197.055	764.86
197.273	901.49
197.491	1060.36
197.71	526.98
197.928	393.38
198.146	370.21
198.365	2166.67
198.583	1480.95
198.801	-581.45
199.019	-175.58
199.238	-142.05
199.456	-179.59
199.674	-234.32
199.892	-171.22
200.111	-150.47
200.329	-192.74
200.547	-247.44
200.765	1921.57
200.983	-610.26
201.202	1240.79
201.42	345.36
201.638	273.45
201.856	396.58
202.074	518.67
202.292	348.57
202.51	311.71
202.728	390.68
202.946	3135.71
203.165	1371.15
203.383	375.81
203.601	519.8
203.819	935.45
204.037	-2972.73
204.255	-3344.44
204.473	-597.2
204.691	-527.65
204.909	-375.22
205.127	-1756.25
205.345	550.3
205.562	-658.14
205.78	-145.63
205.998	-109.46
206.216	-111.73
206.434	-146.34
206.652	-205.5
206.87	-431.74
207.088	-263.81
207.306	-395.38
207.523	-343.89
207.741	-245.4
207.959	-380.63
208.177	-468.39
208.395	-475.98
208.612	-489.81
208.83	-243.03
209.048	-238.78
209.266	-210.22
209.483	-130.45
209.701	-134.44
209.919	-114.86
210.136	-136.39
210.354	-157.21
210.572	-172.67
210.79	-185.67
211.007	-401.41
211.225	-4666.67
211.442	977.97
211.66	2336
211.878	250.83
212.095	861.26
212.313	1301.69
212.53	729.38
212.748	630.28
212.966	470.72
213.183	602.72
213.401	-7322.22
213.618	-523.02
213.836	-460.41
214.053	-641.28
214.271	-456.41
214.488	-247.77
214.705	-256.07
214.923	-202.97
215.14	-122.87
215.358	-104.07
215.575	-83.18
215.793	-164.59
216.01	-477.25
216.227	-909.48
216.445	-786.11
216.662	-376.72
216.879	-429.13
217.097	-244.77
217.314	-308.95
217.531	12775
217.749	1089.11
217.966	657.69
218.183	362.98
218.4	496.77
218.618	530.92
218.835	316.87
219.052	354.41
219.269	286.2
219.487	164.46
219.704	151.47
219.921	152.22
220.138	182.53
220.355	149.9
220.572	176.63
220.79	161.44
221.007	216.35
221.224	317.87
221.441	293.56
221.658	368.38
221.875	-1762.86
222.092	-798.86
222.309	2366.67
222.526	490.91
222.743	453.14
222.96	588.49
223.177	2248.84
223.394	1088.16
223.611	597.9
223.828	374.8
224.045	238.76
224.262	154.82
224.479	177.86
224.696	214.9
224.913	423.97
225.13	420.75
225.347	306.21
225.564	131.53
225.781	105.42
225.997	80.78
226.214	67.55
226.431	72.26
226.648	71.85
226.865	39.88
227.082	41.71
227.298	40.62
227.515	37.74
227.732	40.59
227.949	41.35
228.165	33.85
228.382	40.33
228.599	44.28
228.816	36.31
229.032	40.65
229.249	51.78
229.466	55.13
229.682	50.3
229.899	54.54
230.116	53.42
230.332	59.92
230.549	72.48
230.765	59.72
230.982	55.32
231.199	74.71
231.415	83.31
231.632	89.64
231.848	84.23
232.065	85.41
232.281	77.15
232.498	81.35
232.714	84.85
232.931	87.39
233.147	84.89
233.364	85.83
233.58	70.36
233.797	64.93
234.013	54.88
234.23	85.16
234.446	97.75
234.662	118.42
234.879	166.59
235.095	121.89
235.312	101.26
235.528	125.37
235.744	136.1
235.961	184.6
236.177	149.15
236.393	214.2
236.61	143.98
236.826	95.49
237.042	66.49
237.258	57.41
237.475	62.81
237.691	67.69
237.907	40
238.123	54.24
238.339	62.78
238.556	69.94
238.772	59.32
238.988	53.47
239.204	50.98
239.42	55.93
239.636	53.02
239.853	51.2
240.069	48.19
240.285	43.27
240.501	40.45
240.717	34.57
240.933	31.84
241.149	29.7
241.365	31.89
241.581	30.62
241.797	29
242.013	28.07
242.229	24.74
242.445	20.17
242.661	24.03
242.877	22.9
243.093	27.2
243.309	27.17
243.525	24.76
243.741	23.38
243.957	28.98
244.173	25.44
244.388	25.88
244.604	29.42
244.82	28.47
245.036	28.63
245.252	26.89
245.468	24.31
245.683	23.77
245.899	22.95
246.115	22.28
246.331	20.01
246.547	23.04
246.762	20.5
246.978	18.34
247.194	18.79
247.409	15.74
247.625	15.44
247.841	14.72
248.057	16.87
248.272	19.7
248.488	18.49
248.703	17.89
248.919	16.46
249.135	17.16
249.35	18.54
249.566	20.57
249.782	25.51
249.997	25.4
250.213	28.55
250.428	27.39
250.644	28.58
250.859	28.31
251.075	27.29
251.29	21.88
251.506	22.13
251.721	24.08
251.937	21.45
252.152	22.33
252.368	23.92
252.583	23.93
252.798	22.67
253.014	16.67
253.229	15.62
253.445	21.43
253.66	31.29
253.875	32.66
254.091	28.48
254.306	38.78
254.521	28.84
254.737	21.72
254.952	17.51
255.167	17.67
255.383	15.95
255.598	17.17
255.813	18.1
256.028	13.41
256.244	13.12
256.459	15.62
256.674	12.4
256.889	16.05
257.104	18.82
257.32	17.95
257.535	16.67
257.75	17.23
257.965	16.15
258.18	14.09
258.395	12.09
258.61	10.19
258.826	8.98
259.041	8.65
259.256	8.05
259.471	7.58
259.686	7.83
259.901	7.45
260.116	7.52
260.331	8.37
260.546	7.77
260.761	10.64
260.976	12.91
261.191	14.19
261.406	17.03
261.621	17.45
261.836	18.59
262.05	18.68
262.265	22.35
262.48	24.35
262.695	23.21
262.91	22.53
263.125	17.37
263.34	19.42
263.555	14.81
263.769	10.41
263.984	6.95
264.199	8.26
264.414	10.41
264.629	8.07
264.843	9.68
265.058	10.45
265.273	9.47
265.488	12.77
265.702	12.95
265.917	13.92
266.132	14.33
266.346	16.58
266.561	17.67
266.776	19.21
266.99	18.59
267.205	18.98
267.42	17.29
267.634	17.86
267.849	16.6
268.063	13.65
268.278	15.14
268.492	13.44
268.707	11.83
268.922	12.69
269.136	9.3
269.351	10.08
269.565	8.92
269.78	11.22
269.994	12.34
270.209	13.1
270.423	13.48
270.637	13.26
270.852	13.9
271.066	15.7
271.281	14.64
271.495	14.93
271.709	14.36
271.924	13.87
272.138	12.46
272.353	12.81
272.567	14.11
272.781	14.43
272.996	15.42
273.21	16.11
273.424	15.91
273.638	15.85
273.853	16.64
274.067	16.71
274.281	17.05
274.495	19.56
274.71	22.5
274.924	20.64
275.138	23.24
275.352	22.01
275.566	21.32
275.781	17.47
275.995	15.44
276.209	15.13
276.423	11.33
276.637	10.88
276.851	7.43
277.065	4.32
277.279	0.4
277.493	-2.88
277.707	-4.14
277.921	-1.91
278.135	4.16
278.349	3.56
278.563	3.16
278.777	5.23
278.991	6.41
279.205	9.28
279.419	6.45
279.633	10.25
279.847	13.23
280.061	12.4
280.275	11.84
280.489	7.7
280.703	7.63
280.917	7.95
281.131	7.9
281.344	6.94
281.558	5.93
281.772	6.9
281.986	7.11
282.2	3.77
282.414	6.4
282.627	5.18
282.841	7.04
283.055	7.71
283.269	7.51
283.482	9.61
283.696	8.81
283.91	9.86
284.123	11.12
284.337	11.56
284.551	12.44
284.764	10.28
284.978	11.4
285.192	11.84
285.405	12.59
285.619	13.08
285.833	13.84
286.046	16.87
286.26	16.03
286.473	16.15
286.687	15.88
286.9	16.99
287.114	19.09
287.327	18.54
287.541	17.31
287.754	17.63
287.968	18.3
288.181	16.37
288.395	14.52
288.608	15.31
288.822	14.43
289.035	14.64
289.248	13.95
289.462	13.1
289.675	13.04
289.889	13.97
290.102	13.46
290.315	12.81
290.529	13.56
290.742	12.69
290.955	13.44
291.169	14.96
291.382	13.01
291.595	13.11
291.808	14.24
292.022	15.54
292.235	15.29
292.448	13.17
292.661	12.64
292.875	11.12
293.088	13.35
293.301	11.12
293.514	8.23
293.727	7.42
293.94	6.15
294.153	5.16
294.367	4.3
294.58	3.86
294.793	4.47
295.006	4.72
295.219	6.4
295.432	4.6
295.645	6.93
295.858	8.95
296.071	10.78
296.284	10.4
296.497	10.17
296.71	10.82
296.923	11.19
297.136	11.34
297.349	12.63
297.562	11.47
297.775	10.98
297.988	8.62
298.201	8.06
298.414	8.84
298.626	10.9
298.839	10.77
299.052	10.97
299.265	12.09
299.478	13.93
299.691	11.88
299.903	12.24
300.116	13.12
300.329	13.24
300.542	13.54
300.755	13.62
300.967	13.3
301.18	13.82
301.393	13.43
301.605	11.79
301.818	10.38
302.031	11.52
302.243	11.77
302.456	12.73
302.669	14.2
302.881	13.77
303.094	14.29
303.307	13.89
303.519	14.68
303.732	13.43
303.944	15.03
304.157	17.83
304.37	19.18
304.582	18.93
304.795	19.43
305.007	19.27
305.22	18.16
305.432	16.07
305.645	16.7
305.857	17.27
306.069	17.22
306.282	15.13
306.494	12.81
306.707	11.75
306.919	12.54
307.132	12.03
307.344	10.93
307.556	11.65
307.769	11.05
307.981	9.8
308.193	8.24
308.406	8.11
308.618	9.19
308.83	8.82
309.043	7.33
309.255	7.68
309.467	8.36
309.679	7.56
309.892	7.92
310.104	9.95
310.316	11.7
310.528	12.47
310.74	13.37
310.953	12.68
311.165	13.37
311.377	15.58
311.589	15.04
311.801	14.8
312.013	16.24
312.225	17.42
312.437	16.36
312.649	14.37
312.862	14.88
313.074	13.91
313.286	13.77
313.498	12.06
313.71	9.74
313.922	10.34
314.134	9.58
314.346	10.76
314.558	9.57
314.77	10.8
314.982	12.81
315.193	11.68
315.405	13.37
315.617	13.36
315.829	15.55
316.041	17.3
316.253	17.02
316.465	18.13
316.677	16.27
316.888	16.7
317.1	15.94
317.312	15.89
317.524	17.58
317.736	19.29
317.947	18.8
318.159	18.34
318.371	18.61
318.583	17.29
318.794	17.94
319.006	18.85
319.218	19.8
319.43	20.87
319.641	21.49
319.853	21.58
320.064	18.69
320.276	22.57
320.488	22.53
320.699	20.58
320.911	22.43
321.123	20.8
321.334	21.56
321.546	19.54
321.757	18.28
321.969	18.48
322.18	17.11
322.392	15.83
322.603	12.4
322.815	12.08
323.026	13.48
323.238	11.9
323.449	10.64
323.661	8.13
323.872	7.31
324.083	7.88
324.295	5.92
324.506	6.34
324.718	7.69
324.929	9.36
325.14	9.35
325.352	8.67
325.563	10
325.774	12.31
325.986	14.6
326.197	15.99
326.408	14.76
326.62	14.89
326.831	15.15
327.042	16.38
327.253	14.85
327.464	14.96
327.676	15.26
327.887	14.42
328.098	14.46
328.309	13.91
328.52	15.02
328.732	17.44
328.943	17.64
329.154	16.81
329.365	15.82
329.576	17.47
329.787	18.33
329.998	19.88
330.209	20.45
330.42	20
330.631	20.25
330.842	20.69
331.053	17.66
331.264	18.78
331.475	18.75
331.686	19.97
331.897	18.96
332.108	20.19
332.319	18.39
332.53	18.07
332.741	18.4
332.952	19.23
333.163	18.28
333.374	21.36
333.585	21.3
333.795	22.68
334.006	19.83
334.217	21.43
334.428	19.5
334.639	19.94
334.849	21.33
335.06	22.63
335.271	22.26
335.482	21.45
335.692	20.26
335.903	18.13
336.114	18.73
336.325	20.86
336.535	20.12
336.746	20.68
336.957	19.46
337.167	19.05
337.378	18.42
337.589	17.56
337.799	17.67
338.01	19.03
338.22	20.1
338.431	19.39
338.642	20.72
338.852	20.02
339.063	19.22
339.273	19.73
339.484	19.28
339.694	17.45
339.905	17.58
340.115	18.06
340.326	17.5
340.536	17.78
340.746	17.38
340.957	15.62
341.167	16.83
341.378	17.67
341.588	18.53
341.799	18.85
342.009	19.05
342.219	20.22
342.43	20.75
342.64	20.87
342.85	20.62
343.061	21.18
343.271	22.53
343.481	21.34
343.691	20.81
343.902	21.02
344.112	22.51
344.322	21.97
344.532	21.89
344.743	22.47
344.953	21.13
345.163	21.39
345.373	20.63
345.583	18.21
345.793	20.29
346.004	21.07
346.214	20.14
346.424	19.44
346.634	20.38
346.844	21.33
347.054	21
347.264	22.26
347.474	21.72
347.684	22.52
347.894	24.04
348.104	20.54
348.314	20.26
348.524	20.77
348.734	20.59
348.944	21.3
349.154	19.77
349.364	18.75
349.574	18.12
349.784	19.6
349.994	19.32
350.204	18.3
350.413	19.54
350.623	18.48
350.833	19.22
351.043	19.53
351.253	19.86
351.463	19.39
351.672	19.94
351.882	19.6
352.092	18.85
352.302	19.24
352.511	20.18
352.721	19.88
352.931	20.17
353.141	19.26
353.35	19.02
353.56	17.9
353.77	18.91
353.979	18.95
354.189	19.43
354.399	19.31
354.608	18.69
354.818	17.89
355.027	19
355.237	19.37
355.447	19.76
355.656	18.88
355.866	18.63
356.075	18.27
356.285	17.48
356.494	17.9
356.704	18.69
356.913	17.86
357.123	19.34
357.332	19.54
357.542	19.67
357.751	19.22
357.96	19.03
358.17	18.92
358.379	17.91
358.589	18.18
358.798	17.68
359.007	18.55
359.217	19.78
359.426	18.03
359.635	18.04
359.845	17.98
360.054	17.29
360.263	17.29
360.472	18
360.682	19.15
360.891	19.39
361.1	19.94
361.309	18.81
361.519	18.64
361.728	19.74
361.937	19.92
362.146	19.83
362.355	21.25
362.564	20.37
362.774	19.62
362.983	19.04
363.192	19.08
363.401	18.52
363.61	18.55
363.819	18.75
364.028	18.82
364.237	18.31
364.446	18.64
364.655	17.04
364.864	18.75
365.073	18.88
365.282	18.27
365.491	17.62
365.7	17.54
365.909	16.42
366.118	15.59
366.327	14.75
366.536	13.45
366.745	13.21
366.954	13.81
367.162	13.71
367.371	14.6
367.58	15.44
367.789	16.2
367.998	16.2
368.207	16.68
368.415	17.71
368.624	17.68
368.833	19.14
369.042	18.72
369.25	18.79
369.459	18.45
369.668	17.68
369.877	17.91
370.085	17.71
370.294	17.76
370.503	18.64
370.711	17.65
370.92	17.95
371.129	17.07
371.337	16.93
371.546	17.06
371.754	16.55
371.963	17.17
372.171	16.37
372.38	16.12
372.589	15.85
372.797	15.26
373.006	16.05
373.214	14.56
373.423	14.82
373.631	15.27
373.84	14.53
374.048	14.46
374.256	14.09
374.465	15.08
374.673	15.71
374.882	14.66
375.09	14.05
375.298	13.48
375.507	14.07
375.715	14.22
375.923	14.78
376.132	15.28
376.34	15.4
376.548	15.5
376.757	14.89
376.965	13.98
377.173	15.05
377.381	14.99
377.59	14.98
377.798	16.03
378.006	14.93
378.214	13.93
378.423	14.17
378.631	13.67
378.839	13.06
379.047	13.33
379.255	14.43
379.463	13.94
379.671	14.29
379.879	14.38
380.088	13.34
380.296	14.86
380.504	14.84
380.712	14.44
380.92	15.23
381.128	15.74
381.336	15.61
381.544	14.78
381.752	14.25
381.96	14.32
382.168	13.34
382.376	14.86
382.584	14.25
382.791	14.01
382.999	13.52
383.207	13.21
383.415	13.73
383.623	13.26
383.831	12.98
384.039	14.21
384.247	14.64
384.454	15.61
384.662	14.7
384.87	15.38
385.078	15.76
385.285	15.93
385.493	16.36
385.701	15.82
385.909	15.77
386.116	16.28
386.324	14.7
386.532	13.97
386.739	13.54
386.947	13.29
387.155	12.44
387.362	12.52
387.57	12.46
387.778	11.49
387.985	9.97
388.193	10.7
388.4	9.88
388.608	10.53
388.816	11.15
389.023	12.07
389.231	12.18
389.438	12.45
389.646	12.6
389.853	12.85
390.061	13.42
390.268	13.75
390.475	12.96
390.683	13.3
390.89	13.16
391.098	12.91
391.305	11.89
391.512	11.94
391.72	11.89
391.927	11.01
392.135	10.95
392.342	10.67
392.549	10.84
392.756	10.81
392.964	10.5
393.171	11.65
393.378	11.42
393.586	11.57
393.793	11.79
394	11.81
394.207	12.01
394.414	12.08
394.622	11.89
394.829	13.16
395.036	13.5
395.243	14.06
395.45	12.8
395.657	12.28
395.864	12.92
396.072	12.79
396.279	12.34
396.486	12.69
396.693	12.47
396.9	12.25
397.107	11.05
397.314	11.05
397.521	11.1
397.728	11.5
397.935	11.75
398.142	11.79
398.349	11.03
398.556	11.16
398.763	10.96
398.97	11.67
399.177	11.73
399.383	12.37
399.59	12.63
399.797	11.62
400.004	11.91
400.211	11.92
400.418	11.25
400.625	11.61
400.831	12
401.038	12.24
401.245	11.85
401.452	11.95
401.658	11.92
401.865	11.08
402.072	11.47
402.279	11.52
402.485	12.54
402.692	12.91
402.899	12.08
403.105	11.89
403.312	11.75
403.519	11.96
403.725	11.93
403.932	11.42
404.138	12.17
404.345	12.15
404.552	12.11
404.758	11.95
404.965	11.64
405.171	12.45
405.378	12.5
405.584	12.79
405.791	11.87
405.997	12.46
406.204	13.56
406.41	13.46
406.617	13.76
406.823	13.4
407.029	12.51
407.236	13.07
407.442	12.55
407.649	12.13
407.855	11.97
408.061	12.28
408.268	11.66
408.474	11.41
408.68	10.52
408.887	10.46
409.093	11.17
409.299	11.42
409.505	11
409.712	12.14
409.918	12.02
410.124	11.39
410.33	11.75
410.537	11.7
410.743	10.72
410.949	11.76
411.155	11.64
411.361	10.56
411.567	10.29
411.773	10.69
411.98	9.93
412.186	11.16
412.392	11.9
412.598	11.45
412.804	11.32
413.01	12.03
413.216	11.96
413.422	11.62
413.628	12.1
413.834	11.72
414.04	11.05
414.246	11.04
414.452	10.09
414.658	8.98
414.864	9.39
415.07	9.6
415.275	9.13
415.481	8.91
415.687	9.35
415.893	9.51
416.099	10.11
416.305	10.16
416.511	9.82
416.716	10.04
416.922	11.05
417.128	11.09
417.334	11.12
417.539	11.41
417.745	11.42
417.951	10.68
418.157	10.97
418.362	11.02
418.568	10.89
418.774	10.96
418.979	10.8
419.185	10.52
419.391	10.26
419.596	10.31
419.802	10.36
420.008	9.97
420.213	10.6
420.419	10.11
420.624	10.17
420.83	10.28
421.035	10.7
421.241	10.99
421.446	10.94
421.652	11.06
421.857	11.29
422.063	11.1
422.268	11.36
422.474	11.33
422.679	11.44
422.885	11.26
423.09	11.4
423.295	11.07
423.501	10.91
423.706	10.97
423.911	10.86
424.117	10.84
424.322	11.13
424.527	11.12
424.733	11.1
424.938	10.89
425.143	10.94
425.349	10.52
425.554	10.43
425.759	10.63
425.964	10.58
426.169	10.93
426.375	10.75
426.58	10.44
426.785	10.45
426.99	10.32
427.195	10.78
427.4	10.89
427.605	11.83
427.811	12.37
428.016	11.93
428.221	12.11
428.426	11.76
428.631	11.8
428.836	11.65
429.041	11.66
429.246	11.83
429.451	12.16
429.656	12.19
429.861	12.19
430.066	12.05
430.271	12.27
430.476	11.81
430.681	11.81
430.886	11.44
431.09	11.23
431.295	11.1
431.5	11.01
431.705	10.55
431.91	10.54
432.115	9.83
432.32	9.57
432.524	9.4
432.729	9.99
432.934	10.5
433.139	10.38
433.343	10.67
433.548	10.88
433.753	10.58
433.958	10.45
434.162	10.46
434.367	10.95
434.572	11.23
434.776	11.58
434.981	11.43
435.186	11.2
435.39	11.54
435.595	11.69
435.799	11.61
436.004	11.78
436.209	12.25
436.413	12.03
436.618	11.54
436.822	11.49
437.027	11.18
437.231	10.91
437.436	10.66
437.64	10.6
437.845	10.31
438.049	10.32
438.253	10.21
438.458	10.01
438.662	10.21
438.867	10.55
439.071	10.6
439.275	10.52
439.48	10.82
439.684	10.89
439.888	11.32
440.093	11.38
440.297	11.13
440.501	11.57
440.706	11.52
440.91	11.39
441.114	11.03
441.318	10.93
441.523	11.24
441.727	10.79
441.931	11.02
442.135	10.61
442.339	10.72
442.543	11
442.748	10.89
442.952	10.73
443.156	10.59
443.36	11.08
443.564	11.04
443.768	11.25
443.972	12.14
444.176	11.87
444.38	11.87
444.584	11.74
444.788	11.59
444.992	11.23
445.196	11.33
445.4	11.22
445.604	10.86
445.808	10.8
446.012	10.36
446.216	9.75
446.42	9.49
446.624	9.58
446.828	9.5
447.032	9.45
447.235	9.62
447.439	9.42
447.643	9.73
447.847	10.25
448.051	10.16
448.254	10.23
448.458	10.22
448.662	10.3
448.866	10.37
449.069	10.54
449.273	10.48
449.477	10.71
449.681	10.9
449.884	10.96
450.088	10.3
450.292	10.24
450.495	10.22
450.699	10.54
450.902	10.67
451.106	10.19
451.31	10.42
451.513	10.84
451.717	10.37
451.92	10.51
452.124	10.23
452.327	10.47
452.531	10.95
452.734	11.2
452.938	10.98
453.141	11.02
453.345	11.13
453.548	10.87
453.752	10.73
453.955	11.1
454.158	10.89
454.362	11.19
454.565	11.15
454.769	11.34
454.972	11.25
455.175	11.77
455.379	12.18
455.582	12.48
455.785	12.37
455.988	12.49
456.192	12.28
456.395	12.64
456.598	12.69
456.801	12.76
457.005	12.13
457.208	12.02
457.411	11.44
457.614	10.9
457.817	10.62
458.021	10.44
458.224	10.15
458.427	10.47
458.63	10.17
458.833	10.09
459.036	10
459.239	9.9
459.442	9.7
459.645	9.99
459.848	10.03
460.051	10.05
460.254	10.55
460.457	10.6
460.66	10.35
460.863	10.46
461.066	9.92
461.269	10.01
461.472	10.17
461.675	10.17
461.878	9.82
462.081	10.38
462.284	10.43
462.486	9.77
462.689	9.89
462.892	10.31
463.095	10.45
463.298	10.81
463.5	10.72
463.703	10.96
463.906	11.27
464.109	11.42
464.311	11.04
464.514	11.33
464.717	11.42
464.92	11.65
465.122	11.33
465.325	11.42
465.528	11.7
465.73	11.41
465.933	11.16
466.135	11.21
466.338	11.17
466.541	11.28
466.743	11.08
466.946	11.3
467.148	11.1
467.351	11.12
467.553	10.87
467.756	10.96
467.958	11.3
468.161	11.64
468.363	11.68
468.566	11.58
468.768	11.24
468.971	10.95
469.173	11.28
469.375	11.34
469.578	11.43
469.78	11.71
469.983	11.6
470.185	11.35
470.387	11.18
470.59	11.09
470.792	11.08
470.994	11.07
471.196	11.52
471.399	11.42
471.601	11.46
471.803	10.99
472.005	11.21
472.208	11.1
472.41	11.24
472.612	11.28
472.814	11.48
473.016	11.48
473.218	11.74
473.421	11.29
473.623	10.84
473.825	10.77
474.027	11.01
474.229	11.28
474.431	11.29
474.633	11.34
474.835	11
475.037	10.8
475.239	10.89
475.441	10.92
475.643	11.51
475.845	11.81
476.047	12.09
476.249	11.67
476.451	10.62
476.653	10.47
476.855	10.35
477.057	10.73
477.258	10.45
477.46	10.48
477.662	10.49
477.864	10.49
478.066	10.72
478.268	10.54
478.469	10.96
478.671	11.29
478.873	11.46
479.075	11.36
479.276	11.2
479.478	11.39
479.68	11.43
479.882	11.11
480.083	10.95
480.285	10.55
480.487	10.6
480.688	10.52
480.89	10.47
481.091	10.27
481.293	10.55
481.495	10.38
481.696	10.09
481.898	9.96
482.099	9.97
482.301	9.7
482.502	9.71
482.704	9.69
482.905	9.64
483.107	9.6
483.308	9.55
483.51	9.43
483.711	9.42
483.913	9.6
484.114	9.53
484.315	9.51
484.517	9.6
484.718	9.56
484.92	9.53
485.121	9.44
485.322	9.47
485.524	9.46
485.725	9.44
485.926	9.56
486.127	9.55
486.329	9.55
486.53	9.49
486.731	9.55
486.932	9.46
487.134	9.48
487.335	9.59
487.536	9.58
487.737	9.74
487.938	9.81
488.139	9.78
488.341	9.63
488.542	9.8
488.743	9.97
488.944	9.92
489.145	9.97
489.346	9.91
489.547	9.84
489.748	10
489.949	10.02
490.15	10
490.351	9.85
490.552	9.95
490.753	9.81
490.954	9.78
491.155	9.8
491.356	9.86
491.557	9.9
491.758	10.11
491.959	10.06
492.159	9.95
492.36	9.97
492.561	10.24
492.762	10.26
492.963	10.49
493.164	10.57
493.364	10.86
493.565	11.21
493.766	11.23
493.967	11.09
494.167	10.98
494.368	10.88
494.569	10.8
494.769	10.67
494.97	10.4
495.171	10.59
495.371	10.53
495.572	10.74
495.773	10.6
495.973	10.58
496.174	10.69
496.375	10.99
496.575	11
496.776	11.07
496.976	10.97
497.177	11.36
497.377	11.24
497.578	11.21
497.778	10.8
497.979	11.11
498.179	10.97
498.38	11.02
498.58	10.85
498.78	11.2
498.981	11.78
499.181	11.88
499.382	11.79
499.582	11.44
499.782	11.89
499.983	12.13
500.183	11.85
500.383	12.07
500.584	11.79
500.784	11.57
500.984	11.64
501.184	11.07
501.385	11.18
501.585	11.06
501.785	11.44
501.985	11.31
502.185	11.53
502.386	11.64
502.586	11.85
502.786	12.13
502.986	12.29
503.186	12.18
503.386	12.11
503.586	12.36
503.786	12.56
503.987	12.43
504.187	12.31
504.387	12.25
504.587	11.88
504.787	11.67
504.987	11.68
505.187	11.94
505.387	12.04
505.587	12.4
505.786	12.11
505.986	12.42
506.186	12.53
506.386	12.65
506.586	12.41
506.786	12.62
506.986	12.56
507.186	12.51
507.386	12.83
507.585	13.19
507.785	13.15
507.985	13.28
508.185	13.26
508.384	13.8
508.584	14.01
508.784	14.34
508.984	14.59
509.183	15.01
509.383	15.15
509.583	14.86
509.782	14.72
509.982	14.79
510.182	14.8
510.381	14.69
510.581	14.14
510.781	14.33
510.98	14.21
511.18	14.53
511.379	14.58
511.579	14.47
511.778	14.7
511.978	14.98
512.177	14.79
512.377	14.98
512.576	15.03
512.776	14.97
512.975	14.91
513.175	15.09
513.374	14.99
513.573	14.97
513.773	15.19
513.972	15.11
514.172	15.1
514.371	15.46
514.57	15.89
514.77	16.46
514.969	16.89
515.168	16.93
515.367	16.9
515.567	16.8
515.766	16.78
515.965	16.99
516.164	17.03
516.364	16.88
516.563	16.96
516.762	16.92
516.961	16.8
517.16	17.12
517.359	17.05
517.559	16.89
517.758	16.96
517.957	17.03
518.156	17.29
518.355	17.55
518.554	17.64
518.753	17.74
518.952	17.64
519.151	17.31
519.35	17.38
519.549	17.66
519.748	17.91
519.947	18.04
520.146	18.22
520.345	18.19
520.544	18.16
520.743	18.37
520.942	18.36
521.141	18.8
521.339	19.35
521.538	19.29
521.737	19.29
521.936	19.41
522.135	19.47
522.333	19.8
522.532	19.35
522.731	19.47
522.93	19.53
523.129	19.48
523.327	19.37
523.526	19.34
523.725	19.18
523.923	19.37
524.122	19.34
524.321	19.53
524.519	19.38
524.718	19.55
524.917	19.63
525.115	19.75
525.314	19.8
525.512	19.89
525.711	19.86
525.909	19.8
526.108	19.64
526.306	19.71
526.505	19.69
526.703	19.63
526.902	19.7
527.1	19.77
527.299	19.7
527.497	19.78
527.696	19.81
527.894	20
528.092	20.13
528.291	20.18
528.489	20.32
528.688	20.4
528.886	20.5
529.084	20.67
529.283	20.77
529.481	20.82
529.679	21
529.877	21.21
530.076	21.25
530.274	21.6
530.472	21.73
530.67	21.81
530.869	21.92
531.067	22.08
531.265	22
531.463	21.96
531.661	22.2
531.859	22.33
532.057	22.01
532.255	22.05
532.454	21.91
532.652	21.87
532.85	21.88
533.048	21.99
533.246	22.15
533.444	22.43
533.642	22.53
533.84	22.68
534.038	22.7
534.236	22.89
534.434	22.98
534.632	23.22
534.83	23.45
535.027	23.51
535.225	23.55
535.423	23.53
535.621	23.31
535.819	23.31
536.017	23.23
536.215	23.25
536.412	23.65
536.61	23.38
536.808	23.41
537.006	23.48
537.203	23.73
537.401	23.65
537.599	23.92
537.797	24.04
537.994	24.2
538.192	24.17
538.39	23.98
538.587	23.82
538.785	23.82
538.983	23.76
539.18	23.99
539.378	23.87
539.575	23.87
539.773	23.63
539.97	23.68
540.168	23.68
540.366	23.8
540.563	23.92
540.761	23.96
540.958	24.22
541.155	24.35
541.353	24.27
541.55	24.48
541.748	24.5
541.945	24.64
542.143	24.68
542.34	24.74
542.537	24.9
542.735	25.07
542.932	25.04
543.129	25.16
543.327	25.17
543.524	24.99
543.721	25.01
543.919	25.23
544.116	25.28
544.313	25.6
544.51	25.81
544.708	25.97
544.905	26
545.102	26.25
545.299	26.17
545.496	26.17
545.693	26.52
545.891	26.37
546.088	26.23
546.285	26.18
546.482	26.28
546.679	26.18
546.876	25.85
547.073	25.71
547.27	25.8
547.467	25.92
547.664	26.04
547.861	26.3
548.058	26.44
548.255	26.74
548.452	26.92
548.649	26.96
548.846	27.32
549.043	27.32
549.24	27.68
549.437	27.86
549.633	27.81
549.83	27.97
550.027	27.82
550.224	28.01
550.421	28.12
550.618	28.57
550.814	28.57
551.011	28.54
551.208	28.73
551.405	28.52
551.601	28.43
551.798	28.39
551.995	28.47
552.191	28.54
552.388	28.47
552.585	28.53
552.781	28.21
552.978	28.12
553.175	28.13
553.371	28.18
553.568	28.28
553.764	28.26
553.961	28.39
554.157	28.22
554.354	28.13
554.55	28.27
554.747	28.18
554.943	28.54
555.14	28.59
555.336	28.34
555.533	28.4
555.729	28.4
555.926	28.53
556.122	28.98
556.318	29.31
556.515	29.41
556.711	29.54
556.907	29.48
557.104	29.4
557.3	29.78
557.496	30.32
557.693	30.52
557.889	31.12
558.085	31.26
558.281	31.44
558.478	31.61
558.674	31.64
558.87	31.72
559.066	32.05
559.262	31.64
559.459	31.04
559.655	30.79
559.851	30.7
560.047	30.44
560.243	30.35
560.439	30.15
560.635	30.02
560.831	30.13
561.027	30.06
561.223	30.36
561.419	30.78
561.615	31.06
561.811	30.93
562.007	31.06
562.203	31.28
562.399	31.53
562.595	31.62
562.791	31.77
562.987	31.98
563.183	32.14
563.379	31.91
563.575	32.17
563.771	32.23
563.966	32.27
564.162	32.46
564.358	32.37
564.554	32.01
564.75	31.9
564.945	31.5
565.141	31.45
565.337	31.47
565.533	31.83
565.728	31.79
565.924	31.9
566.12	32.28
566.315	32.35
566.511	32.42
566.707	33.08
566.902	33.5
567.098	33.91
567.293	33.96
567.489	34.16
567.684	33.82
567.88	33.67
568.076	33.55
568.271	33.58
568.467	33.36
568.662	33.42
568.858	33.11
569.053	32.72
569.248	33.11
569.444	33.25
569.639	33.24
569.835	33.62
570.03	33.64
570.225	33.76
570.421	33.72
570.616	34.15
570.812	34.14
571.007	34.51
571.202	34.6
571.397	34.15
571.593	34.2
571.788	34.15
571.983	34.04
572.178	34.23
572.374	34.23
572.569	34.12
572.764	33.77
572.959	33.65
573.154	33.39
573.35	33.67
573.545	33.73
573.74	33.72
573.935	33.82
574.13	33.76
574.325	33.89
574.52	34.02
574.715	34.35
574.91	34.81
575.105	34.9
575.3	35
575.495	35.34
575.69	35.62
575.885	35.73
576.08	35.86
576.275	36.52
576.47	36.67
576.665	36.94
576.86	36.87
577.055	36.8
577.25	36.99
577.444	36.88
577.639	36.39
577.834	36.47
578.029	36.54
578.224	36.54
578.418	36.07
578.613	36.1
578.808	36.28
579.003	36.39
579.197	36.52
579.392	36.87
579.587	37.49
579.781	37.68
579.976	37.87
580.171	38.22
580.365	38.11
580.56	38.17
580.755	38.19
580.949	37.66
581.144	37.73
581.338	37.55
581.533	37.03
581.727	37
581.922	37.5
582.116	37.13
582.311	37.21
582.505	37.29
582.7	37.12
582.894	37.35
583.089	37.72
583.283	37.82
583.478	37.99
583.672	38.69
583.866	38.51
584.061	38.13
584.255	38.17
584.449	38.19
584.644	38.4
584.838	38.94
585.032	39.24
585.226	39.22
585.421	39.46
585.615	39.34
585.809	38.82
586.003	38.58
586.198	38.91
586.392	39.24
586.586	39.47
586.78	39.75
586.974	39.67
587.168	39.44
587.363	39.73
587.557	39.57
587.751	39.94
587.945	40.2
588.139	40.64
588.333	40.24
588.527	40.28
588.721	40.12
588.915	39.57
589.109	39.47
589.303	39.06
589.497	39.46
589.691	39.35
589.885	39.25
590.079	39.5
590.273	39.3
590.466	39.8
590.66	40.17
590.854	40.03
591.048	40.53
591.242	40.86
591.436	41.2
591.629	41.17
591.823	41.41
592.017	41.4
592.211	41.19
592.404	41.59
592.598	41.43
592.792	41.38
592.986	41.42
593.179	41.03
593.373	40.83
593.567	40.79
593.76	40.74
593.954	41.05
594.147	40.96
594.341	41.54
594.535	41.27
594.728	41.13
594.922	41.28
595.115	41.06
595.309	41.36
595.502	41.28
595.696	41.43
595.889	41.34
596.083	41.19
596.276	41.44
596.47	41.51
596.663	41.69
596.856	42.01
597.05	41.86
597.243	42.26
597.437	42.24
597.63	42.56
597.823	42.33
598.017	42.46
598.21	42.24
598.403	42.32
598.596	42.02
598.79	42.08
598.983	41.82
599.176	41.73
599.369	42.03
599.563	42.23
599.756	42.24
599.949	42.55
600.142	42.84
600.335	43.1
600.528	42.97
600.722	43.05
600.915	42.89
601.108	43.2
601.301	43.16
601.494	42.61
601.687	42.74
601.88	43.3
602.073	42.86
602.266	42.75
602.459	42.96
602.652	43.03
602.845	42.88
603.038	42.91
603.231	42.68
603.424	42.78
603.617	42.85
603.809	42.93
604.002	41.9
604.195	42.08
604.388	41.78
604.581	41.83
604.774	41.81
604.966	41.82
605.159	41.96
605.352	42.35
605.545	42.49
605.737	42.64
605.93	42.5
606.123	43.18
606.316	43.69
606.508	44.26
606.701	44.1
606.894	43.69
607.086	44.26
607.279	44.4
607.471	43.7
607.664	43.89
607.857	44.38
608.049	44.17
608.242	44.29
608.434	44.21
608.627	44.67
608.819	44.75
609.012	45.35
609.204	44.86
609.397	45.02
609.589	45.7
609.782	45.59
609.974	45.56
610.166	46.36
610.359	46.27
610.551	46.38
610.743	45.75
610.936	46.16
611.128	46.33
611.32	46.6
611.513	46.2
611.705	45.9
611.897	46.11
612.09	45.83
612.282	45.72
612.474	45.94
612.666	46.42
612.858	46.27
613.051	45.43
613.243	45.28
613.435	45.44
613.627	45.27
613.819	45.75
614.011	45.4
614.203	45.91
614.395	46.08
614.588	46.22
614.78	45.81
614.972	46.53
615.164	47.01
615.356	47.26
615.548	47.45
615.74	48.12
615.932	48.06
616.124	48.7
616.315	48.55
616.507	48.27
616.699	48.7
616.891	49.01
617.083	48.65
617.275	48.86
617.467	48.27
617.659	48.21
617.85	48.59
618.042	49.14
618.234	48.43
618.426	48
618.618	48.16
618.809	48.01
619.001	48.12
619.193	48.38
619.384	48.42
619.576	49
619.768	49.12
619.959	48.76
620.151	48.34
620.343	48.96
620.534	48.95
620.726	48.31
620.917	48.07
621.109	47.6
621.301	47.53
621.492	47.53
621.684	47.2
621.875	47.49
622.067	47.22
622.258	47.15
622.45	46.48
622.641	46.8
622.832	47.63
623.024	47.33
623.215	47.51
623.407	47.02
623.598	46.87
623.789	47.04
623.981	46.7
624.172	47.13
624.363	47.37
624.555	47.58
624.746	47.17
624.937	46.95
625.129	46.79
625.32	46.6
625.511	46.42
625.702	46.07
625.893	46.33
626.085	46.04
626.276	46.28
626.467	45.88
626.658	45.76
626.849	45.74
627.04	46.33
627.231	47.21
627.422	47.44
627.614	47.92
627.805	48.37
627.996	48.1
628.187	48.59
628.378	48.21
628.569	48.37
628.76	48.31
628.951	48.89
629.142	48.33
629.332	48.46
629.523	48.59
629.714	48.43
629.905	48.48
630.096	48.28
630.287	48.26
630.478	48.39
630.669	48.42
630.859	48.6
631.05	48.63
631.241	47.72
631.432	47.09
631.623	46.54
631.813	46.77
632.004	47.12
632.195	47.7
632.385	47.45
632.576	46.63
632.767	46.57
632.957	47.26
633.148	47.05
633.339	47.76
633.529	48.1
633.72	48.27
633.91	48.04
634.101	48.15
634.292	47.79
634.482	47.82
634.673	48.89
634.863	48.53
635.054	47.52
635.244	48.07
635.435	48.42
635.625	48.36
635.815	48.56
636.006	48.74
636.196	48.55
636.387	48.93
636.577	49.5
636.767	49.75
636.958	49.78
637.148	50.72
637.338	50.68
637.529	50.52
637.719	50.39
637.909	50.71
638.099	51.95
638.29	52.14
638.48	52.03
638.67	51.15
638.86	50.47
639.05	51.09
639.241	51.51
639.431	51.01
639.621	51.41
639.811	51.07
640.001	51.15
640.191	50.25
640.381	50.19
640.571	50.47
640.761	51.41
640.951	51.51
641.141	51.35
641.331	51.25
641.521	52.19
641.711	52.64
641.901	53.03
642.091	52.96
642.281	52.21
642.471	52.18
642.661	52.1
642.851	50.96
643.041	50.43
643.231	50.72
643.42	50.46
643.61	50.18
643.8	49.18
643.99	49.2
644.18	49.01
644.369	50.02
644.559	49.25
644.749	48.95
644.939	49.27
645.128	50.56
645.318	50.9
645.508	50.7
645.697	50.47
645.887	50.61
646.076	50.89
646.266	51.84
646.456	51.51
646.645	52.17
646.835	52.61
647.024	52.9
647.214	52.43
647.403	52.12
647.593	52.57
647.782	52.78
647.972	53.12
648.161	53.62
648.351	53.43
648.54	53.86
648.73	54.05
648.919	53.64
649.108	53.74
649.298	54
649.487	54.53
649.677	54.12
649.866	54.38
650.055	53.72
650.244	53.64
650.434	53.76
650.623	53.38
650.812	53.47
651.002	54.2
651.191	55
651.38	54.67
651.569	55.06
651.758	56.61
651.947	56.5
652.137	56.75
652.326	56.15
652.515	55.83
652.704	56.08
652.893	56.05
653.082	55.76
653.271	55.57
653.46	55.36
653.649	54.01
653.838	52.33
654.027	51.77
654.216	52.98
654.405	54.18
654.594	53.72
654.783	53.74
654.972	53.98
655.161	52.96
655.35	52.98
655.539	53.02
655.728	53.11
655.916	53.01
656.105	53.35
656.294	52.41
656.483	51.39
656.672	51.61
656.86	51.64
657.049	51.29
657.238	52.16
657.427	51.63
657.615	51.45
657.804	51.66
657.993	51.48
658.181	51.98
658.37	51.87
658.559	51.4
658.747	51.42
658.936	51.07
659.125	51.61
659.313	51.52
659.502	51.97
659.69	52.29
659.879	53
660.067	52.78
660.256	52.66
660.444	53.41
660.633	54.02
660.821	54.03
661.01	54.49
661.198	54.59
661.387	54.6
661.575	54.66
661.763	55.38
661.952	55.32
662.14	56.09
662.328	55.6
662.517	56.06
662.705	56.59
662.893	57.03
663.082	56.82
663.27	56.24
663.458	56.39
663.646	56.37
663.834	55.01
664.023	54.7
664.211	54.64
664.399	55.41
664.587	54.6
664.775	54.14
664.963	54.32
665.152	55.14
665.34	56.05
665.528	56.83
665.716	57.24
665.904	58.36
666.092	58.41
666.28	58.67
666.468	57.66
666.656	57.97
666.844	58.2
667.032	57.14
667.22	57.71
667.408	57.17
667.596	56.81
667.784	56.17
667.971	56.13
668.159	55.47
668.347	55.73
668.535	55.77
668.723	54.92
668.911	54.77
669.098	55.53
669.286	54.28
669.474	54.88
669.662	53.87
669.849	53.18
670.037	53.24
670.225	53.87
670.413	53.25
670.6	53.36
670.788	53.84
670.976	54.22
671.163	53.6
671.351	53.59
671.538	53.33
671.726	54.33
671.913	56.44
672.101	55.5
672.289	55.32
672.476	55.79
672.664	55.74
672.851	55.28
673.039	56.49
673.226	57.7
673.413	57.8
673.601	56.96
673.788	56.79
673.976	54.76
674.163	55.98
674.35	55.2
674.538	55.28
674.725	56.02
674.912	55.71
675.1	54.42
675.287	53.91
675.474	54.69
675.662	54.75
675.849	54.94
676.036	55.55
676.223	55.17
676.411	55.64
676.598	55.61
676.785	55.67
676.972	56.65
677.159	56.57
677.346	56.17
677.533	55.73
677.721	55.25
677.908	55.04
678.095	53.99
678.282	53.51
678.469	53.73
678.656	53.95
678.843	53.78
679.03	53.48
679.217	53.42
679.404	53.54
679.591	53.28
679.778	53.57
679.964	53.77
680.151	54.39
680.338	54.65
680.525	54.79
680.712	54.6
680.899	53.62
681.086	54.37
681.272	54.75
681.459	55.43
681.646	54.74
681.833	55.35
682.02	55.44
682.206	56.37
682.393	56.69
682.58	57.29
682.766	59.63
682.953	59.96
683.14	60.18
683.326	59.73
683.513	59.47
683.7	61.37
683.886	61.11
684.073	61.11
684.259	60.06
684.446	60.25
684.632	58.7
684.819	56.13
685.005	57.75
685.192	57.2
685.378	57.87
685.565	57.26
685.751	55.85
685.938	56.61
686.124	55.79
686.31	56.17
686.497	55.43
686.683	57.05
686.87	57.01
687.056	56.56
687.242	55.66
687.429	56.1
687.615	57.2
687.801	58.75
687.987	57.71
688.174	59.26
688.36	59.3
688.546	60.27
688.732	58.94
688.918	59.02
689.105	58.69
689.291	60.37
689.477	60.11
689.663	59.07
689.849	58.36
690.035	59.67
690.221	58.26
690.407	59.7
690.593	58.76
690.779	59.26
690.965	59.9
691.151	60
691.337	59.73
691.523	58.45
691.709	59.33
691.895	60.39
692.081	59.87
692.267	59.96
692.453	58.39
692.639	59.44
692.825	60.3
693.011	59.14
693.196	60.35
693.382	59.55
693.568	60.13
693.754	60.27
693.94	59.61
694.125	60.13
694.311	59.83
694.497	60.96
694.682	60.82
694.868	60.3
695.054	60.52
695.239	59.97
695.425	60.25
695.611	60.26
695.796	59.57
695.982	58.94
696.168	57.61
696.353	58.65
696.539	57.94
696.724	57.14
696.91	56.73
697.095	57.32
697.281	57.5
697.466	56.81
697.652	56.87
697.837	55.93
698.023	55.87
698.208	55.68
698.393	55.83
698.579	55.65
698.764	56.15
698.949	56.34
699.135	56.7
699.32	55.71
699.505	55.95
699.691	56.65
699.876	57
700.061	57.25
700.246	59.12
700.432	59.23
700.617	59.3
700.802	58.37
700.987	58.97
701.172	60.53
701.358	60.53
701.543	61.61
701.728	61.35
701.913	62.74
702.098	63.58
702.283	62.54
702.468	62.91
702.653	64.03
702.838	65.49
703.023	64.79
703.208	62.21
703.393	64.34
703.578	64.28
703.763	64.18
703.948	63.58
704.133	62.83
704.318	63.02
704.503	61.39
704.688	61.5
704.873	60.29
705.057	61.39
705.242	61.78
705.427	60.65
705.612	59.53
705.797	59.68
705.981	59.79
706.166	60.01
706.351	61.44
706.536	62.37
706.72	62.31
706.905	64.38
707.09	64.58
707.274	65.05
707.459	64.94
707.644	65.61
707.828	64.96
708.013	65.26
708.197	65.17
708.382	61.93
708.567	61.04
708.751	60.99
708.936	59.02
709.12	58.41
709.305	58.91
709.489	58.22
709.673	58.38
709.858	58.17
710.042	58.02
710.227	58.76
710.411	60.89
710.596	61.19
710.78	60.62
710.964	61.64
711.149	61.25
711.333	60.56
711.517	59.77
711.702	59.3
711.886	59.88
712.07	59.88
712.254	59.41
712.438	58.79
712.623	57.76
712.807	58
712.991	58.51
713.175	58.19
713.359	58.3
713.544	60.15
713.728	61.61
713.912	61.73
714.096	62.28
714.28	61.84
714.464	60.88
714.648	62.91
714.832	63.06
715.016	63.57
715.2	63.27
715.384	63.95
715.568	63.45
715.752	61.08
715.936	60.66
716.12	61.8
716.304	61.39
716.488	61.67
716.671	61.98
716.855	61.91
717.039	60.72
717.223	62.75
717.407	62.56
717.59	63.05
717.774	66.83
717.958	66.92
718.142	65.55
718.325	67.01
718.509	69.01
718.693	69.82
718.877	71.2
719.06	73.89
719.244	72.83
719.428	73.1
719.611	72.43
719.795	71.46
719.978	72.72
720.162	72.6
720.345	72.62
720.529	72.83
720.713	70.84
720.896	70.58
721.08	68.89
721.263	70.65
721.446	68.78
721.63	69.44
721.813	69.43
721.997	69.61
722.18	71.98
722.364	72.23
722.547	72.06
722.73	73.17
722.914	73.31
723.097	71.91
723.28	71.24
723.464	72.76
723.647	73
723.83	73.4
724.013	74.23
724.197	71.38
724.38	70.92
724.563	69.38
724.746	69.65
724.929	68.52
725.112	69.93
725.296	68.16
725.479	67.12
725.662	68.29
725.845	64.41
726.028	63.39
726.211	63.19
726.394	63.83
726.577	64.53
726.76	62.93
726.943	61.86
727.126	61.63
727.309	61.84
727.492	62.38
727.675	61.42
727.858	63.74
728.041	61.96
728.224	61.7
728.407	60.09
728.589	57.86
728.772	57.16
728.955	58.78
729.138	58.16
729.321	59.91
729.503	60.71
729.686	60.49
729.869	60.21
730.052	62
730.234	62.08
730.417	63.28
730.6	65.18
730.782	64.76
730.965	63.8
731.148	63.77
731.33	61.06
731.513	59.32
731.695	59.94
731.878	60.46
732.061	60.02
732.243	60.73
732.426	61.51
732.608	60.78
732.791	62.61
732.973	61.72
733.156	63.35
733.338	65.49
733.52	67.93
733.703	67.95
733.885	69.7
734.068	70.04
734.25	70.86
734.432	70.95
734.615	71.69
734.797	71.85
734.979	74.5
735.162	72.75
735.344	72.18
735.526	71.64
735.708	72.11
735.891	71.18
736.073	72.21
736.255	72.22
736.437	71.13
736.619	71.93
736.802	70.84
736.984	71.99
737.166	71.25
737.348	72.25
737.53	70.6
737.712	67.68
737.894	68
738.076	67.63
738.258	66.98
738.44	67.06
738.622	68.38
738.804	71.18
738.986	68.35
739.168	69.18
739.35	69.04
739.532	69.44
739.714	72.45
739.896	74.5
740.078	72.81
740.259	73.56
740.441	73.05
740.623	71.79
740.805	69.57
740.987	70
741.168	70.13
741.35	70.35
741.532	72.31
741.714	73.1
741.895	69.34
742.077	70.84
742.259	71.72
742.44	74.31
742.622	73.93
742.804	75.06
742.985	75.86
743.167	75.45
743.348	76.33
743.53	77.56
743.711	77.66
743.893	79.27
744.075	79.73
744.256	77.87
744.438	74.8
744.619	76.11
744.8	75.98
744.982	75.46
745.163	76.87
745.345	75.94
745.526	72.86
745.707	70.87
745.889	70.85
746.07	71.23
746.252	73.3
746.433	72.81
746.614	73.18
746.795	74.17
746.977	76.76
747.158	76.76
747.339	77.57
747.52	75.85
747.702	77.27
747.883	78.09
748.064	77.78
748.245	76.81
748.426	79.33
748.607	74.82
748.788	71.69
748.97	68.93
749.151	65.62
749.332	66.85
749.513	67.56
749.694	68.23
749.875	68.97
750.056	68.72
750.237	69.82
750.418	68.54
750.599	71.68
750.78	71.26
750.96	72.19
751.141	75.13
751.322	72.14
751.503	73.13
751.684	71.47
751.865	65.46
752.046	64.43
752.226	60.83
752.407	60.2
752.588	59.79
752.769	62.03
752.949	61.41
753.13	60.8
753.311	62.44
753.492	63.88
753.672	65.28
753.853	71.71
754.034	71.69
754.214	75.16
754.395	75.03
754.575	72.33
754.756	70.62
754.937	72.69
755.117	70.81
755.298	69.76
755.478	67.63
755.659	66.36
755.839	65.29
756.02	67.49
756.2	67.2
756.381	69.5
756.561	73.91
756.741	75.63
756.922	73.87
757.102	74.94
757.283	73.93
757.463	73.98
757.643	75.4
757.823	75.44
758.004	73.22
758.184	71.12
758.364	68.9
758.545	66.88
758.725	66.22
758.905	64.81
759.085	66.46
759.265	68.52
759.446	70.63
759.626	72.33
759.806	72.7
759.986	72.7
760.166	72.89
760.346	73.54
760.526	73.07
760.706	73.66
760.886	74.73
761.066	74.18
761.246	71.41
761.426	69.5
761.606	65.45
761.786	62.77
761.966	61.82
762.146	60.69
762.326	59.83
762.506	58.87
762.686	57.4
762.866	56.59
763.046	55.39
763.225	56.38
763.405	57.22
763.585	57.17
763.765	58.45
763.945	58.73
764.124	59.78
764.304	60.44
764.484	61.74
764.664	63.71
764.843	66.85
765.023	67.49
765.203	66.16
765.382	65.6
765.562	67.55
765.741	67.76
765.921	68.85
766.101	69.74
766.28	70.95
766.46	71.18
766.639	68.64
766.819	66.44
766.998	67.84
767.178	70.09
767.357	70.06
767.537	68.44
767.716	70.7
767.896	69.07
768.075	69.12
768.254	66.55
768.434	66.3
768.613	68.48
768.792	69.06
768.972	68.83
769.151	67.92
769.33	67.73
769.51	69.42
769.689	69.16
769.868	69.51
770.047	72.71
770.226	75.22
770.406	77.12
770.585	79.37
770.764	77.79
770.943	78.18
771.122	82.4
771.301	84.02
771.48	82.51
771.66	83.47
771.839	86.45
772.018	84.72
772.197	86.78
772.376	88.72
772.555	88.18
772.734	93.06
772.913	95.57
773.092	93.27
773.271	92.22
773.449	99.52
773.628	96.36
773.807	97.91
773.986	98.14
774.165	95.84
774.344	95.83
774.523	96.49
774.701	94.86
774.88	94.34
775.059	93.11
775.238	96.18
775.417	93.29
775.595	93.46
775.774	91.81
775.953	89.29
776.131	91.21
776.31	86.7
776.489	83.41
776.667	81.77
776.846	81.89
777.025	83.22
777.203	82.64
777.382	83.52
777.56	81.9
777.739	79.05
777.917	79.33
778.096	77.58
778.274	77.51
778.453	79.25
778.631	80.25
778.81	77.62
778.988	80.1
779.166	80.92
779.345	80.07
779.523	84.03
779.702	88.17
779.88	89.16
780.058	88.3
780.237	87.64
780.415	86.12
780.593	86.12
780.771	85.37
780.95	80.6
781.128	78.1
781.306	79.13
781.484	79.33
781.662	80.46
781.841	78.89
782.019	80.08
782.197	83.97
782.375	85.23
782.553	84.14
782.731	88.87
782.909	88.32
783.087	87.67
783.265	88.24
783.443	87.03
783.621	84.28
783.799	89.15
783.977	87.86
784.155	82.97
784.333	88.16
784.511	90.55
784.689	87.93
784.867	89.93
785.045	92.74
785.223	90.95
785.4	93.21
785.578	96.14
785.756	90.02
785.934	89.94
786.112	93.8
786.289	90.2
786.467	88.63
786.645	87.37
786.823	89.29
787	84.77
787.178	82.99
787.356	81.25
787.533	78.72
787.711	81.78
787.889	81.35
788.066	77.49
788.244	75.87
788.421	77.04
788.599	75.8
788.776	72.69
788.954	75.42
789.131	77.76
789.309	79.14
789.486	76.66
789.664	76.31
789.841	78.39
790.019	81.09
790.196	83.78
790.373	81.57
790.551	83.51
790.728	86.71
790.906	87.12
791.083	84.36
791.26	78.88
791.437	82.72
791.615	84.92
791.792	84.97
791.969	83.08
792.146	82.76
792.324	81.99
792.501	83.79
792.678	85.71
792.855	87.69
793.032	91.84
793.209	91.76
793.387	95.3
793.564	93.7
793.741	95.15
793.918	96.4
794.095	97.28
794.272	97.41
794.449	92.69
794.626	92.85
794.803	92.89
794.98	87.52
795.157	92.19
795.334	88.3
795.511	85.47
795.688	80.5
795.864	80.07
796.041	77.87
796.218	77.24
796.395	79.57
796.572	73.44
796.749	73.51
796.925	74.88
797.102	72.97
797.279	69.53
797.456	74
797.632	77.31
797.809	79.33
797.986	77.67
798.162	79.92
798.339	83.12
798.516	80.9
798.692	79.5
798.869	82.49
799.046	79.03
799.222	83.16
799.399	76.12
799.575	76.01
799.752	73.68
799.928	73.35
800.105	72.02
800.281	67.51
800.458	70.75
800.634	66.96
800.811	64.4
800.987	65.86
801.163	64.12
801.34	69.53
801.516	68.97
801.692	74.46
801.869	78.46
802.045	81.98
802.221	81.28
802.398	89.34
802.574	94.15
802.75	90.82
802.926	90.84
803.103	93.83
803.279	93.28
803.455	94.49
803.631	90.34
803.807	91.04
803.983	87.99
804.16	90.51
804.336	83.84
804.512	84.4
804.688	87.27
804.864	88.94
805.04	88.41
805.216	87.55
805.392	86.19
805.568	86.66
805.744	86.1
805.92	85.9
806.096	87.9
806.272	94.16
806.448	94.48
806.623	92.95
806.799	90.99
806.975	89.91
807.151	90.37
807.327	85.43
807.503	80.33
807.678	73.74
807.854	76.11
808.03	78.3
808.206	74.8
808.381	74.7
808.557	77.11
808.733	76.98
808.908	78.57
809.084	78.32
809.26	81.72
809.435	83.05
809.611	90.39
809.787	85.84
809.962	80.52
810.138	81.91
810.313	78.81
810.489	85.71
810.664	85.93
810.84	87.19
811.015	89.36
811.191	91.58
811.366	97.16
811.542	98.03
811.717	99.54
811.892	103.61
812.068	102.88
812.243	107.9
812.419	98.15
812.594	105.25
812.769	105.15
812.944	108.3
813.12	108.54
813.295	105.76
813.47	105.89
813.645	109.23
813.821	109.19
813.996	100.96
814.171	98.35
814.346	97.66
814.521	96.92
814.697	97.09
814.872	90.09
815.047	91.92
815.222	88.21
815.397	82.14
815.572	79.55
815.747	78.49
815.922	84.01
816.097	84.2
816.272	85.21
816.447	82.58
816.622	81.83
816.797	87.2
816.972	82.66
817.147	84.56
817.322	92.15
817.496	89.65
817.671	94.15
817.846	95.58
818.021	91.16
818.196	90.38
818.371	87.43
818.545	82.58
818.72	81.45
818.895	83.67
819.069	83.14
819.244	76.01
819.419	73.53
819.594	67.87
819.768	64.52
819.943	61.98
820.117	58.1
820.292	55.73
820.467	56.02
820.641	52.93
820.816	51.22
820.99	50.01
821.165	48.6
821.339	47.35
821.514	45.88
821.688	44.94
821.863	44.18
822.037	45.04
822.212	45.25
822.386	44.54
822.56	44.29
822.735	44.47
822.909	44
823.084	44.12
823.258	44.78
823.432	45.98
823.606	47.3
823.781	47.6
823.955	47.95
824.129	47.89
824.303	48.29
824.478	48.43
824.652	48.27
824.826	49.66
825	50.58
825.174	50.21
825.348	50.07
825.523	49.85
825.697	50.56
825.871	50.8
826.045	50.75
826.219	51.13
826.393	52.6
826.567	51.45
826.741	50.75
826.915	51.15
827.089	51.81
827.263	51.62
827.437	50.01
827.611	50.83
827.784	48.59
827.958	50.55
828.132	49.41
828.306	48.68
828.48	50.2
828.654	50.6
828.827	51.39
829.001	54.05
829.175	55.34
829.349	58.34
829.522	59.13
829.696	60.5
829.87	58.87
830.044	61.13
830.217	65.04
830.391	68.81
830.565	71.64
830.738	72.5
830.912	71.28
831.085	71.74
831.259	69.89
831.432	68.11
831.606	69.19
831.779	68.73
831.953	67
832.126	66.24
832.3	64.86
832.473	62.63
832.647	60.81
832.82	60.33
832.994	61.49
833.167	63.9
833.34	63.35
833.514	60.62
833.687	59.78
833.86	61.75
834.034	58.76
834.207	57.26
834.38	57.04
834.553	53.92
834.727	54.22
834.9	53.69
835.073	50.68
835.246	54.19
835.419	54.13
835.593	54.11
835.766	52.04
835.939	55.14
836.112	54.21
836.285	52.48
836.458	56.22
836.631	60.2
836.804	60.19
836.977	64.3
837.15	54.88
837.323	65.95
837.496	70.24
837.669	69.23
837.842	69.95
838.015	74.5
838.188	81.29
838.361	81.7
838.533	77.22
838.706	77.68
838.879	72.56
839.052	75.41
839.225	75.56
839.398	79.4
839.57	82.64
839.743	80.39
839.916	81.21
840.088	80.56
840.261	83.73
840.434	83.17
840.607	80.62
840.779	86.08
840.952	90.34
841.124	92.19
841.297	91.46
841.47	91.99
841.642	103.2
841.815	97.87
841.987	98.93
842.16	98.17
842.332	99.53
842.505	104.26
842.677	108.07
842.85	121.28
843.022	122.49
843.194	115.45
843.367	114.29
843.539	108.73
843.712	117.46
843.884	120.55
844.056	115.98
844.229	122.51
844.401	127.01
844.573	123.21
844.745	111.53
844.918	116.47
845.09	118.59
845.262	133.95
845.434	146.61
845.606	153.02
845.779	152.9
845.951	154.4
846.123	152.11
846.295	173.88
846.467	200.82
846.639	193.27
846.811	195.62
846.983	210.53
847.155	198.31
847.327	195.37
847.499	200.71
847.671	210.17
847.843	196.68
848.015	190.09
848.187	169.25
848.359	162.76
848.531	173.58
848.703	157.7
848.875	172.93
849.047	163.12
849.218	155.72
849.39	139.6
849.562	141.17
849.734	169.24
849.905	158.22
850.077	172.76
850.249	164.06
850.421	142.79
850.592	139.03
850.764	132.21
850.936	121.52
851.107	112.63
851.279	128.09
851.451	119.48
851.622	110.98
851.794	119.67
851.965	115.03
852.137	114.03
852.308	117.2
852.48	126.08
852.651	118.77
852.823	137.88
852.994	138.82
853.166	137.12
853.337	157.62
853.509	166.4
853.68	156.77
853.851	156.17
854.023	151.47
854.194	141.7
854.365	147.91
854.537	143.62
854.708	148.51
854.879	138.3
855.05	146.4
855.222	115.67
855.393	112.26
855.564	118.07
855.735	125.53
855.906	125.8
856.078	128.6
856.249	110.67
856.42	106.52
856.591	101.15
856.762	117.55
856.933	107.53
857.104	102.48
857.275	110.51
857.446	120.43
857.617	111
857.788	116.1
857.959	121.23
858.13	142.93
858.301	149.23
858.472	147.57
858.643	145.13
858.814	147.74
858.985	177.42
859.155	215.4
859.326	189.24
859.497	199.13
859.668	293.07
859.839	238.4
860.009	198.61
860.18	241.49
860.351	220.63
860.522	182.85
860.692	170.41
860.863	153.59
861.034	146.04
861.204	136.14
861.375	127.72
861.546	122.65
861.716	123.22
861.887	128.89
862.057	129.93
862.228	137.56
862.398	144.17
862.569	162.69
862.739	194.39
862.91	169.36
863.08	184.48
863.251	202.9
863.421	202.06
863.592	252.4
863.762	216.56
863.932	186.46
864.103	183.05
864.273	187.34
864.443	171.49
864.614	158.63
864.784	173.15
864.954	180.57
865.125	192.4
865.295	182.66
865.465	201.32
865.635	221.71
865.805	211.97
865.976	217.45
866.146	166.46
866.316	188.54
866.486	249.91
866.656	226.71
866.826	243.46
866.996	221.19
867.166	261.18
867.336	190.06
867.506	139.1
867.676	140.24
867.846	132.13
868.016	161.74
868.186	139.12
868.356	115.44
868.526	123.34
868.696	109.9
868.866	106.81
869.036	114.35
869.206	107.38
869.376	115.93
869.545	118.53
869.715	132.91
869.885	131.11
870.055	131.75
870.224	124.32
870.394	122.04
870.564	149.07
870.734	145.94
870.903	146.55
871.073	152.96
871.243	160.08
871.412	160.77
871.582	132.58
871.751	129.86
871.921	148.14
872.091	179.61
872.26	136.89
872.43	110.84
872.599	113.94
872.769	105.3
872.938	116.32
873.108	109.15
873.277	94.42
873.446	107.57
873.616	115.14
873.785	116.67
873.955	117.03
874.124	125.47
874.293	142.9
874.463	133.53
874.632	137.78
874.801	131.61
874.971	127.78
875.14	176.45
875.309	161.35
875.478	126.84
875.647	105.18
875.817	104.2
875.986	112.61
876.155	106.79
876.324	104.89
876.493	96.59
876.662	100.89
876.831	108.72
877	100.17
877.17	101.52
877.339	104.1
877.508	119.74
877.677	129.44
877.846	125.27
878.015	122.83
878.184	113.82
878.352	124.23
878.521	121.56
878.69	111.2
878.859	92.11
879.028	86.85
879.197	84.81
879.366	75.94
879.534	66.86
879.703	59.73
879.872	60.89
880.041	62.23
880.21	57.82
880.378	49.56
880.547	48.87
880.716	51.51
880.884	49.96
881.053	48.64
881.222	49.61
881.39	48.64
881.559	47.2
881.727	45.55
881.896	42.94
882.065	43.27
882.233	45.04
882.402	43.72
882.57	46.31
882.739	46.79
882.907	47.75
883.076	48.2
883.244	47.93
883.412	48.25
883.581	47.62
883.749	50.24
883.918	49.38
884.086	52.4
884.254	54.06
884.423	55.11
884.591	59.15
884.759	59.83
884.927	63.37
885.096	63.09
885.264	67.83
885.432	72.83
885.6	71.96
885.769	75.22
885.937	71.54
886.105	82.88
886.273	81.32
886.441	72.95
886.609	75.18
886.777	61.91
886.945	72.95
887.113	71.14
887.281	63.25
887.449	64.95
887.617	69.57
887.785	69.16
887.953	65.35
888.121	69.72
888.289	74.99
888.457	72.67
888.625	83.73
888.793	79.74
888.961	83.24
889.129	103.08
889.296	117.06
889.464	115.01
889.632	134.01
889.8	143.52
889.967	125
890.135	114.73
