Data from JASIL_3281_Reflection_2.txt Node
Date: Tue Nov 17 19:15:00 EST 2015
User: Geneva
Spectrometer: USB4E03002
Autoset integration time: false
Trigger mode: 4
Integration Time (sec): 1.000000E-1
Scans to average: 10
Electric dark correction enabled: false
Nonlinearity correction enabled: false
Boxcar width: 5
Stray light correction enabled: false
XAxis mode: Wavelengths
Stop averaging: false
Number of Pixels in Spectrum: 3648
>>>>>Begin Spectral Data<<<<<
177.575	-83.82
177.794	-4.04
178.014	59.21
178.233	800
178.452	-212.5
178.672	31.28
178.891	-18.75
179.11	73.13
179.33	75.94
179.549	51.49
179.768	14.13
179.987	1.6
180.207	-168.06
180.426	169.57
180.645	-16.35
180.864	29.2
181.084	40.04
181.303	27.78
181.522	31.85
181.741	42.13
181.96	77.4
182.179	122.61
182.398	180.11
182.618	195.39
182.837	294.21
183.056	-3033.33
183.275	-58.18
183.494	-14.86
183.713	1.41
183.932	1.15
184.151	2.65
184.37	3.88
184.589	20.04
184.808	29.21
185.027	41.64
185.246	50.73
185.465	42.86
185.684	-235
185.903	86.15
186.122	82.87
186.341	85.14
186.56	92.72
186.779	70.17
186.998	45.34
187.216	43.65
187.435	93.4
187.654	142.03
187.873	240
188.092	207.96
188.311	174.94
188.53	142.54
188.748	162.5
188.967	168.71
189.186	142.25
189.405	119.88
189.623	105.26
189.842	114.85
190.061	92.76
190.28	87.33
190.498	76
190.717	-1425
190.936	64.08
191.154	144.26
191.373	148.73
191.592	727.27
191.81	71.94
192.029	61.54
192.248	-1550
192.466	-35.04
192.685	-297.01
192.904	13.68
193.122	-2.48
193.341	24.3
193.559	41.69
193.778	40.52
193.996	73.75
194.215	87.96
194.433	105.96
194.652	81.14
194.87	478.82
195.089	170.21
195.307	340.91
195.526	1644.83
195.744	-328.95
195.963	248.39
196.181	201.45
196.399	206.45
196.618	154.67
196.836	302.27
197.055	350.87
197.273	402.98
197.491	429.92
197.71	454.78
197.928	472.6
198.146	148.86
198.365	165.54
198.583	112.5
198.801	128.33
199.019	162.29
199.238	86.02
199.456	77.12
199.674	71.7
199.892	85.05
200.111	91.14
200.329	104.87
200.547	118.88
200.765	149
200.983	256.18
201.202	191.14
201.42	235.28
201.638	258.46
201.856	1067.35
202.074	-3076.92
202.292	1947.06
202.51	-407.41
202.728	224.87
202.946	229.05
203.165	195.71
203.383	192.31
203.601	448
203.819	188.26
204.037	249.24
204.255	250.91
204.473	154.52
204.691	171.79
204.909	188.24
205.127	142.23
205.345	160.86
205.562	181.28
205.78	235.65
205.998	121.14
206.216	100
206.434	110.09
206.652	64.13
206.87	93.37
207.088	97.32
207.306	130.33
207.523	150.13
207.741	125.87
207.959	99.37
208.177	87.46
208.395	102.48
208.612	103.34
208.83	83.19
209.048	76.57
209.266	72.36
209.483	55.44
209.701	64.29
209.919	50.58
210.136	69.71
210.354	75.87
210.572	94.87
210.79	70.02
211.007	62.12
211.225	78.31
211.442	62.27
211.66	95.07
211.878	106.76
212.095	-32.44
212.313	-33.91
212.53	-15.83
212.748	-25.37
212.966	-47.66
213.183	-40.03
213.401	-26.32
213.618	-30.41
213.836	-33.49
214.053	-124.77
214.271	-97.67
214.488	297.02
214.705	183.21
214.923	147.69
215.14	144.86
215.358	105.35
215.575	109.95
215.793	111.79
216.01	74.67
216.227	79.44
216.445	72.65
216.662	82.46
216.879	88.13
217.097	79.56
217.314	88.29
217.531	92.62
217.749	95.73
217.966	99.36
218.183	78.86
218.4	92.03
218.618	53.02
218.835	47.7
219.052	54.23
219.269	97.75
219.487	96.12
219.704	51.55
219.921	65.59
220.138	94.71
220.355	75.12
220.572	71.4
220.79	57.52
221.007	91.51
221.224	90.02
221.441	82.52
221.658	45.94
221.875	52.39
222.092	83.13
222.309	73.13
222.526	66.99
222.743	55.43
222.96	82.31
223.177	94.79
223.394	70.31
223.611	93.93
223.828	99.4
224.045	98.49
224.262	84.76
224.479	44.74
224.696	62.98
224.913	45.05
225.13	40.45
225.347	32.51
225.564	31.53
225.781	21.12
225.997	23.13
226.214	18.02
226.431	16.93
226.648	21.88
226.865	27.64
227.082	19
227.298	14.2
227.515	14.26
227.732	16.74
227.949	17.15
228.165	24.42
228.382	22.15
228.599	17.56
228.816	21.24
229.032	19.3
229.249	17.93
229.466	26.27
229.682	30.05
229.899	26.99
230.116	20.11
230.332	15.75
230.549	3.86
230.765	-6.61
230.982	10.47
231.199	9.78
231.415	14.29
231.632	11.68
231.848	-7.73
232.065	-4.98
232.281	6.32
232.498	9
232.714	15.28
232.931	30.3
233.147	34.21
233.364	25.93
233.58	29.09
233.797	32.38
234.013	37.04
234.23	39.03
234.446	36.45
234.662	33.48
234.879	38.71
235.095	31.3
235.312	26.05
235.528	27.97
235.744	33.09
235.961	31.34
236.177	17.5
236.393	15.87
236.61	11.5
236.826	12.79
237.042	15.59
237.258	27.85
237.475	39.09
237.691	45.33
237.907	45.44
238.123	42.75
238.339	33.72
238.556	33.97
238.772	35.1
238.988	40.52
239.204	40.95
239.42	32.59
239.636	22.81
239.853	18.86
240.069	12.02
240.285	15.5
240.501	11.52
240.717	12.69
240.933	10.57
241.149	8.2
241.365	6.4
241.581	6.77
241.797	8.75
242.013	10.81
242.229	9.6
242.445	9.08
242.661	5.71
242.877	7.76
243.093	10.23
243.309	10.24
243.525	10.07
243.741	12.64
243.957	7.29
244.173	9.56
244.388	7.22
244.604	6.86
244.82	7.32
245.036	5.85
245.252	8.78
245.468	7.18
245.683	8.47
245.899	9.24
246.115	7.48
246.331	8.98
246.547	8.1
246.762	8.17
246.978	7.58
247.194	8.07
247.409	8.95
247.625	7.7
247.841	9.59
248.057	10.27
248.272	9.44
248.488	9.77
248.703	11.76
248.919	15.07
249.135	15.13
249.35	16.22
249.566	16.1
249.782	19.54
249.997	17.93
250.213	15.13
250.428	12.22
250.644	12.53
250.859	9.38
251.075	8.22
251.29	6.98
251.506	8.59
251.721	8.95
251.937	9.87
252.152	2.59
252.368	4.1
252.583	8.93
252.798	11.78
253.014	13.01
253.229	19.17
253.445	23
253.66	18.05
253.875	14.56
254.091	14.93
254.306	13.13
254.521	18.68
254.737	14.47
254.952	5.7
255.167	0.4
255.383	-1.92
255.598	-0.72
255.813	-2.77
256.028	-1.06
256.244	1.58
256.459	1.9
256.674	-1.9
256.889	-0.46
257.104	1
257.32	4.2
257.535	6.58
257.75	9.34
257.965	9.05
258.18	8.64
258.395	9.55
258.61	8.14
258.826	7.36
259.041	9.48
259.256	9.54
259.471	9.57
259.686	9.03
259.901	9.37
260.116	8.56
260.331	8.4
260.546	8.27
260.761	8.58
260.976	10.01
261.191	9.2
261.406	8.45
261.621	6.91
261.836	6.45
262.05	8.41
262.265	6.16
262.48	6.4
262.695	5.23
262.91	4.95
263.125	4.55
263.34	4.6
263.555	8.52
263.769	4.98
263.984	8.56
264.199	10.32
264.414	7.79
264.629	8.2
264.843	8.91
265.058	8.21
265.273	7.53
265.488	3.17
265.702	2.8
265.917	1.85
266.132	3.47
266.346	-0.56
266.561	4.49
266.776	6.44
266.99	6.89
267.205	5.59
267.42	6
267.634	8.11
267.849	11.25
268.063	10.15
268.278	11.73
268.492	12.81
268.707	13.21
268.922	8.78
269.136	8.4
269.351	9.78
269.565	9.11
269.78	9.51
269.994	7.44
270.209	7.91
270.423	9.28
270.637	9.73
270.852	7.87
271.066	9.59
271.281	8.43
271.495	8.55
271.709	5.98
271.924	7.24
272.138	7.87
272.353	9.09
272.567	9.55
272.781	10.36
272.996	9.62
273.21	11
273.424	10.84
273.638	12.13
273.853	13.89
274.067	15.85
274.281	17.09
274.495	16.6
274.71	18.11
274.924	18.55
275.138	15.72
275.352	15.17
275.566	16.36
275.781	15.6
275.995	15.57
276.209	13.12
276.423	13.89
276.637	12.54
276.851	10.44
277.065	7.21
277.279	4.29
277.493	4.63
277.707	6.1
277.921	5.93
278.135	5.79
278.349	7.14
278.563	8.52
278.777	7.37
278.991	7.48
279.205	12
279.419	14.21
279.633	14.17
279.847	15.01
280.061	15.18
280.275	13.39
280.489	13.75
280.703	12.76
280.917	11.17
281.131	11.24
281.344	11.36
281.558	8.39
281.772	6.8
281.986	7.63
282.2	7.44
282.414	6.56
282.627	8.81
282.841	8.6
283.055	8.66
283.269	9.23
283.482	8.36
283.696	7.89
283.91	6.43
284.123	6.88
284.337	7.93
284.551	8.71
284.764	8.05
284.978	6.79
285.192	6.98
285.405	5.08
285.619	5.37
285.833	7.35
286.046	6.88
286.26	8.89
286.473	8.25
286.687	6.63
286.9	7.06
287.114	7.34
287.327	7.82
287.541	5.37
287.754	8.48
287.968	7.85
288.181	6.27
288.395	7.36
288.608	6.09
288.822	7.17
289.035	7.48
289.248	6.44
289.462	6.71
289.675	5.86
289.889	7.98
290.102	5.82
290.315	6.04
290.529	7.16
290.742	7.05
290.955	8.36
291.169	8.03
291.382	8.03
291.595	8.07
291.808	7.78
292.022	8.41
292.235	7.19
292.448	8.23
292.661	8.41
292.875	8.34
293.088	7.03
293.301	7.27
293.514	5.47
293.727	5.62
293.94	5.25
294.153	4.34
294.367	3.97
294.58	3.56
294.793	4.62
295.006	3.52
295.219	2.01
295.432	3.92
295.645	3.95
295.858	5.32
296.071	5.53
296.284	6.07
296.497	7.06
296.71	5.95
296.923	6.83
297.136	6.11
297.349	7.37
297.562	7.47
297.775	7.03
297.988	5.82
298.201	6.3
298.414	6.27
298.626	6.77
298.839	5.1
299.052	5.76
299.265	6.05
299.478	6.91
299.691	5.19
299.903	6.36
300.116	4.4
300.329	5.46
300.542	5.48
300.755	4.82
300.967	3.83
301.18	5.82
301.393	7.87
301.605	6.61
301.818	5.85
302.031	6.79
302.243	6.05
302.456	7.94
302.669	8.93
302.881	8.3
303.094	8.78
303.307	7.88
303.519	6.45
303.732	5.87
303.944	5.78
304.157	4.97
304.37	4.43
304.582	4.49
304.795	4.18
305.007	3.99
305.22	3.62
305.432	3.49
305.645	4.32
305.857	5.8
306.069	3.9
306.282	5.93
306.494	5.72
306.707	6.67
306.919	6.4
307.132	7.43
307.344	7.8
307.556	8.76
307.769	8.2
307.981	9.04
308.193	8.62
308.406	9.26
308.618	7.92
308.83	8.66
309.043	9.01
309.255	9.36
309.467	6.86
309.679	6.33
309.892	6.64
310.104	7.2
310.316	6.38
310.528	5.47
310.74	5.46
310.953	5.43
311.165	4.24
311.377	3.92
311.589	3.98
311.801	5.63
312.013	5.44
312.225	5.46
312.437	6.26
312.649	6.71
312.862	7.78
313.074	8.01
313.286	8.34
313.498	11.7
313.71	9.75
313.922	10.78
314.134	10.96
314.346	11.18
314.558	10.88
314.77	9.46
314.982	8.12
315.193	8.86
315.405	9.3
315.617	10.93
315.829	9.05
316.041	10.78
316.253	9.62
316.465	10.07
316.677	10.85
316.888	9.52
317.1	9.03
317.312	9.82
317.524	9.15
317.736	10.57
317.947	10.35
318.159	10.67
318.371	10.97
318.583	12.53
318.794	12.63
319.006	12.47
319.218	12.38
319.43	13.97
319.641	14.81
319.853	15.34
320.064	14.58
320.276	13.69
320.488	12.96
320.699	11.07
320.911	8.71
321.123	8.6
321.334	7.04
321.546	6.7
321.757	5.69
321.969	3.82
322.18	3.44
322.392	2.41
322.603	3.32
322.815	3.29
323.026	5.75
323.238	6.7
323.449	6.74
323.661	6.99
323.872	7.67
324.083	7.02
324.295	7.93
324.506	7.47
324.718	8.73
324.929	7.07
325.14	7.21
325.352	6.07
325.563	7.24
325.774	6.87
325.986	7.51
326.197	9.02
326.408	9.99
326.62	10.88
326.831	10.68
327.042	10.99
327.253	11.82
327.464	12.54
327.676	13.43
327.887	11.76
328.098	10.66
328.309	11.58
328.52	11.09
328.732	11.12
328.943	10.39
329.154	11.59
329.365	11.06
329.576	10.3
329.787	9.86
329.998	9.73
330.209	10.83
330.42	10.43
330.631	8.91
330.842	10.67
331.053	11.54
331.264	12.86
331.475	12.36
331.686	11.46
331.897	13.27
332.108	13.31
332.319	13.36
332.53	12.38
332.741	12.95
332.952	13.91
333.163	12.8
333.374	11.31
333.585	11.03
333.795	10.31
334.006	10.96
334.217	10.01
334.428	9.64
334.639	9.96
334.849	9.7
335.06	9.52
335.271	9.88
335.482	9.5
335.692	10.65
335.903	9.74
336.114	11.69
336.325	11.67
336.535	11.34
336.746	11.87
336.957	10.98
337.167	11.65
337.378	13.19
337.589	12.48
337.799	10.97
338.01	9.89
338.22	9.81
338.431	8.17
338.642	7.04
338.852	7.55
339.063	6.58
339.273	6.32
339.484	6.95
339.694	6.3
339.905	8.04
340.115	9.93
340.326	11.36
340.536	11.38
340.746	12.18
340.957	13.85
341.167	13.87
341.378	14.77
341.588	14.71
341.799	15.13
342.009	15.33
342.219	15.17
342.43	15.17
342.64	14.83
342.85	14.47
343.061	14.84
343.271	13.91
343.481	13.91
343.691	13.2
343.902	13.51
344.112	12.04
344.322	12.05
344.532	10.66
344.743	9.27
344.953	8.91
345.163	10.07
345.373	8.86
345.583	9.7
345.793	10.51
346.004	10.47
346.214	9.58
346.424	10.94
346.634	10.49
346.844	10.48
347.054	11.13
347.264	12.21
347.474	11.39
347.684	12.06
347.894	11.36
348.104	10.57
348.314	11.33
348.524	12.17
348.734	11.14
348.944	10.37
349.154	10.34
349.364	10.24
349.574	8.13
349.784	8.41
349.994	8.26
350.204	9.19
350.413	9.23
350.623	8.56
350.833	8.58
351.043	8.49
351.253	8.62
351.463	10.02
351.672	10.31
351.882	11.41
352.092	10.39
352.302	10.4
352.511	9.59
352.721	9.25
352.931	8.32
353.141	7.28
353.35	7.87
353.56	9.62
353.77	7.96
353.979	9.04
354.189	9.25
354.399	10.03
354.608	11.17
354.818	10.87
355.027	10.77
355.237	11.69
355.447	11.4
355.656	11.25
355.866	10.26
356.075	10.71
356.285	10.32
356.494	10.24
356.704	10.28
356.913	8.77
357.123	9.15
357.332	9.17
357.542	8.33
357.751	8.96
357.96	9.08
358.17	9.37
358.379	9.97
358.589	9.07
358.798	8.29
359.007	8.36
359.217	8
359.426	7.73
359.635	7.28
359.845	8.02
360.054	8.32
360.263	7.88
360.472	7.7
360.682	6.94
360.891	7.49
361.1	7.89
361.309	7.75
361.519	8.46
361.728	8.85
361.937	8.82
362.146	8.71
362.355	9.16
362.564	9.36
362.774	8.7
362.983	7.96
363.192	7.87
363.401	7.88
363.61	7.53
363.819	6.57
364.028	6.69
364.237	6.88
364.446	7.1
364.655	6.75
364.864	7
365.073	7.67
365.282	7.91
365.491	8.09
365.7	7.89
365.909	8.22
366.118	8.79
366.327	7.89
366.536	8.82
366.745	7.84
366.954	7.85
367.162	7.41
367.371	7.81
367.58	8.24
367.789	7.82
367.998	8.09
368.207	7.45
368.415	7.71
368.624	7.8
368.833	7.24
369.042	8.25
369.25	7.8
369.459	7.99
369.668	6.76
369.877	7.15
370.085	7.16
370.294	6.83
370.503	6.66
370.711	5.83
370.92	6.12
371.129	6.18
371.337	5.2
371.546	5.37
371.754	5.61
371.963	5.84
372.171	5.58
372.38	5.6
372.589	5.16
372.797	5.45
373.006	6.26
373.214	7.27
373.423	5.91
373.631	5.93
373.84	5.38
374.048	5.39
374.256	5.73
374.465	5.83
374.673	6.48
374.882	7.01
375.09	7.25
375.298	7.46
375.507	6.03
375.715	7.57
375.923	8.05
376.132	8.88
376.34	8.71
376.548	8.64
376.757	9.33
376.965	8.67
377.173	8.23
377.381	7.62
377.59	7.52
377.798	7.74
378.006	7.05
378.214	6.62
378.423	5.61
378.631	5.84
378.839	5.64
379.047	4.06
379.255	3.88
379.463	3.47
379.671	4.59
379.879	5.2
380.088	5.6
380.296	5.61
380.504	6.27
380.712	7.25
380.92	7.77
381.128	7.4
381.336	8.63
381.544	9.26
381.752	10.22
381.96	10.22
382.168	8.39
382.376	8.1
382.584	7.16
382.791	8
382.999	8.01
383.207	7.56
383.415	8.63
383.623	8.87
383.831	8.13
384.039	7.46
384.247	6.81
384.454	7.07
384.662	7.36
384.87	8.89
385.078	7.8
385.285	6.8
385.493	6.27
385.701	5.56
385.909	5.29
386.116	5.21
386.324	5.35
386.532	5.78
386.739	6.11
386.947	6.86
387.155	6.49
387.362	7.48
387.57	8.27
387.778	8.61
387.985	8.53
388.193	8.83
388.4	9.43
388.608	9.86
388.816	9.64
389.023	9.48
389.231	9.11
389.438	8.59
389.646	7.47
389.853	7.83
390.061	7.12
390.268	7.03
390.475	6.37
390.683	6.2
390.89	5.83
391.098	6.34
391.305	7.06
391.512	6.96
391.72	8.07
391.927	7.92
392.135	7.8
392.342	8.74
392.549	8.77
392.756	8.56
392.964	8.18
393.171	8.39
393.378	8.18
393.586	7.25
393.793	6.74
394	5.56
394.207	5.79
394.414	5.44
394.622	4.78
394.829	5.19
395.036	6.11
395.243	6.39
395.45	6.08
395.657	6.2
395.864	6.36
396.072	6.06
396.279	6.41
396.486	7.22
396.693	6.75
396.9	6.71
397.107	6.06
397.314	5.84
397.521	5.56
397.728	5.66
397.935	5.59
398.142	6.37
398.349	7.29
398.556	7.6
398.763	6.31
398.97	7.03
399.177	7.51
399.383	7.59
399.59	7.79
399.797	8.93
400.004	9.13
400.211	8.82
400.418	9.21
400.625	9.19
400.831	9.07
401.038	9.08
401.245	8.5
401.452	8.63
401.658	9.33
401.865	8.48
402.072	7.24
402.279	7.1
402.485	6.62
402.692	5.58
402.899	5.62
403.105	5.55
403.312	5.89
403.519	5.51
403.725	4.48
403.932	4.16
404.138	4.67
404.345	4.38
404.552	4.43
404.758	4.83
404.965	5.09
405.171	5.07
405.378	5.15
405.584	5.17
405.791	6.14
405.997	6.27
406.204	6.64
406.41	6.29
406.617	7.25
406.823	7.8
407.029	7.79
407.236	7.79
407.442	7.54
407.649	7.66
407.855	8.01
408.061	7.7
408.268	8.38
408.474	7.37
408.68	6.57
408.887	6.25
409.093	5.96
409.299	5.88
409.505	5.83
409.712	6.19
409.918	6.28
410.124	6
410.33	5.78
410.537	5.73
410.743	6.55
410.949	7.47
411.155	7.84
411.361	7.35
411.567	7.44
411.773	8.06
411.98	7.34
412.186	7.29
412.392	7.58
412.598	8.15
412.804	8.3
413.01	7.79
413.216	7.08
413.422	6.01
413.628	6.93
413.834	6.59
414.04	6.32
414.246	6.38
414.452	6.05
414.658	6.27
414.864	6.09
415.07	5.77
415.275	5.34
415.481	5.7
415.687	6.38
415.893	5.71
416.099	5.89
416.305	5.48
416.511	5.72
416.716	6.05
416.922	5.89
417.128	5.62
417.334	5.61
417.539	6.13
417.745	6.31
417.951	5.71
418.157	5.69
418.362	5.47
418.568	5.07
418.774	4.78
418.979	4.47
419.185	4.39
419.391	4.26
419.596	4.18
419.802	4.34
420.008	4.06
420.213	4.54
420.419	4.38
420.624	4.36
420.83	4.82
421.035	4.76
421.241	4.86
421.446	4.94
421.652	5.06
421.857	5.02
422.063	4.71
422.268	4.64
422.474	4.69
422.679	4.98
422.885	5.02
423.09	4.87
423.295	5.23
423.501	5.04
423.706	4.82
423.911	4.65
424.117	4.81
424.322	4.49
424.527	4.73
424.733	4.31
424.938	4.17
425.143	4.37
425.349	4.41
425.554	4.21
425.759	4.61
425.964	4.64
426.169	5.22
426.375	5.18
426.58	5.65
426.785	5.26
426.99	5.62
427.195	5.87
427.4	5.82
427.605	5.85
427.811	5.58
428.016	5.14
428.221	5.56
428.426	5.46
428.631	4.87
428.836	4.76
429.041	5.04
429.246	4.42
429.451	4.35
429.656	4.55
429.861	4.59
430.066	4.87
430.271	5.18
430.476	4.75
430.681	4.39
430.886	4.78
431.09	5.16
431.295	5.16
431.5	5.97
431.705	5.99
431.91	5.89
432.115	6.22
432.32	6.17
432.524	6.01
432.729	5.76
432.934	5.62
433.139	5.46
433.343	4.92
433.548	4.81
433.753	4.49
433.958	4.8
434.162	4.74
434.367	4.6
434.572	4.15
434.776	4.1
434.981	4.34
435.186	5.06
435.39	5.27
435.595	5.43
435.799	5.54
436.004	5.45
436.209	5
436.413	5.08
436.618	5.11
436.822	5.41
437.027	5.09
437.231	5.29
437.436	4.59
437.64	4.79
437.845	5.08
438.049	5.35
438.253	5.13
438.458	4.96
438.662	4.61
438.867	4.12
439.071	4.16
439.275	4.55
439.48	4.4
439.684	4.36
439.888	4.43
440.093	4.45
440.297	4.3
440.501	4.42
440.706	4.47
440.91	4.57
441.114	4.84
441.318	4.47
441.523	4.48
441.727	4.36
441.931	4.59
442.135	4.02
442.339	3.7
442.543	3.97
442.748	4.23
442.952	4.57
443.156	4.61
443.36	4.77
443.564	5
443.768	4.59
443.972	4.72
444.176	4.52
444.38	4.76
444.584	4.96
444.788	4.63
444.992	4.61
445.196	4.12
445.4	4.19
445.604	4.04
445.808	4.24
446.012	4.16
446.216	3.96
446.42	4.08
446.624	4.39
446.828	3.92
447.032	3.99
447.235	3.74
447.439	4.23
447.643	4.2
447.847	4.41
448.051	4.42
448.254	4.67
448.458	4.86
448.662	4.88
448.866	4.43
449.069	5.09
449.273	5.08
449.477	5.15
449.681	4.86
449.884	4.92
450.088	4.59
450.292	4.4
450.495	4.48
450.699	4.4
450.902	4.52
451.106	5.01
451.31	4.98
451.513	4.76
451.717	4.6
451.92	4.58
452.124	4.41
452.327	4.68
452.531	4.43
452.734	4.31
452.938	4.72
453.141	4.43
453.345	4.12
453.548	4.1
453.752	4.14
453.955	4.56
454.158	4.34
454.362	4.64
454.565	4.77
454.769	4.91
454.972	4.97
455.175	4.65
455.379	4.68
455.582	4.58
455.785	4.76
455.988	5.12
456.192	4.42
456.395	4.45
456.598	4.36
456.801	4.26
457.005	4.79
457.208	4.61
457.411	4.98
457.614	5.02
457.817	4.68
458.021	4.46
458.224	4.25
458.427	4.22
458.63	4.42
458.833	4.16
459.036	3.92
459.239	3.69
459.442	3.85
459.645	3.61
459.848	3.69
460.051	3.88
460.254	4.02
460.457	4.19
460.66	4.71
460.863	4.63
461.066	4.63
461.269	4.83
461.472	4.84
461.675	4.51
461.878	4.38
462.081	4.14
462.284	4.77
462.486	4.34
462.689	4.11
462.892	4.06
463.095	4.02
463.298	4.3
463.5	4.24
463.703	4.07
463.906	4.27
464.109	4.53
464.311	4.62
464.514	4.11
464.717	4.36
464.92	4.68
465.122	5.07
465.325	4.94
465.528	5.12
465.73	5.18
465.933	4.95
466.135	5.07
466.338	4.92
466.541	5.25
466.743	5.39
466.946	5.33
467.148	5.16
467.351	4.7
467.553	4.95
467.756	4.68
467.958	4.92
468.161	4.9
468.363	4.89
468.566	4.73
468.768	4.45
468.971	4.26
469.173	4.51
469.375	4.6
469.578	4.7
469.78	4.62
469.983	4.77
470.185	4.49
470.387	4.8
470.59	4.79
470.792	5.2
470.994	5.17
471.196	5.09
471.399	4.66
471.601	4.5
471.803	4.61
472.005	4.72
472.208	5
472.41	4.73
472.612	4.93
472.814	5.15
473.016	5.18
473.218	5.65
473.421	5.77
473.623	6.05
473.825	6.5
474.027	6.29
474.229	6.47
474.431	6.11
474.633	6.34
474.835	6.23
475.037	5.92
475.239	5.79
475.441	5.37
475.643	5.42
475.845	4.96
476.047	4.44
476.249	4.71
476.451	4.34
476.653	4.38
476.855	4.25
477.057	4.4
477.258	4.64
477.46	4.52
477.662	4.42
477.864	4.2
478.066	4.48
478.268	4.21
478.469	4.19
478.671	4.29
478.873	4.27
479.075	4.39
479.276	4.15
479.478	3.73
479.68	3.72
479.882	3.81
480.083	4.12
480.285	4.05
480.487	4.18
480.688	4
480.89	4.1
481.091	3.98
481.293	3.79
481.495	3.81
481.696	3.98
481.898	3.95
482.099	3.92
482.301	3.9
482.502	3.92
482.704	3.94
482.905	3.91
483.107	3.8
483.308	3.82
483.51	3.86
483.711	3.89
483.913	3.83
484.114	3.96
484.315	4.07
484.517	3.96
484.718	3.99
484.92	3.99
485.121	4.01
485.322	4.03
485.524	4.15
485.725	4.2
485.926	4.18
486.127	4.21
486.329	3.93
486.53	3.92
486.731	4
486.932	4.02
487.134	4.09
487.335	4.11
487.536	4.15
487.737	4.03
487.938	3.98
488.139	3.89
488.341	3.89
488.542	3.85
488.743	3.66
488.944	3.5
489.145	3.54
489.346	3.57
489.547	3.48
489.748	3.36
489.949	3.46
490.15	3.5
490.351	3.73
490.552	3.78
490.753	4.05
490.954	4.11
491.155	4.27
491.356	4.13
491.557	4.1
491.758	4.27
491.959	4.29
492.159	4.37
492.36	4.48
492.561	4.35
492.762	4.59
492.963	4.54
493.164	4.76
493.364	4.72
493.565	4.87
493.766	5.19
493.967	5.22
494.167	5.41
494.368	5.36
494.569	5.24
494.769	5.48
494.97	5.23
495.171	5.29
495.371	5.17
495.572	5.17
495.773	4.96
495.973	4.91
496.174	4.63
496.375	4.79
496.575	4.76
496.776	4.79
496.976	4.69
497.177	4.78
497.377	4.42
497.578	4.29
497.778	4.39
497.979	4.85
498.179	4.65
498.38	4.93
498.58	4.84
498.78	4.69
498.981	4.8
499.181	4.63
499.382	4.58
499.582	4.81
499.782	4.74
499.983	4.79
500.183	4.55
500.383	4.54
500.584	4.36
500.784	4.71
500.984	5.14
501.184	5.16
501.385	5.23
501.585	5.44
501.785	5.74
501.985	6
502.185	6.19
502.386	6.28
502.586	6.61
502.786	6.31
502.986	5.99
503.186	6.05
503.386	6.22
503.586	6.12
503.786	5.68
503.987	5.47
504.187	5.38
504.387	5.22
504.587	5.24
504.787	5.26
504.987	5.72
505.187	5.71
505.387	5.55
505.587	5.29
505.786	5.44
505.986	5.64
506.186	5.91
506.386	5.74
506.586	5.95
506.786	5.59
506.986	5.61
507.186	5.6
507.386	5.72
507.585	5.46
507.785	5.84
507.985	6
508.185	5.98
508.384	5.87
508.584	6.17
508.784	6.21
508.984	6.4
509.183	6.06
509.383	6.17
509.583	6.19
509.782	6.32
509.982	5.7
510.182	5.41
510.381	5.35
510.581	5.59
510.781	5.39
510.98	4.81
511.18	4.92
511.379	4.91
511.579	4.56
511.778	4.36
511.978	4.45
512.177	4.88
512.377	5.02
512.576	5.14
512.776	5.23
512.975	5.5
513.175	5.78
513.374	5.58
513.573	5.77
513.773	6.24
513.972	6.74
514.172	7.13
514.371	7.28
514.57	7.38
514.77	7.53
514.969	7.26
515.168	7.56
515.367	7.63
515.567	7.74
515.766	7.88
515.965	8.04
516.164	7.9
516.364	7.53
516.563	7.39
516.762	7.13
516.961	7.09
517.16	7.11
517.359	6.93
517.559	7.11
517.758	7.19
517.957	6.97
518.156	6.82
518.355	6.88
518.554	7.15
518.753	7.27
518.952	7.57
519.151	7.74
519.35	7.85
519.549	7.72
519.748	7.56
519.947	7.67
520.146	7.74
520.345	7.83
520.544	7.74
520.743	7.38
520.942	7.69
521.141	7.74
521.339	7.72
521.538	7.77
521.737	8.1
521.936	7.96
522.135	8.07
522.333	8.28
522.532	7.87
522.731	7.9
522.93	8.11
523.129	7.66
523.327	7.58
523.526	7.75
523.725	7.86
523.923	7.82
524.122	7.99
524.321	7.78
524.519	7.78
524.718	7.99
524.917	7.9
525.115	7.89
525.314	8.05
525.512	8.2
525.711	8.07
525.909	8.01
526.108	7.99
526.306	7.93
526.505	8.15
526.703	8.15
526.902	8.24
527.1	8.3
527.299	8.25
527.497	8.18
527.696	8.18
527.894	8.22
528.092	8.29
528.291	8.32
528.489	8.38
528.688	8.56
528.886	8.65
529.084	8.72
529.283	8.82
529.481	8.95
529.679	9.14
529.877	9.11
530.076	9.28
530.274	9.34
530.472	9.27
530.67	9.43
530.869	9.06
531.067	8.88
531.265	8.96
531.463	8.91
531.661	9.1
531.859	9.06
532.057	9.09
532.255	9.06
532.454	8.88
532.652	9
532.85	9.12
533.048	9.17
533.246	9.41
533.444	9.5
533.642	9.67
533.84	9.69
534.038	9.68
534.236	9.87
534.434	9.97
534.632	10.27
534.83	10.31
535.027	10.14
535.225	10.29
535.423	10.29
535.621	10.18
535.819	10.23
536.017	9.93
536.215	10.15
536.412	10.06
536.61	9.94
536.808	9.91
537.006	9.92
537.203	10.22
537.401	10.36
537.599	10.66
537.797	10.63
537.994	10.57
538.192	10.94
538.39	11.07
538.587	11.23
538.785	11.17
538.983	11.14
539.18	11.26
539.378	11.02
539.575	10.89
539.773	10.7
539.97	10.97
540.168	10.89
540.366	10.92
540.563	10.64
540.761	10.73
540.958	10.77
541.155	10.82
541.353	10.79
541.55	10.83
541.748	11.05
541.945	11.03
542.143	10.94
542.34	11.18
542.537	11.24
542.735	11.4
542.932	11.29
543.129	11.44
543.327	11.41
543.524	11.22
543.721	11.39
543.919	11.18
544.116	11.24
544.313	11.2
544.51	11.17
544.708	11.03
544.905	11.26
545.102	11.57
545.299	11.71
545.496	11.7
545.693	12.2
545.891	12.02
546.088	12.09
546.285	12.06
546.482	12.24
546.679	12.27
546.876	12.81
547.073	12.92
547.27	12.66
547.467	12.77
547.664	13.33
547.861	13.19
548.058	13.31
548.255	13.54
548.452	13.96
548.649	14.24
548.846	13.97
549.043	13.21
549.24	13.28
549.437	13.43
549.633	13.02
549.83	12.94
550.027	12.9
550.224	13.47
550.421	14.01
550.618	13.77
550.814	13.3
551.011	13.77
551.208	14.01
551.405	14.15
551.601	14.65
551.798	14.88
551.995	14.87
552.191	15.33
552.388	15.19
552.585	14.71
552.781	15.11
552.978	15.4
553.175	15.53
553.371	15.76
553.568	15.76
553.764	15.05
553.961	15.31
554.157	15.23
554.354	15.21
554.55	15.21
554.747	15.22
554.943	15.22
555.14	14.75
555.336	14.59
555.533	15.15
555.729	15.16
555.926	15.76
556.122	15.87
556.318	16.1
556.515	15.79
556.711	15.68
556.907	15.77
557.104	16
557.3	16.4
557.496	16.53
557.693	16.15
557.889	16.33
558.085	16.27
558.281	16.24
558.478	16.64
558.674	17.2
558.87	17.6
559.066	17.92
559.262	18.18
559.459	18.51
559.655	19.02
559.851	19.37
560.047	19.54
560.243	19.47
560.439	19.75
560.635	19.15
560.831	18.98
561.027	18.79
561.223	18.8
561.419	18.45
561.615	18.41
561.811	18.35
562.007	18.09
562.203	18
562.399	18.04
562.595	17.81
562.791	18.18
562.987	18.07
563.183	18.23
563.379	18.21
563.575	18.3
563.771	18.63
563.966	18.24
564.162	18.3
564.358	18.59
564.554	19.18
564.75	19.18
564.945	19.64
565.141	19.84
565.337	20.13
565.533	20.33
565.728	20.7
565.924	20.54
566.12	20.8
566.315	20.91
566.511	20.79
566.707	20.56
566.902	21.21
567.098	21.25
567.293	21.27
567.489	21.01
567.684	20.89
567.88	20.87
568.076	20.69
568.271	20.76
568.467	21.07
568.662	21.44
568.858	21.51
569.053	20.95
569.248	20.79
569.444	21.32
569.639	21.3
569.835	21.47
570.03	21.55
570.225	21.93
570.421	22.02
570.616	21.92
570.812	21.88
571.007	22.15
571.202	22.39
571.397	22.54
571.593	22.34
571.788	22.64
571.983	22.9
572.178	22.71
572.374	22.86
572.569	23.25
572.764	23.21
572.959	23.52
573.154	23.42
573.35	23.47
573.545	23.47
573.74	23.53
573.935	23.88
574.13	23.88
574.325	23.94
574.52	24.24
574.715	24.5
574.91	24.79
575.105	24.46
575.3	24.73
575.495	24.81
575.69	24.71
575.885	24.81
576.08	24.78
576.275	24.45
576.47	25.11
576.665	24.76
576.86	23.88
577.055	24.07
577.25	24.45
577.444	24.49
577.639	24.73
577.834	25.16
578.029	26
578.224	26.03
578.418	26.48
578.613	26.44
578.808	26.36
579.003	26.98
579.197	26.47
579.392	26.64
579.587	26.51
579.781	26.28
579.976	26.54
580.171	26.17
580.365	26.16
580.56	26.54
580.755	26.67
580.949	27.41
581.144	27.68
581.338	27.91
581.533	27.48
581.727	27.6
581.922	27.89
582.116	27.66
582.311	26.93
582.505	27.08
582.7	27.16
582.894	26.84
583.089	26.81
583.283	26.62
583.478	27
583.672	27.56
583.866	27.94
584.061	27.97
584.255	28.28
584.449	28.86
584.644	28.9
584.838	29.17
585.032	28.86
585.226	28.67
585.421	29.03
585.615	28.74
585.809	28.65
586.003	28.98
586.198	29.32
586.392	29.28
586.586	29.5
586.78	29.03
586.974	29.09
587.168	29.52
587.363	29.69
587.557	29.24
587.751	29.81
587.945	29.32
588.139	28.62
588.333	28.47
588.527	28.73
588.721	28.41
588.915	28.66
589.109	28.44
589.303	28.6
589.497	28.39
589.691	28.81
589.885	28.56
590.079	29.33
590.273	29.64
590.466	29.68
590.66	29.49
590.854	29.62
591.048	30.06
591.242	30.32
591.436	30.2
591.629	30.24
591.823	29.86
592.017	29.79
592.211	29.79
592.404	29.96
592.598	30.08
592.792	29.91
592.986	30.26
593.179	30.09
593.373	30.07
593.567	30.03
593.76	30.38
593.954	30.46
594.147	30.62
594.341	30.22
594.535	30.2
594.728	30.36
594.922	30.31
595.115	30.07
595.309	29.76
595.502	29.86
595.696	29.57
595.889	29.37
596.083	29.83
596.276	29.98
596.47	29.99
596.663	29.95
596.856	29.95
597.05	30.15
597.243	30.43
597.437	30.86
597.63	30.93
597.823	31.58
598.017	31.89
598.21	31.88
598.403	32.07
598.596	32.28
598.79	32.51
598.983	32.42
599.176	32.26
599.369	32.16
599.563	32.8
599.756	32.88
599.949	32.94
600.142	32.94
600.335	33.18
600.528	32.7
600.722	33.12
600.915	33.18
601.108	33.22
601.301	32.8
601.494	33.1
601.687	32.11
601.88	31.08
602.073	31.24
602.266	31.2
602.459	30.5
602.652	30.65
602.845	30.44
603.038	30.58
603.231	30.36
603.424	30.91
603.617	30.99
603.809	31.33
604.002	32.08
604.195	31.74
604.388	31.66
604.581	32.02
604.774	32.66
604.966	32.63
605.159	32.54
605.352	33.09
605.545	33.6
605.737	33.62
605.93	34.2
606.123	33.89
606.316	33.84
606.508	34.23
606.701	34.28
606.894	33.73
607.086	34.52
607.279	34.64
607.471	34.21
607.664	34.01
607.857	33.76
608.049	33.43
608.242	33.53
608.434	34.05
608.627	34.08
608.819	34.06
609.012	33.99
609.204	33.63
609.397	33.45
609.589	33.53
609.782	33.1
609.974	33.16
610.166	33.17
610.359	33.65
610.551	34.04
610.743	33.94
610.936	34.16
611.128	34.67
611.32	34.37
611.513	34.93
611.705	35.79
611.897	35.95
612.09	36.44
612.282	36.78
612.474	36.55
612.666	36.03
612.858	36.42
613.051	35.81
613.243	35.58
613.435	35.96
613.627	35.11
613.819	34.33
614.011	34.39
614.203	34.29
614.395	34.49
614.588	35.06
614.78	35.88
614.972	36
615.164	36.78
615.356	36.55
615.548	36.79
615.74	37.58
615.932	37.92
616.124	38.01
616.315	37.56
616.507	37.01
616.699	36.4
616.891	35.77
617.083	35.03
617.275	35.12
617.467	35.18
617.659	35.32
617.85	35.15
618.042	34.79
618.234	34.41
618.426	34.28
618.618	35.02
618.809	35.2
619.001	34.89
619.193	35.27
619.384	35.38
619.576	35.75
619.768	35.32
619.959	35.26
620.151	35.98
620.343	36.95
620.534	36.66
620.726	36.23
620.917	36.84
621.109	37.7
621.301	37.98
621.492	38.11
621.684	38.26
621.875	38.2
622.067	38.11
622.258	37.43
622.45	37.92
622.641	38.76
622.832	38.76
623.024	37.85
623.215	37.18
623.407	37.27
623.598	37.02
623.789	37.14
623.981	37.07
624.172	37.5
624.363	37.79
624.555	36.9
624.746	36.51
624.937	37.15
625.129	37.14
625.32	37.39
625.511	37.35
625.702	37.4
625.893	37.06
626.085	37.29
626.276	36.55
626.467	36.99
626.658	37.07
626.849	37.69
627.04	37.41
627.231	37.9
627.422	38.38
627.614	38.84
627.805	39.24
627.996	39.56
628.187	39.13
628.378	40.39
628.569	39.79
628.76	39.8
628.951	39.55
629.142	39.58
629.332	39.89
629.523	38.88
629.714	38.05
629.905	37.57
630.096	37.44
630.287	38.6
630.478	38.27
630.669	38.83
630.859	38.98
631.05	39.04
631.241	38.64
631.432	38.45
631.623	39.01
631.813	39.52
632.004	39.77
632.195	40.15
632.385	39.27
632.576	39.05
632.767	38.42
632.957	38.96
633.148	38.64
633.339	38.41
633.529	37.98
633.72	38.06
633.91	37.69
634.101	37.48
634.292	37.85
634.482	37.93
634.673	38.62
634.863	39.39
635.054	38.9
635.244	39.78
635.435	40.13
635.625	40.96
635.815	41.13
636.006	41.32
636.196	41.93
636.387	41.61
636.577	41.89
636.767	41.24
636.958	41.19
637.148	41.41
637.338	40.72
637.529	40.43
637.719	40.57
637.909	40.71
638.099	41.12
638.29	40.78
638.48	40.81
638.67	40.88
638.86	41.17
639.05	41.03
639.241	42.01
639.431	42.73
639.621	43.35
639.811	43.65
640.001	43.57
640.191	43.73
640.381	44.18
640.571	43.83
640.761	44.46
640.951	43.81
641.141	43.67
641.331	42.76
641.521	42.42
641.711	42.52
641.901	42.55
642.091	42.5
642.281	42.24
642.471	41.32
642.661	41.18
642.851	40.82
643.041	41.95
643.231	42.63
643.42	42.63
643.61	42.79
643.8	42.68
643.99	42
644.18	41.24
644.369	41.49
644.559	42.55
644.749	43.33
644.939	43.55
645.128	43.3
645.318	42.49
645.508	42.27
645.697	42.48
645.887	43.09
646.076	43.12
646.266	43.88
646.456	43.65
646.645	43.42
646.835	43.17
647.024	43.18
647.214	43.13
647.403	43.49
647.593	44.39
647.782	43.33
647.972	43.11
648.161	43.15
648.351	42.72
648.54	42.8
648.73	42.98
648.919	42.45
649.108	42.74
649.298	42.49
649.487	42.52
649.677	42
649.866	43.2
650.055	42.08
650.244	41.39
650.434	41.57
650.623	41.62
650.812	41.75
651.002	42.15
651.191	41.45
651.38	41.87
651.569	42.43
651.758	42.29
651.947	41.75
652.137	42.55
652.326	43.1
652.515	43.57
652.704	43.56
652.893	43.49
653.082	43.96
653.271	44.71
653.46	44.24
653.649	44.51
653.838	44.85
654.027	44.74
654.216	45.54
654.405	45.97
654.594	45.77
654.783	45.94
654.972	45.61
655.161	45.82
655.35	45.76
655.539	46.21
655.728	45.11
655.916	44.61
656.105	44.61
656.294	45.14
656.483	44.92
656.672	44.53
656.86	44.32
657.049	44.45
657.238	43.32
657.427	43.2
657.615	42.2
657.804	42.22
657.993	42.44
658.181	42.23
658.37	40.7
658.559	40.55
658.747	41.25
658.936	40.92
659.125	39.87
659.313	40.91
659.502	40.42
659.69	41.8
659.879	41.38
660.067	42.13
660.256	42.64
660.444	43.42
660.633	43.24
660.821	42.12
661.01	42.66
661.198	44.19
661.387	44.05
661.575	45.3
661.763	43.98
661.952	45.03
662.14	44.71
662.328	44.75
662.517	44.81
662.705	45.28
662.893	46.2
663.082	46.29
663.27	46.16
663.458	46.62
663.646	46.72
663.834	48.12
664.023	48.76
664.211	48.74
664.399	48.85
664.587	49.66
664.775	50.24
664.963	50.98
665.152	51.22
665.34	51.66
665.528	51.52
665.716	51.29
665.904	50.38
666.092	49.56
666.28	48.89
666.468	48.48
666.656	47.07
666.844	46.38
667.032	45.94
667.22	46
667.408	45.47
667.596	45.38
667.784	44.81
667.971	45.65
668.159	46.51
668.347	47.46
668.535	47.3
668.723	48.18
668.911	48.56
669.098	49.16
669.286	48.64
669.474	48.09
669.662	48.49
669.849	48.79
670.037	48.96
670.225	48.9
670.413	49.14
670.6	50
670.788	49.5
670.976	49.76
671.163	49.47
671.351	49.56
671.538	51.19
671.726	50.48
671.913	50.42
672.101	49.23
672.289	49.09
672.476	48.95
672.664	49.76
672.851	50.32
673.039	49.67
673.226	49.18
673.413	49.91
673.601	48.42
673.788	48.53
673.976	48.26
674.163	49.71
674.35	50.08
674.538	49.6
674.725	49.59
674.912	49.96
675.1	50.07
675.287	49.76
675.474	49.06
675.662	49.93
675.849	49.89
676.036	50.58
676.223	49.5
676.411	48.73
676.598	48.33
676.785	47.44
676.972	47.42
677.159	47.09
677.346	47.06
677.533	46.61
677.721	46.07
677.908	45.78
678.095	45.33
678.282	45.89
678.469	46.56
678.656	47.18
678.843	45.37
679.03	44.76
679.217	45.43
679.404	46.35
679.591	47.36
679.778	47.58
679.964	47
680.151	47.28
680.338	47.34
680.525	46.72
680.712	46.18
680.899	48.5
681.086	49.19
681.272	49.17
681.459	48.4
681.646	48.62
681.833	49.07
682.02	50.12
682.206	50.35
682.393	51.07
682.58	51.14
682.766	51.5
682.953	50.13
683.14	50.03
683.326	49.19
683.513	49.13
683.7	49.09
683.886	48.23
684.073	47.98
684.259	47.44
684.446	47.62
684.632	48.31
684.819	48.19
685.005	48.36
685.192	48.22
685.378	49.12
685.565	50
685.751	49.33
685.938	50.32
686.124	50
686.31	50.93
686.497	50.77
686.683	50.92
686.87	51.54
687.056	52.9
687.242	53.42
687.429	53.78
687.615	53.43
687.801	53.91
687.987	54.05
688.174	54.78
688.36	54.76
688.546	53.15
688.732	52.53
688.918	51.63
689.105	50.61
689.291	50.42
689.477	49.81
689.663	50.41
689.849	50.5
690.035	49.94
690.221	50.38
690.407	49.56
690.593	50.48
690.779	50.58
690.965	50.75
691.151	51.25
691.337	50.53
691.523	50.93
691.709	50.29
691.895	50
692.081	50.16
692.267	50.24
692.453	50.74
692.639	52.17
692.825	53.38
693.011	54.75
693.196	54.85
693.382	56.16
693.568	57.05
693.754	57.38
693.94	56.95
694.125	56.85
694.311	57.29
694.497	56.4
694.682	55.26
694.868	54.17
695.054	52.67
695.239	52.26
695.425	50.73
695.611	50.5
695.796	49.45
695.982	48.86
696.168	48.24
696.353	47.74
696.539	47.56
696.724	47.58
696.91	47.4
697.095	47.37
697.281	47.45
697.466	47.53
697.652	45.61
697.837	45.87
698.023	46.11
698.208	46.16
698.393	45.43
698.579	46.15
698.764	45.77
698.949	45.44
699.135	46.37
699.32	45.84
699.505	46.47
699.691	47.39
699.876	47.76
700.061	48.28
700.246	49.19
700.432	50.65
700.617	50.58
700.802	51.68
700.987	52.93
701.172	52.78
701.358	53.38
701.543	54.11
701.728	55.25
701.913	54.98
702.098	56.39
702.283	56.7
702.468	55.55
702.653	54.73
702.838	54.63
703.023	56.45
703.208	56.35
703.393	57.39
703.578	57.74
703.763	57.46
703.948	58.27
704.133	57.34
704.318	57.49
704.503	58.68
704.688	59.98
704.873	58.82
705.057	56.02
705.242	55.35
705.427	53.99
705.612	52.41
705.797	52.01
705.981	52.15
706.166	51.61
706.351	51.18
706.536	50.36
706.72	51.02
706.905	51.58
707.09	52.94
707.274	53.74
707.459	54.87
707.644	56.07
707.828	56.65
708.013	56.08
708.197	57.18
708.382	56.45
708.567	55.77
708.751	54.17
708.936	54.64
709.12	55.02
709.305	54.76
709.489	55.09
709.673	55.26
709.858	55.34
710.042	56.44
710.227	55.01
710.411	55.64
710.596	55.9
710.78	55.92
710.964	55.32
711.149	55.1
711.333	55.2
711.517	54.05
711.702	54.05
711.886	54.53
712.07	53.46
712.254	54.18
712.438	53.38
712.623	53.51
712.807	53.34
712.991	53.29
713.175	52.86
713.359	52.75
713.544	53.41
713.728	52.09
713.912	52.28
714.096	52.88
714.28	53.87
714.464	54.74
714.648	54.83
714.832	55.31
715.016	56.16
715.2	55.61
715.384	56.23
715.568	56.51
715.752	56.94
715.936	57.28
716.12	57.06
716.304	55.34
716.488	56.38
716.671	56.26
716.855	57.06
717.039	55.64
717.223	55.24
717.407	54.96
717.59	54.81
717.774	55.78
717.958	56.07
718.142	54.98
718.325	57.62
718.509	57.13
718.693	57.43
718.877	57.13
719.06	58.38
719.244	58.45
719.428	58.52
719.611	57.85
719.795	58.19
719.978	57.27
720.162	59.93
720.345	57.93
720.529	57.79
720.713	58.55
720.896	58.5
721.08	59.64
721.263	60.32
721.446	61.04
721.63	61.98
721.813	61.53
721.997	61.84
722.18	61
722.364	62.22
722.547	60.43
722.73	59.77
722.914	60.54
723.097	59.54
723.28	61.12
723.464	59.89
723.647	59.07
723.83	59.04
724.013	59.35
724.197	57.21
724.38	56.75
724.563	57.73
724.746	58.27
724.929	56.98
725.112	56.95
725.296	56.24
725.479	57.72
725.662	57.56
725.845	56.86
726.028	56.87
726.211	58.62
726.394	59.18
726.577	60.87
726.76	60.73
726.943	59.24
727.126	59.35
727.309	58.63
727.492	57.16
727.675	57.9
727.858	58.55
728.041	58.67
728.224	59.48
728.407	59.53
728.589	58.32
728.772	59.44
728.955	62.01
729.138	60.6
729.321	60.31
729.503	62.89
729.686	62.8
729.869	62.23
730.052	61.33
730.234	60.18
730.417	59.61
730.6	59.02
730.782	58.7
730.965	57.9
731.148	60.78
731.33	61.14
731.513	59.07
731.695	59.9
731.878	60.12
732.061	59.61
732.243	60.6
732.426	61.07
732.608	60.98
732.791	60.11
732.973	59.57
733.156	57.75
733.338	57.37
733.52	56.39
733.703	55.54
733.885	55.6
734.068	56.92
734.25	56.45
734.432	57.59
734.615	58.8
734.797	59.23
734.979	60.69
735.162	61.14
735.344	61.19
735.526	62.52
735.708	62.53
735.891	62.51
736.073	61.74
736.255	62.19
736.437	60.2
736.619	61.08
736.802	60.98
736.984	58.8
737.166	57.98
737.348	58.71
737.53	57.97
737.712	58.25
737.894	59.17
738.076	60.56
738.258	59.32
738.44	60.39
738.622	59.56
738.804	60.15
738.986	60.87
739.168	62.13
739.35	64.16
739.532	65.07
739.714	65.13
739.896	63.25
740.078	63.23
740.259	65.23
740.441	66.71
740.623	67.94
740.805	66.91
740.987	68.3
741.168	67.3
741.35	66.86
741.532	68.72
741.714	68.04
741.895	69.43
742.077	68.5
742.259	67.16
742.44	65.43
742.622	63.56
742.804	64.2
742.985	63.52
743.167	63.54
743.348	60.85
743.53	58.56
743.711	60.18
743.893	61.92
744.075	62.34
744.256	61.5
744.438	62.07
744.619	64.06
744.8	63.02
744.982	64.22
745.163	64.8
745.345	66.07
745.526	66.68
745.707	64.4
745.889	64.66
746.07	64.29
746.252	69.69
746.433	67
746.614	66.04
746.795	68.01
746.977	68.4
747.158	67.65
747.339	66.17
747.52	66.5
747.702	68.11
747.883	62.72
748.064	62.28
748.245	58.93
748.426	62.02
748.607	61.03
748.788	58.03
748.97	56.31
749.151	55.45
749.332	58.03
749.513	59.44
749.694	60.43
749.875	65.91
750.056	66.54
750.237	67.78
750.418	66.78
750.599	69.03
750.78	73.12
750.96	73.01
751.141	74.04
751.322	74.33
751.503	71.46
751.684	72.65
751.865	70.71
752.046	69.74
752.226	68.51
752.407	68.49
752.588	67.79
752.769	65.63
752.949	65.89
753.13	67
753.311	63.37
753.492	63.73
753.672	62.5
753.853	62.46
754.034	62.87
754.214	62.76
754.395	64.22
754.575	63.51
754.756	64.14
754.937	66.74
755.117	66.44
755.298	68.81
755.478	68.62
755.659	68.01
755.839	69.18
756.02	69.2
756.2	68.28
756.381	65.31
756.561	65.57
756.741	66.64
756.922	64.99
757.102	64.78
757.283	65.99
757.463	67.51
757.643	65.91
757.823	66.68
758.004	66.44
758.184	66.45
758.364	66.94
758.545	67.92
758.725	67.22
758.905	67.09
759.085	68.24
759.265	67.53
759.446	65
759.626	65.01
759.806	61.92
759.986	61.09
760.166	59.76
760.346	59.06
760.526	57.83
760.706	57.89
760.886	58.54
761.066	58.14
761.246	57.42
761.426	58.22
761.606	58.99
761.786	57.93
761.966	57.93
762.146	59.49
762.326	58.83
762.506	58.41
762.686	59.04
762.866	58.79
763.046	58.81
763.225	58.11
763.405	59.26
763.585	58.39
763.765	59.51
763.945	60.57
764.124	60.32
764.304	61.97
764.484	61.78
764.664	60.86
764.843	60
765.023	59.98
765.203	61.68
765.382	60.61
765.562	62.6
765.741	64.23
765.921	63.61
766.101	65.34
766.28	65.8
766.46	65.57
766.639	68.73
766.819	68.37
766.998	67.24
767.178	67.77
767.357	69.28
767.537	69.94
767.716	68.24
767.896	70.49
768.075	69.98
768.254	68.02
768.434	68.1
768.613	64.81
768.792	67.17
768.972	69.2
769.151	68.22
769.33	67.74
769.51	68.02
769.689	69.28
769.868	67.97
770.047	65.57
770.226	68.19
770.406	70.71
770.585	72.73
770.764	74.06
770.943	72.7
771.122	72.18
771.301	72.46
771.48	72.82
771.66	71.51
771.839	70.23
772.018	71.79
772.197	71.56
772.376	72.96
772.555	72.21
772.734	70.54
772.913	72.43
773.092	73.13
773.271	71.35
773.449	70.54
773.628	70.85
773.807	74.27
773.986	75.73
774.165	77.18
774.344	75.32
774.523	77.63
774.701	78.28
774.88	78.38
775.059	79.74
775.238	82.31
775.417	83.43
775.595	87.26
775.774	85.16
775.953	86.2
776.131	81.92
776.31	84.44
776.489	83.82
776.667	83.69
776.846	84.74
777.025	85.25
777.203	83.41
777.382	83.11
777.56	81.82
777.739	82.59
777.917	85.38
778.096	91.55
778.274	85.87
778.453	83.52
778.631	82.86
778.81	80.97
778.988	79.23
779.166	80.21
779.345	78.82
779.523	78.29
779.702	79.24
779.88	76.77
780.058	74.22
780.237	77.86
780.415	76.55
780.593	76.26
780.771	79.07
780.95	80.01
781.128	82.33
781.306	80.01
781.484	81.53
781.662	82.03
781.841	80.98
782.019	82
782.197	81.4
782.375	84.44
782.553	89.01
782.731	83.35
782.909	85.2
783.087	81.53
783.265	78.98
783.443	80.37
783.621	78.62
783.799	82.46
783.977	78.82
784.155	80.52
784.333	79.36
784.511	74.59
784.689	76.86
784.867	72.9
785.045	74.28
785.223	78.2
785.4	76.01
785.578	79.07
785.756	77.35
785.934	78.3
786.112	77
786.289	76.89
786.467	78.59
786.645	73.98
786.823	76.82
787	76.72
787.178	75.58
787.356	73.25
787.533	70.57
787.711	69.32
787.889	74.13
788.066	74.55
788.244	75.48
788.421	74.62
788.599	78.68
788.776	78.87
788.954	77.45
789.131	81.86
789.309	82.62
789.486	80.75
789.664	81.71
789.841	77.48
790.019	74.46
790.196	73.1
790.373	75.78
790.551	72.58
790.728	69.85
790.906	71.35
791.083	69.51
791.26	69.76
791.437	73.47
791.615	73.11
791.792	73.78
791.969	75.9
792.146	78.12
792.324	80.01
792.501	84.85
792.678	85.16
792.855	87.09
793.032	83.2
793.209	80.85
793.387	81.33
793.564	82.37
793.741	78.33
793.918	79.32
794.095	76.91
794.272	73.22
794.449	71.48
794.626	73.54
794.803	72.76
794.98	76.5
795.157	78.96
795.334	77.3
795.511	75.91
795.688	79.73
795.864	78.36
796.041	81.47
796.218	83.31
796.395	79.55
796.572	80.97
796.749	83.58
796.925	81.86
797.102	81.36
797.279	80.92
797.456	80.87
797.632	81.2
797.809	82.08
797.986	80.52
798.162	76.21
798.339	79.78
798.516	78.62
798.692	76.47
798.869	77.61
799.046	77.19
799.222	78.58
799.399	78.98
799.575	77.7
799.752	77.77
799.928	77.97
800.105	80.13
800.281	77.86
800.458	76.62
800.634	73.2
800.811	72.31
800.987	75.11
801.163	74.26
801.34	74.59
801.516	74.22
801.692	76.32
801.869	72.78
802.045	72.19
802.221	74.08
802.398	75.58
802.574	76.01
802.75	81.86
802.926	83.71
803.103	84.96
803.279	83.58
803.455	85.49
803.631	81.51
803.807	84.54
803.983	86.28
804.16	84.9
804.336	83.09
804.512	88.33
804.688	81.39
804.864	76.16
805.04	76.51
805.216	73.33
805.392	72.47
805.568	70.17
805.744	71.58
805.92	74.52
806.096	76.3
806.272	77.06
806.448	71.49
806.623	77.15
806.799	73.16
806.975	68.15
807.151	69.64
807.327	68.59
807.503	74.34
807.678	75.55
807.854	74.42
808.03	73.92
808.206	75.98
808.381	79.25
808.557	77.33
808.733	79.93
808.908	83.07
809.084	85.27
809.26	90.83
809.435	92.98
809.611	85.15
809.787	86.43
809.962	85.88
810.138	83.75
810.313	83
810.489	77.94
810.664	78.48
810.84	79.32
811.015	80.01
811.191	75.89
811.366	72.89
811.542	78.97
811.717	73.49
811.892	73.62
812.068	74.56
812.243	73.91
812.419	81.14
812.594	80.29
812.769	76.29
812.944	74.5
813.12	73.21
813.295	74.18
813.47	73.21
813.645	75.05
813.821	77.39
813.996	75.41
814.171	78.49
814.346	70.12
814.521	68.48
814.697	72.62
814.872	72.11
815.047	73.49
815.222	73.56
815.397	71.1
815.572	71.55
815.747	68.83
815.922	67.31
816.097	65.95
816.272	72.82
816.447	76.93
816.622	76.91
816.797	77.44
816.972	76.78
817.147	76.11
817.322	77.36
817.496	79.21
817.671	81.34
817.846	80.23
818.021	78.47
818.196	75.1
818.371	70.82
818.545	68.97
818.72	68.15
818.895	68.68
819.069	68.5
819.244	68.04
819.419	64.35
819.594	60.51
819.768	61.58
819.943	58.54
820.117	55.42
820.292	54.49
820.467	53.45
820.641	51.01
820.816	48.39
820.99	46.15
821.165	44.48
821.339	43.25
821.514	42.74
821.688	40.92
821.863	40.84
822.037	40.51
822.212	40.61
822.386	39.95
822.56	40.55
822.735	40.66
822.909	41.64
823.084	42.23
823.258	42.33
823.432	42.39
823.606	43.09
823.781	42.96
823.955	43.43
824.129	43.31
824.303	43.92
824.478	44.22
824.652	44.69
824.826	44.03
825	43.38
825.174	44.23
825.348	43.83
825.523	44.74
825.697	45.89
825.871	45.67
826.045	45.41
826.219	45.13
826.393	43.85
826.567	43.5
826.741	43.42
826.915	45.02
827.089	47.01
827.263	47.84
827.437	48.12
827.611	48.54
827.784	49.84
827.958	49.34
828.132	49.63
828.306	49.48
828.48	49.37
828.654	50
828.827	50.4
829.001	49.32
829.175	50.9
829.349	49.66
829.522	48.1
829.696	50.66
829.87	53.35
830.044	52.66
830.217	53.17
830.391	56.66
830.565	56.4
830.738	57.27
830.912	59.38
831.085	56.45
831.259	57.73
831.432	57.74
831.606	53.55
831.779	51.26
831.953	52.92
832.126	56.55
832.3	53.37
832.473	53.77
832.647	50.55
832.82	49.1
832.994	51.92
833.167	52.95
833.34	54.06
833.514	54.2
833.687	55.65
833.86	54.43
834.034	53.28
834.207	55.88
834.38	55.97
834.553	57.46
834.727	59.56
834.9	58.58
835.073	56.97
835.246	55.25
835.419	55.6
835.593	56.64
835.766	58.45
835.939	56.31
836.112	54.94
836.285	52.77
836.458	50.81
836.631	46.82
836.804	47.91
836.977	49.26
837.15	49.55
837.323	52.49
837.496	53.74
837.669	52.42
837.842	56.24
838.015	59
838.188	60.42
838.361	65.05
838.533	63.07
838.706	57.9
838.879	61.19
839.052	68.43
839.225	65.82
839.398	62.42
839.57	61.27
839.743	63.38
839.916	63.33
840.088	63.1
840.261	62.26
840.434	65.2
840.607	68.64
840.779	66.68
840.952	61.62
841.124	67.54
841.297	68.83
841.47	73.66
841.642	74.78
841.815	75.89
841.987	77.72
842.16	80.54
842.332	84.52
842.505	81.36
842.677	84.68
842.85	92.67
843.022	84.36
843.194	83.44
843.367	84.84
843.539	87.75
843.712	91.83
843.884	94.27
844.056	90.86
844.229	93.41
844.401	102.16
844.573	101.8
844.745	97.06
844.918	98.61
845.09	102.94
845.262	103.23
845.434	103
845.606	94.03
845.779	100.18
845.951	108.46
846.123	96.82
846.295	88.97
846.467	91.37
846.639	81.8
846.811	81.32
846.983	81.05
847.155	78.4
847.327	75.7
847.499	81.89
847.671	77.09
847.843	67.72
848.015	69.68
848.187	68.63
848.359	66.9
848.531	74.54
848.703	77.63
848.875	80.74
849.047	86.51
849.218	85.61
849.39	82.39
849.562	84.75
849.734	88.93
849.905	97.79
850.077	99.81
850.249	104.68
850.421	104.46
850.592	95.95
850.764	94.11
850.936	79
851.107	88.42
851.279	79.49
851.451	77.18
851.622	83.09
851.794	85.91
851.965	90.02
852.137	84.38
852.308	88.44
852.48	99.15
852.651	99.33
852.823	114.21
852.994	99.44
853.166	99.74
853.337	96.03
853.509	80.68
853.68	82.44
853.851	71.65
854.023	80.25
854.194	72.61
854.365	57.35
854.537	53.56
854.708	55.44
854.879	68.31
855.05	84.78
855.222	100.47
855.393	105.36
855.564	89.58
855.735	101.13
855.906	98.53
856.078	108.13
856.249	123.98
856.42	133.63
856.591	137.39
856.762	126.12
856.933	126.43
857.104	119.51
857.275	124.66
857.446	132.04
857.617	124.94
857.788	117.19
857.959	107.36
858.13	103.56
858.301	89.26
858.472	74
858.643	82.97
858.814	82.42
858.985	79.15
859.155	76.41
859.326	80.4
859.497	69
859.668	68.99
859.839	71.62
860.009	77.36
860.18	86.68
860.351	100.36
860.522	93
860.692	92.29
860.863	93.5
861.034	96.51
861.204	100.69
861.375	108.62
861.546	121.7
861.716	118.15
861.887	122.06
862.057	116.83
862.228	121.21
862.398	108.48
862.569	98.98
862.739	98.9
862.91	102.7
863.08	90.06
863.251	91.14
863.421	85.27
863.592	95.67
863.762	84.06
863.932	83.07
864.103	80.88
864.273	83.94
864.443	76.35
864.614	74.77
864.784	71.67
864.954	75.05
865.125	69.35
865.295	62.68
865.465	65.3
865.635	73.38
865.805	67.15
865.976	68.14
866.146	70.46
866.316	78.45
866.486	84.22
866.656	80.65
866.826	90.11
866.996	85.45
867.166	94.43
867.336	88.91
867.506	83.9
867.676	86.64
867.846	81.96
868.016	84.85
868.186	78.9
868.356	71.32
868.526	85.27
868.696	75.84
868.866	84.18
869.036	94.86
869.206	86.14
869.376	87.74
869.545	98.61
869.715	110.53
869.885	111.53
870.055	122.59
870.224	128.31
870.394	105.94
870.564	104.55
870.734	101.64
870.903	81.71
871.073	89.11
871.243	88.33
871.412	85.54
871.582	85.71
871.751	87.26
871.921	78.49
872.091	67.63
872.26	79.36
872.43	81.37
872.599	82.44
872.769	93.78
872.938	91.3
873.108	96.98
873.277	114.72
873.446	106.84
873.616	94.76
873.785	99.84
873.955	91.02
874.124	83.38
874.293	79.21
874.463	81.1
874.632	67.54
874.801	70.23
874.971	70.7
875.14	57.33
875.309	55.92
875.478	50.71
875.647	61.7
875.817	62.71
875.986	59.78
876.155	59.61
876.324	59.54
876.493	66.76
876.662	60.32
876.831	60.3
877	66.02
877.17	71.82
877.339	80.57
877.508	75.1
877.677	72.5
877.846	71.61
878.015	66.1
878.184	63.49
878.352	59.73
878.521	62.29
878.69	59.61
878.859	55.43
879.028	53.66
879.197	50.67
879.366	52.84
879.534	50.68
879.703	48.89
879.872	51.89
880.041	51.53
880.21	47.65
880.378	46.83
880.547	45.5
880.716	43.69
880.884	44.24
881.053	43.86
881.222	41.3
881.39	42.55
881.559	42.94
881.727	42.73
881.896	42.37
882.065	43.79
882.233	43.92
882.402	43.95
882.57	44.56
882.739	44.13
882.907	43.62
883.076	43.87
883.244	43.73
883.412	45.3
883.581	43.65
883.749	43.48
883.918	44.29
884.086	42.32
884.254	42.44
884.423	46.46
884.591	47.1
884.759	47.25
884.927	49.34
885.096	46.98
885.264	45.18
885.432	46.21
885.6	47.97
885.769	47.17
885.937	54.06
886.105	58.31
886.273	55.04
886.441	55.42
886.609	57.45
886.777	53.84
886.945	56.5
887.113	53.96
887.281	58.7
887.449	58.31
887.617	55.46
887.785	41.06
887.953	42.5
888.121	39.36
888.289	31.18
888.457	34.3
888.625	45.75
888.793	48.03
888.961	56.26
889.129	58.74
889.296	54.89
889.464	56.83
889.632	67.92
889.8	66.9
889.967	64.14
890.135	73.21
