Data from JASIL_2937_Reflection_1.txt Node
Date: Sat Nov 07 21:04:41 EST 2015
User: Geneva
Spectrometer: USB4E03002
Autoset integration time: false
Trigger mode: 4
Integration Time (sec): 1.000000E-1
Scans to average: 10
Electric dark correction enabled: true
Nonlinearity correction enabled: false
Boxcar width: 5
Stray light correction enabled: false
XAxis mode: Wavelengths
Stop averaging: false
Number of Pixels in Spectrum: 3648
>>>>>Begin Spectral Data<<<<<
177.575	356.73
177.794	157.85
178.014	32.78
178.233	24.49
178.452	27.28
178.672	36.61
178.891	87.94
179.11	0
179.33	529.23
179.549	771.28
179.768	74.43
179.987	624.15
180.207	271.03
180.426	126.91
180.645	80.87
180.864	86.57
181.084	86.88
181.303	90.34
181.522	92.24
181.741	91.7
181.96	94.5
182.179	96.87
182.398	94.54
182.618	75.98
182.837	81.64
183.056	91.84
183.275	97.4
183.494	105.48
183.713	109.54
183.932	115.58
184.151	122.07
184.37	92.18
184.589	75.22
184.808	65.54
185.027	67.04
185.246	76.31
185.465	86.52
185.684	87.1
185.903	89.03
186.122	92.46
186.341	103.38
186.56	103.82
186.779	102.87
186.998	101.6
187.216	97.53
187.435	97.99
187.654	81.1
187.873	87.36
188.092	57.46
188.311	57.2
188.53	49.42
188.748	38.42
188.967	27.9
189.186	35.08
189.405	47.8
189.623	47.72
189.842	61.44
190.061	66.67
190.28	52.78
190.498	66.44
190.717	44.71
190.936	45.05
191.154	54.18
191.373	64.69
191.592	70.42
191.81	44.7
192.029	53.87
192.248	52.59
192.466	62.87
192.685	66.11
192.904	65.47
193.122	68.05
193.341	71.73
193.559	53.62
193.778	46.93
193.996	52.71
194.215	60.76
194.433	63.84
194.652	68.12
194.87	72.29
195.089	74.85
195.307	72.73
195.526	73.97
195.744	77.54
195.963	78.57
196.181	85.67
196.399	89.15
196.618	111.45
196.836	99.87
197.055	93.07
197.273	78.96
197.491	74.9
197.71	78.4
197.928	86.36
198.146	71.9
198.365	77.88
198.583	88.55
198.801	78.01
199.019	57.73
199.238	44.71
199.456	41.7
199.674	45.43
199.892	37.45
200.111	5.42
200.329	31.11
200.547	23.3
200.765	25.03
200.983	30.04
201.202	50.26
201.42	57.83
201.638	55.56
201.856	53.69
202.074	58.32
202.292	59.02
202.51	75.87
202.728	71.84
202.946	61.57
203.165	71.31
203.383	71.22
203.601	72.6
203.819	92.74
204.037	103.72
204.255	104.15
204.473	111.42
204.691	98.45
204.909	87.29
205.127	90.38
205.345	97.6
205.562	88.28
205.78	70.07
205.998	65.21
206.216	51.79
206.434	54.01
206.652	53.52
206.87	52.43
207.088	58.59
207.306	68.77
207.523	56.93
207.741	43.26
207.959	51.33
208.177	56.95
208.395	35.41
208.612	36.22
208.83	38.59
209.048	52.07
209.266	59.68
209.483	61
209.701	62.58
209.919	82.02
210.136	90.95
210.354	90.13
210.572	103.3
210.79	112.35
211.007	105.89
211.225	93.6
211.442	86.47
211.66	76.51
211.878	77.28
212.095	104.15
212.313	91.97
212.53	87.7
212.748	84.53
212.966	74.61
213.183	63.03
213.401	64.34
213.618	66.45
213.836	60.16
214.053	61.33
214.271	61.33
214.488	26.04
214.705	28.52
214.923	38.34
215.14	37.51
215.358	45.56
215.575	59.84
215.793	66.14
216.01	54.96
216.227	52.07
216.445	41.5
216.662	36.52
216.879	36.61
217.097	30.83
217.314	20.37
217.531	19.5
217.749	12.38
217.966	9.86
218.183	2.17
218.4	3.64
218.618	3.41
218.835	17.03
219.052	19.9
219.269	21.46
219.487	26.57
219.704	27.26
219.921	28.45
220.138	32.55
220.355	31.49
220.572	32.5
220.79	34.32
221.007	37.8
221.224	35.53
221.441	32.06
221.658	28.17
221.875	24.94
222.092	23.65
222.309	20.37
222.526	17.86
222.743	19.27
222.96	16.06
223.177	12.24
223.394	9.41
223.611	11
223.828	12.8
224.045	16.01
224.262	16.41
224.479	17.93
224.696	19.25
224.913	18.02
225.13	17.58
225.347	17.72
225.564	19.03
225.781	18.56
225.997	17.45
226.214	15.19
226.431	14.53
226.648	13.91
226.865	13.84
227.082	13.29
227.298	12.82
227.515	11.67
227.732	11.09
227.949	10.78
228.165	9.89
228.382	9.29
228.599	9.42
228.816	8.72
229.032	7.99
229.249	8.11
229.466	7.81
229.682	7.57
229.899	8.32
230.116	8.9
230.332	9.48
230.549	11.34
230.765	12.89
230.982	13.83
231.199	14.73
231.415	15.63
231.632	14.26
231.848	15.15
232.065	15.74
232.281	15.68
232.498	16.42
232.714	16.4
232.931	14.65
233.147	13.86
233.364	13.14
233.58	14.35
233.797	14.31
234.013	14.9
234.23	14.06
234.446	14.69
234.662	15.08
234.879	14.51
235.095	13.87
235.312	14.73
235.528	14.78
235.744	14.97
235.961	14.25
236.177	13.87
236.393	13.92
236.61	13.45
236.826	12.04
237.042	10.4
237.258	10.66
237.475	11.12
237.691	10.92
237.907	10.09
238.123	9.5
238.339	9.36
238.556	9.86
238.772	9.86
238.988	10.51
239.204	10.21
239.42	10.89
239.636	10.6
239.853	10.77
240.069	10.25
240.285	10.27
240.501	9.99
240.717	9.66
240.933	9.77
241.149	9.92
241.365	10.31
241.581	10.25
241.797	9.82
242.013	9.49
242.229	9.58
242.445	9.93
242.661	10.05
242.877	10.45
243.093	10.42
243.309	10.27
243.525	9.94
243.741	9.63
243.957	9.94
244.173	10.39
244.388	10.25
244.604	9.51
244.82	9.23
245.036	8.69
245.252	8.6
245.468	8.65
245.683	8.54
245.899	8.7
246.115	8.38
246.331	8.26
246.547	8.23
246.762	8.36
246.978	8.49
247.194	8.24
247.409	8.43
247.625	8.38
247.841	8.22
248.057	8.18
248.272	7.85
248.488	8.06
248.703	8
248.919	8.14
249.135	8.18
249.35	8.01
249.566	8.5
249.782	8.34
249.997	8.57
250.213	9.02
250.428	9.19
250.644	9.27
250.859	9.29
251.075	9.39
251.29	8.88
251.506	8.62
251.721	8.57
251.937	8.47
252.152	8.68
252.368	8.41
252.583	8.25
252.798	7.95
253.014	8.16
253.229	7.93
253.445	7.76
253.66	7.73
253.875	7.81
254.091	7.31
254.306	7.65
254.521	7.63
254.737	8.16
254.952	7.7
255.167	8.29
255.383	8.35
255.598	8.37
255.813	8.09
256.028	8.04
256.244	8.37
256.459	8.45
256.674	8.15
256.889	7.87
257.104	7.49
257.32	7.49
257.535	6.79
257.75	6.4
257.965	6.36
258.18	6.33
258.395	6.24
258.61	5.92
258.826	5.98
259.041	5.79
259.256	5.68
259.471	5.57
259.686	5.59
259.901	5.85
260.116	6.06
260.331	6.08
260.546	6.18
260.761	6.25
260.976	6.57
261.191	6.49
261.406	6.56
261.621	6.9
261.836	6.78
262.05	6.4
262.265	6.4
262.48	6.32
262.695	6.37
262.91	6.34
263.125	6.18
263.34	6.05
263.555	6.28
263.769	6.11
263.984	6.04
264.199	6.39
264.414	6.66
264.629	6.17
264.843	6.03
265.058	5.99
265.273	6.27
265.488	6.5
265.702	6.53
265.917	6.83
266.132	7.06
266.346	6.86
266.561	6.85
266.776	7.03
266.99	7.18
267.205	7.39
267.42	7.18
267.634	7.08
267.849	7.12
268.063	7.08
268.278	6.82
268.492	6.9
268.707	6.89
268.922	7.02
269.136	7.01
269.351	6.88
269.565	6.66
269.78	6.82
269.994	6.29
270.209	6.02
270.423	6.33
270.637	6.17
270.852	6.03
271.066	6.01
271.281	5.83
271.495	5.81
271.709	5.89
271.924	5.91
272.138	5.83
272.353	6.1
272.567	6.1
272.781	5.49
272.996	5.48
273.21	5.24
273.424	5.26
273.638	5.4
273.853	5.29
274.067	5.14
274.281	5.01
274.495	4.96
274.71	4.84
274.924	4.92
275.138	5.22
275.352	5.38
275.566	5.79
275.781	5.94
275.995	5.76
276.209	5.85
276.423	5.83
276.637	5.8
276.851	5.69
277.065	5.93
277.279	6.03
277.493	6.12
277.707	5.83
277.921	5.64
278.135	5.74
278.349	5.77
278.563	5.4
278.777	5.3
278.991	5.41
279.205	5.74
279.419	5.68
279.633	5.52
279.847	5.29
280.061	5.41
280.275	5.44
280.489	5.34
280.703	5.11
280.917	5.27
281.131	5.52
281.344	5.38
281.558	5.21
281.772	5.3
281.986	5.32
282.2	5.43
282.414	5.48
282.627	5.5
282.841	5.27
283.055	5.49
283.269	5.48
283.482	5.47
283.696	5.52
283.91	5.55
284.123	5.5
284.337	5.31
284.551	5.07
284.764	4.93
284.978	5.05
285.192	5.03
285.405	5.08
285.619	5.05
285.833	4.8
286.046	4.65
286.26	4.74
286.473	4.4
286.687	4.49
286.9	4.64
287.114	4.54
287.327	4.59
287.541	4.6
287.754	4.28
287.968	4.16
288.181	4.31
288.395	4.27
288.608	4
288.822	4.26
289.035	4.32
289.248	4.36
289.462	4.69
289.675	4.4
289.889	4.45
290.102	4.52
290.315	4.54
290.529	4.53
290.742	4.57
290.955	4.69
291.169	4.71
291.382	4.64
291.595	4.56
291.808	4.21
292.022	4.49
292.235	4.61
292.448	4.79
292.661	4.78
292.875	4.88
293.088	5.01
293.301	4.96
293.514	4.74
293.727	4.73
293.94	4.76
294.153	4.72
294.367	4.33
294.58	4.04
294.793	3.85
295.006	3.84
295.219	3.87
295.432	3.72
295.645	3.82
295.858	3.83
296.071	3.78
296.284	3.65
296.497	3.62
296.71	3.74
296.923	3.82
297.136	3.94
297.349	3.98
297.562	3.84
297.775	4.01
297.988	3.93
298.201	3.87
298.414	3.95
298.626	4.01
298.839	4.17
299.052	4.16
299.265	4.06
299.478	3.96
299.691	3.77
299.903	3.82
300.116	3.59
300.329	3.51
300.542	3.47
300.755	3.39
300.967	3.54
301.18	3.67
301.393	3.55
301.605	3.69
301.818	3.58
302.031	3.83
302.243	3.75
302.456	4.08
302.669	4.03
302.881	4.37
303.094	4.38
303.307	4.31
303.519	4.24
303.732	4.6
303.944	4.55
304.157	4.62
304.37	4.74
304.582	4.97
304.795	4.68
305.007	4.87
305.22	4.88
305.432	4.95
305.645	4.89
305.857	5
306.069	4.73
306.282	4.72
306.494	4.96
306.707	4.72
306.919	4.47
307.132	4.49
307.344	4.19
307.556	4.16
307.769	4.15
307.981	4.2
308.193	4.14
308.406	4.06
308.618	4.14
308.83	4.08
309.043	4.12
309.255	4.26
309.467	4.25
309.679	4.44
309.892	4.21
310.104	4.24
310.316	4.21
310.528	4.09
310.74	4.37
310.953	4.48
311.165	4.52
311.377	4.42
311.589	4.31
311.801	4.43
312.013	4.5
312.225	4.7
312.437	4.86
312.649	4.92
312.862	5.07
313.074	4.81
313.286	4.69
313.498	4.57
313.71	4.87
313.922	5
314.134	5
314.346	4.95
314.558	5.01
314.77	4.86
314.982	4.67
315.193	4.71
315.405	4.59
315.617	4.62
315.829	4.71
316.041	4.7
316.253	4.62
316.465	4.54
316.677	4.42
316.888	4.42
317.1	4.47
317.312	4.86
317.524	4.8
317.736	5.1
317.947	5.2
318.159	5.45
318.371	5.31
318.583	5.56
318.794	5.75
319.006	6.04
319.218	5.9
319.43	5.82
319.641	5.75
319.853	5.97
320.064	5.79
320.276	5.95
320.488	5.83
320.699	6.15
320.911	6.22
321.123	6.52
321.334	6.58
321.546	6.66
321.757	6.8
321.969	6.76
322.18	6.73
322.392	6.66
322.603	6.58
322.815	6.55
323.026	6.71
323.238	6.64
323.449	6.51
323.661	6.47
323.872	6.72
324.083	6.76
324.295	6.91
324.506	6.98
324.718	7.25
324.929	7.57
325.14	7.83
325.352	7.72
325.563	7.78
325.774	7.75
325.986	7.72
326.197	7.78
326.408	8
326.62	8.07
326.831	8.17
327.042	8.21
327.253	8.11
327.464	8.12
327.676	8.15
327.887	8.31
328.098	8.44
328.309	8.81
328.52	8.99
328.732	9.27
328.943	9.48
329.154	9.87
329.365	10.03
329.576	10.15
329.787	10.18
329.998	10.42
330.209	10.59
330.42	10.78
330.631	10.71
330.842	10.76
331.053	10.7
331.264	10.76
331.475	10.75
331.686	10.97
331.897	11.11
332.108	11.3
332.319	11.39
332.53	11.53
332.741	11.61
332.952	11.73
333.163	11.81
333.374	11.96
333.585	11.91
333.795	11.96
334.006	12.06
334.217	12.1
334.428	12.24
334.639	12.29
334.849	12.38
335.06	12.37
335.271	12.42
335.482	12.48
335.692	12.72
335.903	12.8
336.114	12.81
336.325	12.97
336.535	13.13
336.746	12.88
336.957	12.95
337.167	12.99
337.378	13.09
337.589	13.09
337.799	13.12
338.01	12.95
338.22	13.09
338.431	13
338.642	12.87
338.852	12.57
339.063	12.72
339.273	12.63
339.484	12.7
339.694	12.79
339.905	12.82
340.115	12.83
340.326	12.72
340.536	12.9
340.746	13.05
340.957	12.95
341.167	13.08
341.378	13.13
341.588	13.27
341.799	13.09
342.009	12.95
342.219	13.05
342.43	12.99
342.64	13.06
342.85	12.82
343.061	12.86
343.271	12.95
343.481	12.97
343.691	13
343.902	12.76
344.112	12.74
344.322	12.71
344.532	12.58
344.743	12.6
344.953	12.48
345.163	12.56
345.373	12.46
345.583	12.42
345.793	12.43
346.004	12.4
346.214	12.62
346.424	12.81
346.634	12.94
346.844	12.98
347.054	13.02
347.264	13.22
347.474	13.09
347.684	12.96
347.894	12.91
348.104	12.83
348.314	12.8
348.524	12.73
348.734	12.66
348.944	12.58
349.154	12.61
349.364	12.52
349.574	12.38
349.784	12.28
349.994	12.44
350.204	12.34
350.413	12.24
350.623	12.25
350.833	12.2
351.043	12.13
351.253	12.04
351.463	11.92
351.672	11.65
351.882	11.71
352.092	11.84
352.302	11.68
352.511	11.67
352.721	11.66
352.931	11.65
353.141	11.55
353.35	11.46
353.56	11.53
353.77	11.68
353.979	11.99
354.189	12.01
354.399	12.03
354.608	12.15
354.818	12.3
355.027	12.41
355.237	12.4
355.447	12.57
355.656	12.55
355.866	12.5
356.075	12.37
356.285	12.27
356.494	12.05
356.704	11.95
356.913	11.83
357.123	11.67
357.332	11.56
357.542	11.65
357.751	11.54
357.96	11.47
358.17	11.52
358.379	11.55
358.589	11.6
358.798	11.72
359.007	11.7
359.217	11.65
359.426	11.72
359.635	11.68
359.845	11.64
360.054	11.53
360.263	11.61
360.472	11.49
360.682	11.52
360.891	11.49
361.1	11.51
361.309	11.6
361.519	11.63
361.728	11.67
361.937	11.68
362.146	11.62
362.355	11.74
362.564	11.76
362.774	11.75
362.983	11.68
363.192	11.56
363.401	11.45
363.61	11.33
363.819	11.33
364.028	11.36
364.237	11.27
364.446	11.34
364.655	11.27
364.864	11.22
365.073	11.38
365.282	11.44
365.491	11.59
365.7	11.6
365.909	11.61
366.118	11.71
366.327	11.57
366.536	11.68
366.745	11.6
366.954	11.59
367.162	11.58
367.371	11.39
367.58	11.28
367.789	11.2
367.998	11.31
368.207	11.44
368.415	11.39
368.624	11.34
368.833	11.37
369.042	11.35
369.25	11.39
369.459	11.46
369.668	11.61
369.877	11.62
370.085	11.69
370.294	11.55
370.503	11.45
370.711	11.37
370.92	11.41
371.129	11.46
371.337	11.43
371.546	11.45
371.754	11.37
371.963	11.3
372.171	11.29
372.38	11.19
372.589	11.26
372.797	11.26
373.006	11.25
373.214	11.18
373.423	11.15
373.631	11.14
373.84	11.15
374.048	11.16
374.256	11.19
374.465	11.24
374.673	11.26
374.882	11.18
375.09	11.26
375.298	11.31
375.507	11.33
375.715	11.3
375.923	11.29
376.132	11.22
376.34	11.15
376.548	11.16
376.757	11.11
376.965	11.06
377.173	11.29
377.381	11.24
377.59	11.2
377.798	11.34
378.006	11.27
378.214	11.36
378.423	11.44
378.631	11.55
378.839	11.48
379.047	11.56
379.255	11.63
379.463	11.46
379.671	11.37
379.879	11.31
380.088	11.25
380.296	11.35
380.504	11.45
380.712	11.45
380.92	11.5
381.128	11.49
381.336	11.48
381.544	11.49
381.752	11.5
381.96	11.46
382.168	11.58
382.376	11.61
382.584	11.58
382.791	11.54
382.999	11.47
383.207	11.46
383.415	11.43
383.623	11.45
383.831	11.37
384.039	11.43
384.247	11.61
384.454	11.73
384.662	11.83
384.87	11.82
385.078	11.8
385.285	11.96
385.493	11.86
385.701	12
385.909	12.05
386.116	12.15
386.324	12.14
386.532	12.03
386.739	11.95
386.947	11.8
387.155	11.81
387.362	11.86
387.57	11.8
387.778	11.88
387.985	11.97
388.193	11.98
388.4	12.02
388.608	11.89
388.816	11.94
389.023	11.9
389.231	11.91
389.438	12.01
389.646	11.78
389.853	11.73
390.061	11.66
390.268	11.6
390.475	11.54
390.683	11.47
390.89	11.58
391.098	11.63
391.305	11.64
391.512	11.58
391.72	11.63
391.927	11.66
392.135	11.65
392.342	11.79
392.549	11.77
392.756	11.79
392.964	11.87
393.171	11.88
393.378	11.87
393.586	11.96
393.793	12.12
394	11.99
394.207	12.09
394.414	12.07
394.622	12.1
394.829	12.01
395.036	11.94
395.243	11.92
395.45	11.94
395.657	11.94
395.864	11.88
396.072	11.83
396.279	11.94
396.486	11.98
396.693	12.06
396.9	12.02
397.107	12.09
397.314	12.24
397.521	12.22
397.728	12.19
397.935	12.15
398.142	12.14
398.349	12.17
398.556	12.19
398.763	12.2
398.97	12.15
399.177	12.13
399.383	12.17
399.59	12.16
399.797	12.21
400.004	12.19
400.211	12.23
400.418	12.18
400.625	12.13
400.831	11.99
401.038	11.97
401.245	11.95
401.452	11.9
401.658	11.9
401.865	11.88
402.072	11.81
402.279	11.85
402.485	11.81
402.692	11.83
402.899	11.86
403.105	11.95
403.312	11.9
403.519	11.9
403.725	12.02
403.932	12.06
404.138	12.01
404.345	12.01
404.552	12.04
404.758	12.08
404.965	12.11
405.171	12.05
405.378	12.02
405.584	12.1
405.791	12.14
405.997	11.99
406.204	11.98
406.41	11.99
406.617	11.98
406.823	12
407.029	11.98
407.236	11.95
407.442	11.99
407.649	12.16
407.855	12.15
408.061	12.25
408.268	12.28
408.474	12.24
408.68	12.29
408.887	12.36
409.093	12.28
409.299	12.29
409.505	12.25
409.712	12.24
409.918	12.07
410.124	12.02
410.33	11.89
410.537	11.95
410.743	11.97
410.949	11.95
411.155	11.98
411.361	11.98
411.567	11.93
411.773	11.92
411.98	11.95
412.186	11.9
412.392	11.89
412.598	11.96
412.804	11.93
413.01	11.86
413.216	11.8
413.422	11.77
413.628	11.79
413.834	11.78
414.04	11.86
414.246	11.76
414.452	11.72
414.658	11.73
414.864	11.75
415.07	11.73
415.275	11.83
415.481	11.84
415.687	11.72
415.893	11.68
416.099	11.68
416.305	11.69
416.511	11.73
416.716	11.73
416.922	11.74
417.128	11.71
417.334	11.67
417.539	11.61
417.745	11.61
417.951	11.65
418.157	11.69
418.362	11.74
418.568	11.72
418.774	11.66
418.979	11.67
419.185	11.64
419.391	11.6
419.596	11.6
419.802	11.57
420.008	11.54
420.213	11.53
420.419	11.48
420.624	11.44
420.83	11.44
421.035	11.46
421.241	11.44
421.446	11.5
421.652	11.49
421.857	11.51
422.063	11.52
422.268	11.54
422.474	11.56
422.679	11.58
422.885	11.6
423.09	11.58
423.295	11.55
423.501	11.56
423.706	11.51
423.911	11.52
424.117	11.46
424.322	11.44
424.527	11.45
424.733	11.4
424.938	11.42
425.143	11.39
425.349	11.38
425.554	11.42
425.759	11.48
425.964	11.47
426.169	11.48
426.375	11.56
426.58	11.54
426.785	11.51
426.99	11.57
427.195	11.54
427.4	11.56
427.605	11.57
427.811	11.6
428.016	11.53
428.221	11.57
428.426	11.59
428.631	11.54
428.836	11.58
429.041	11.59
429.246	11.53
429.451	11.59
429.656	11.55
429.861	11.55
430.066	11.52
430.271	11.53
430.476	11.45
430.681	11.36
430.886	11.36
431.09	11.38
431.295	11.37
431.5	11.36
431.705	11.32
431.91	11.3
432.115	11.32
432.32	11.34
432.524	11.3
432.729	11.31
432.934	11.31
433.139	11.33
433.343	11.37
433.548	11.4
433.753	11.42
433.958	11.41
434.162	11.38
434.367	11.37
434.572	11.32
434.776	11.36
434.981	11.41
435.186	11.41
435.39	11.41
435.595	11.32
435.799	11.3
436.004	11.29
436.209	11.34
436.413	11.37
436.618	11.36
436.822	11.37
437.027	11.35
437.231	11.29
437.436	11.3
437.64	11.25
437.845	11.19
438.049	11.21
438.253	11.18
438.458	11.1
438.662	11.09
438.867	11.08
439.071	11.09
439.275	11.1
439.48	11.1
439.684	11.13
439.888	11.12
440.093	11.17
440.297	11.12
440.501	11.14
440.706	11.18
440.91	11.2
441.114	11.16
441.318	11.17
441.523	11.18
441.727	11.16
441.931	11.17
442.135	11.15
442.339	11.16
442.543	11.17
442.748	11.12
442.952	11.11
443.156	11.06
443.36	11.1
443.564	11.06
443.768	11.01
443.972	11.03
444.176	10.99
444.38	11.01
444.584	11
444.788	11
444.992	11.02
445.196	10.97
445.4	10.99
445.604	10.95
445.808	10.93
446.012	10.94
446.216	10.91
446.42	10.89
446.624	10.91
446.828	10.87
447.032	10.85
447.235	10.86
447.439	10.89
447.643	10.9
447.847	10.92
448.051	10.96
448.254	10.96
448.458	10.98
448.662	11.03
448.866	10.98
449.069	11.02
449.273	11.04
449.477	11.03
449.681	11.03
449.884	11.01
450.088	10.99
450.292	11.02
450.495	11.01
450.699	11.06
450.902	11.03
451.106	11.06
451.31	11.04
451.513	11.08
451.717	11.09
451.92	11.09
452.124	11.02
452.327	11.03
452.531	11
452.734	10.96
452.938	10.89
453.141	10.89
453.345	10.92
453.548	10.95
453.752	10.89
453.955	10.88
454.158	10.84
454.362	10.88
454.565	10.84
454.769	10.82
454.972	10.81
455.175	10.78
455.379	10.77
455.582	10.71
455.785	10.74
455.988	10.75
456.192	10.69
456.395	10.67
456.598	10.66
456.801	10.68
457.005	10.66
457.208	10.72
457.411	10.74
457.614	10.75
457.817	10.77
458.021	10.68
458.224	10.66
458.427	10.71
458.63	10.73
458.833	10.75
459.036	10.76
459.239	10.75
459.442	10.72
459.645	10.71
459.848	10.71
460.051	10.7
460.254	10.69
460.457	10.7
460.66	10.7
460.863	10.65
461.066	10.65
461.269	10.62
461.472	10.69
461.675	10.67
461.878	10.72
462.081	10.68
462.284	10.71
462.486	10.74
462.689	10.72
462.892	10.78
463.095	10.85
463.298	10.8
463.5	10.82
463.703	10.82
463.906	10.85
464.109	10.84
464.311	10.89
464.514	10.87
464.717	10.83
464.92	10.85
465.122	10.79
465.325	10.8
465.528	10.83
465.73	10.8
465.933	10.74
466.135	10.78
466.338	10.73
466.541	10.7
466.743	10.7
466.946	10.76
467.148	10.79
467.351	10.8
467.553	10.77
467.756	10.79
467.958	10.84
468.161	10.84
468.363	10.8
468.566	10.79
468.768	10.79
468.971	10.81
469.173	10.76
469.375	10.7
469.578	10.78
469.78	10.74
469.983	10.7
470.185	10.7
470.387	10.73
470.59	10.73
470.792	10.78
470.994	10.79
471.196	10.75
471.399	10.74
471.601	10.77
471.803	10.69
472.005	10.74
472.208	10.77
472.41	10.72
472.612	10.74
472.814	10.74
473.016	10.74
473.218	10.78
473.421	10.8
473.623	10.8
473.825	10.78
474.027	10.85
474.229	10.83
474.431	10.77
474.633	10.8
474.835	10.81
475.037	10.76
475.239	10.77
475.441	10.77
475.643	10.75
475.845	10.82
476.047	10.86
476.249	10.8
476.451	10.83
476.653	10.88
476.855	10.83
477.057	10.81
477.258	10.86
477.46	10.85
477.662	10.81
477.864	10.83
478.066	10.77
478.268	10.78
478.469	10.79
478.671	10.76
478.873	10.73
479.075	10.73
479.276	10.69
479.478	10.71
479.68	10.66
479.882	10.66
480.083	10.66
480.285	10.65
480.487	10.61
480.688	10.6
480.89	10.61
481.091	10.61
481.293	10.64
481.495	10.65
481.696	10.61
481.898	10.61
482.099	10.59
482.301	10.57
482.502	10.57
482.704	10.56
482.905	10.56
483.107	10.55
483.308	10.55
483.51	10.55
483.711	10.55
483.913	10.57
484.114	10.58
484.315	10.61
484.517	10.63
484.718	10.64
484.92	10.66
485.121	10.67
485.322	10.68
485.524	10.68
485.725	10.68
485.926	10.7
486.127	10.71
486.329	10.68
486.53	10.67
486.731	10.68
486.932	10.7
487.134	10.68
487.335	10.68
487.536	10.69
487.737	10.72
487.938	10.71
488.139	10.7
488.341	10.71
488.542	10.71
488.743	10.69
488.944	10.69
489.145	10.69
489.346	10.71
489.547	10.71
489.748	10.71
489.949	10.7
490.15	10.7
490.351	10.72
490.552	10.72
490.753	10.73
490.954	10.73
491.155	10.73
491.356	10.73
491.557	10.74
491.758	10.77
491.959	10.79
492.159	10.77
492.36	10.78
492.561	10.78
492.762	10.8
492.963	10.83
493.164	10.85
493.364	10.85
493.565	10.89
493.766	10.9
493.967	10.89
494.167	10.88
494.368	10.91
494.569	10.93
494.769	10.93
494.97	10.93
495.171	10.91
495.371	10.91
495.572	10.97
495.773	11
495.973	10.98
496.174	11.02
496.375	11.04
496.575	11.06
496.776	11.11
496.976	11.16
497.177	11.19
497.377	11.21
497.578	11.25
497.778	11.21
497.979	11.23
498.179	11.27
498.38	11.26
498.58	11.24
498.78	11.23
498.981	11.22
499.181	11.21
499.382	11.17
499.582	11.21
499.782	11.23
499.983	11.26
500.183	11.24
500.383	11.22
500.584	11.2
500.784	11.21
500.984	11.26
501.184	11.28
501.385	11.29
501.585	11.36
501.785	11.4
501.985	11.42
502.185	11.44
502.386	11.45
502.586	11.5
502.786	11.55
502.986	11.61
503.186	11.64
503.386	11.65
503.586	11.68
503.786	11.63
503.987	11.64
504.187	11.66
504.387	11.7
504.587	11.74
504.787	11.76
504.987	11.8
505.187	11.81
505.387	11.79
505.587	11.81
505.786	11.87
505.986	11.89
506.186	11.88
506.386	11.89
506.586	11.88
506.786	11.91
506.986	11.91
507.186	11.88
507.386	11.89
507.585	11.96
507.785	11.97
507.985	11.96
508.185	12.02
508.384	12.06
508.584	12.1
508.784	12.11
508.984	12.1
509.183	12.13
509.383	12.2
509.583	12.22
509.782	12.22
509.982	12.21
510.182	12.25
510.381	12.27
510.581	12.31
510.781	12.3
510.98	12.34
511.18	12.36
511.379	12.38
511.579	12.37
511.778	12.38
511.978	12.45
512.177	12.48
512.377	12.49
512.576	12.5
512.776	12.53
512.975	12.51
513.175	12.54
513.374	12.56
513.573	12.6
513.773	12.66
513.972	12.69
514.172	12.67
514.371	12.7
514.57	12.7
514.77	12.75
514.969	12.72
515.168	12.79
515.367	12.82
515.567	12.86
515.766	12.85
515.965	12.86
516.164	12.91
516.364	12.91
516.563	12.93
516.762	12.99
516.961	13
517.16	13.03
517.359	13.08
517.559	13.1
517.758	13.15
517.957	13.18
518.156	13.22
518.355	13.24
518.554	13.29
518.753	13.33
518.952	13.33
519.151	13.38
519.35	13.45
519.549	13.44
519.748	13.48
519.947	13.51
520.146	13.54
520.345	13.58
520.544	13.63
520.743	13.65
520.942	13.66
521.141	13.71
521.339	13.71
521.538	13.72
521.737	13.78
521.936	13.83
522.135	13.82
522.333	13.84
522.532	13.84
522.731	13.84
522.93	13.86
523.129	13.9
523.327	13.91
523.526	13.93
523.725	13.96
523.923	13.99
524.122	14.03
524.321	14.08
524.519	14.12
524.718	14.15
524.917	14.16
525.115	14.18
525.314	14.17
525.512	14.19
525.711	14.24
525.909	14.27
526.108	14.29
526.306	14.3
526.505	14.31
526.703	14.35
526.902	14.41
527.1	14.44
527.299	14.52
527.497	14.59
527.696	14.62
527.894	14.64
528.092	14.68
528.291	14.7
528.489	14.76
528.688	14.81
528.886	14.86
529.084	14.89
529.283	14.94
529.481	14.96
529.679	14.99
529.877	15.04
530.076	15.11
530.274	15.16
530.472	15.26
530.67	15.29
530.869	15.33
531.067	15.38
531.265	15.42
531.463	15.49
531.661	15.54
531.859	15.56
532.057	15.61
532.255	15.67
532.454	15.7
532.652	15.72
532.85	15.75
533.048	15.76
533.246	15.79
533.444	15.84
533.642	15.87
533.84	15.9
534.038	15.99
534.236	16.08
534.434	16.12
534.632	16.19
534.83	16.24
535.027	16.31
535.225	16.41
535.423	16.47
535.621	16.51
535.819	16.58
536.017	16.65
536.215	16.67
536.412	16.67
536.61	16.72
536.808	16.77
537.006	16.84
537.203	16.94
537.401	17
537.599	17.05
537.797	17.11
537.994	17.18
538.192	17.27
538.39	17.34
538.587	17.41
538.785	17.47
538.983	17.58
539.18	17.66
539.378	17.69
539.575	17.74
539.773	17.82
539.97	17.88
540.168	17.92
540.366	17.97
540.563	18
540.761	18.06
540.958	18.1
541.155	18.14
541.353	18.22
541.55	18.3
541.748	18.38
541.945	18.45
542.143	18.51
542.34	18.59
542.537	18.65
542.735	18.75
542.932	18.86
543.129	18.95
543.327	19.04
543.524	19.12
543.721	19.21
543.919	19.3
544.116	19.42
544.313	19.53
544.51	19.61
544.708	19.73
544.905	19.83
545.102	19.88
545.299	19.96
545.496	20.06
545.693	20.1
545.891	20.13
546.088	20.2
546.285	20.25
546.482	20.31
546.679	20.39
546.876	20.48
547.073	20.55
547.27	20.69
547.467	20.79
547.664	20.85
547.861	20.96
548.058	21.06
548.255	21.11
548.452	21.18
548.649	21.27
548.846	21.36
549.043	21.38
549.24	21.46
549.437	21.57
549.633	21.67
549.83	21.7
550.027	21.78
550.224	21.92
550.421	22.04
550.618	22.14
550.814	22.26
551.011	22.37
551.208	22.54
551.405	22.63
551.601	22.65
551.798	22.73
551.995	22.86
552.191	23.01
552.388	23.04
552.585	23.15
552.781	23.27
552.978	23.35
553.175	23.36
553.371	23.46
553.568	23.57
553.764	23.66
553.961	23.76
554.157	23.89
554.354	23.91
554.55	24.07
554.747	24.13
554.943	24.21
555.14	24.31
555.336	24.47
555.533	24.53
555.729	24.66
555.926	24.78
556.122	24.81
556.318	24.88
556.515	24.97
556.711	25.08
556.907	25.15
557.104	25.25
557.3	25.33
557.496	25.39
557.693	25.5
557.889	25.56
558.085	25.71
558.281	25.85
558.478	25.89
558.674	26
558.87	26.07
559.066	26.19
559.262	26.25
559.459	26.35
559.655	26.46
559.851	26.54
560.047	26.62
560.243	26.64
560.439	26.78
560.635	26.91
560.831	26.93
561.027	27
561.223	27.12
561.419	27.24
561.615	27.35
561.811	27.41
562.007	27.53
562.203	27.59
562.399	27.75
562.595	27.78
562.791	27.84
562.987	28.02
563.183	28.1
563.379	28.18
563.575	28.29
563.771	28.41
563.966	28.58
564.162	28.65
564.358	28.77
564.554	28.83
564.75	28.93
564.945	29.05
565.141	29.07
565.337	29.11
565.533	29.23
565.728	29.32
565.924	29.34
566.12	29.48
566.315	29.6
566.511	29.69
566.707	29.78
566.902	29.85
567.098	29.91
567.293	30.09
567.489	30.22
567.684	30.23
567.88	30.26
568.076	30.35
568.271	30.38
568.467	30.41
568.662	30.5
568.858	30.59
569.053	30.67
569.248	30.82
569.444	30.86
569.639	30.89
569.835	31
570.03	31.1
570.225	31.17
570.421	31.3
570.616	31.37
570.812	31.46
571.007	31.52
571.202	31.58
571.397	31.58
571.593	31.65
571.788	31.77
571.983	31.85
572.178	31.98
572.374	32.05
572.569	32.06
572.764	32.16
572.959	32.19
573.154	32.23
573.35	32.34
573.545	32.46
573.74	32.55
573.935	32.61
574.13	32.68
574.325	32.71
574.52	32.78
574.715	32.86
574.91	32.88
575.105	32.91
575.3	33.02
575.495	33.09
575.69	33.14
575.885	33.19
576.08	33.22
576.275	33.31
576.47	33.33
576.665	33.41
576.86	33.5
577.055	33.58
577.25	33.65
577.444	33.74
577.639	33.76
577.834	33.83
578.029	33.93
578.224	34.04
578.418	34.11
578.613	34.12
578.808	34.16
579.003	34.18
579.197	34.26
579.392	34.33
579.587	34.35
579.781	34.43
579.976	34.48
580.171	34.53
580.365	34.6
580.56	34.64
580.755	34.79
580.949	34.84
581.144	34.9
581.338	34.99
581.533	35.05
581.727	35.19
581.922	35.34
582.116	35.42
582.311	35.46
582.505	35.55
582.7	35.67
582.894	35.72
583.089	35.82
583.283	35.82
583.478	35.81
583.672	35.88
583.866	35.87
584.061	35.87
584.255	35.97
584.449	36.08
584.644	36.16
584.838	36.17
585.032	36.25
585.226	36.27
585.421	36.43
585.615	36.5
585.809	36.56
586.003	36.59
586.198	36.67
586.392	36.65
586.586	36.66
586.78	36.69
586.974	36.74
587.168	36.84
587.363	36.88
587.557	36.87
587.751	36.93
587.945	36.94
588.139	36.94
588.333	36.88
588.527	36.93
588.721	36.97
588.915	36.9
589.109	36.95
589.303	36.91
589.497	37.03
589.691	37.13
589.885	37.25
590.079	37.38
590.273	37.5
590.466	37.58
590.66	37.62
590.854	37.68
591.048	37.76
591.242	37.79
591.436	37.83
591.629	37.77
591.823	37.75
592.017	37.68
592.211	37.67
592.404	37.71
592.598	37.79
592.792	37.86
592.986	37.92
593.179	37.98
593.373	38.02
593.567	38.01
593.76	38.1
593.954	38.15
594.147	38.22
594.341	38.24
594.535	38.29
594.728	38.31
594.922	38.39
595.115	38.39
595.309	38.46
595.502	38.48
595.696	38.57
595.889	38.62
596.083	38.68
596.276	38.71
596.47	38.8
596.663	38.83
596.856	38.85
597.05	38.86
597.243	38.95
597.437	39.01
597.63	39.05
597.823	39.13
598.017	39.16
598.21	39.16
598.403	39.17
598.596	39.16
598.79	39.24
598.983	39.31
599.176	39.28
599.369	39.28
599.563	39.26
599.756	39.27
599.949	39.24
600.142	39.24
600.335	39.3
600.528	39.37
600.722	39.43
600.915	39.48
601.108	39.59
601.301	39.64
601.494	39.64
601.687	39.7
601.88	39.79
602.073	39.81
602.266	39.9
602.459	39.95
602.652	39.97
602.845	39.99
603.038	40
603.231	39.97
603.424	40
603.617	40.06
603.809	40.11
604.002	40.2
604.195	40.27
604.388	40.23
604.581	40.19
604.774	40.25
604.966	40.32
605.159	40.37
605.352	40.45
605.545	40.52
605.737	40.58
605.93	40.53
606.123	40.48
606.316	40.55
606.508	40.63
606.701	40.81
606.894	40.86
607.086	40.85
607.279	40.79
607.471	40.74
607.664	40.71
607.857	40.68
608.049	40.78
608.242	40.77
608.434	40.75
608.627	40.82
608.819	40.81
609.012	40.84
609.204	40.9
609.397	40.98
609.589	41.1
609.782	41.2
609.974	41.29
610.166	41.39
610.359	41.5
610.551	41.63
610.743	41.72
610.936	41.77
611.128	41.82
611.32	41.88
611.513	41.88
611.705	41.99
611.897	42.06
612.09	42.05
612.282	42.03
612.474	41.99
612.666	41.98
612.858	41.86
613.051	41.89
613.243	41.86
613.435	41.79
613.627	41.79
613.819	41.65
614.011	41.62
614.203	41.6
614.395	41.49
614.588	41.52
614.78	41.55
614.972	41.53
615.164	41.47
615.356	41.5
615.548	41.49
615.74	41.59
615.932	41.59
616.124	41.58
616.315	41.6
616.507	41.62
616.699	41.68
616.891	41.64
617.083	41.77
617.275	41.92
617.467	41.89
617.659	42
617.85	41.94
618.042	42.03
618.234	42.14
618.426	42.18
618.618	42.28
618.809	42.32
619.001	42.4
619.193	42.38
619.384	42.31
619.576	42.46
619.768	42.46
619.959	42.47
620.151	42.48
620.343	42.48
620.534	42.56
620.726	42.55
620.917	42.5
621.109	42.46
621.301	42.42
621.492	42.39
621.684	42.25
621.875	42.23
622.067	42.28
622.258	42.23
622.45	42.29
622.641	42.33
622.832	42.34
623.024	42.44
623.215	42.42
623.407	42.57
623.598	42.71
623.789	42.77
623.981	42.81
624.172	42.88
624.363	42.88
624.555	42.77
624.746	42.74
624.937	42.81
625.129	42.82
625.32	42.85
625.511	42.82
625.702	42.82
625.893	42.85
626.085	42.84
626.276	42.86
626.467	42.84
626.658	42.92
626.849	42.96
627.04	42.96
627.231	42.95
627.422	43
627.614	43.06
627.805	43.08
627.996	43.11
628.187	43.22
628.378	43.18
628.569	43.29
628.76	43.26
628.951	43.34
629.142	43.34
629.332	43.39
629.523	43.47
629.714	43.48
629.905	43.48
630.096	43.58
630.287	43.54
630.478	43.57
630.669	43.54
630.859	43.59
631.05	43.51
631.241	43.57
631.432	43.5
631.623	43.43
631.813	43.43
632.004	43.33
632.195	43.28
632.385	43.26
632.576	43.31
632.767	43.34
632.957	43.38
633.148	43.47
633.339	43.43
633.529	43.44
633.72	43.51
633.91	43.39
634.101	43.51
634.292	43.51
634.482	43.65
634.673	43.68
634.863	43.65
635.054	43.64
635.244	43.56
635.435	43.65
635.625	43.68
635.815	43.67
636.006	43.73
636.196	43.72
636.387	43.71
636.577	43.56
636.767	43.54
636.958	43.72
637.148	43.66
637.338	43.77
637.529	43.76
637.719	43.88
637.909	43.98
638.099	44.06
638.29	44.04
638.48	44.11
638.67	44.19
638.86	44.17
639.05	44.1
639.241	44.35
639.431	44.33
639.621	44.33
639.811	44.34
640.001	44.26
640.191	44.35
640.381	44.33
640.571	44.19
640.761	44.17
640.951	44.29
641.141	44.3
641.331	44.22
641.521	44.14
641.711	44.21
641.901	44.15
642.091	44.2
642.281	44.13
642.471	44.24
642.661	44.48
642.851	44.59
643.041	44.54
643.231	44.53
643.42	44.53
643.61	44.52
643.8	44.53
643.99	44.59
644.18	44.59
644.369	44.65
644.559	44.68
644.749	44.58
644.939	44.51
645.128	44.53
645.318	44.58
645.508	44.67
645.697	44.79
645.887	44.77
646.076	44.74
646.266	44.83
646.456	44.77
646.645	44.67
646.835	44.68
647.024	44.69
647.214	44.81
647.403	44.78
647.593	44.71
647.782	44.75
647.972	44.69
648.161	44.57
648.351	44.57
648.54	44.6
648.73	44.69
648.919	44.79
649.108	44.92
649.298	44.74
649.487	44.72
649.677	44.72
649.866	44.76
650.055	44.81
650.244	44.83
650.434	44.77
650.623	44.85
650.812	44.81
651.002	44.74
651.191	44.69
651.38	44.8
651.569	44.86
651.758	44.79
651.947	44.64
652.137	44.66
652.326	44.69
652.515	44.75
652.704	44.75
652.893	44.81
653.082	44.95
653.271	45.06
653.46	45.04
653.649	45.06
653.838	45.19
654.027	45.28
654.216	45.22
654.405	45.39
654.594	45.43
654.783	45.41
654.972	45.37
655.161	45.34
655.35	45.29
655.539	45.36
655.728	45.37
655.916	45.3
656.105	45.4
656.294	45.47
656.483	45.3
656.672	45.39
656.86	45.44
657.049	45.52
657.238	45.47
657.427	45.38
657.615	45.29
657.804	45.21
657.993	45.32
658.181	45.33
658.37	45.33
658.559	45.46
658.747	45.42
658.936	45.4
659.125	45.43
659.313	45.52
659.502	45.61
659.69	45.66
659.879	45.73
660.067	45.76
660.256	45.64
660.444	45.75
660.633	45.77
660.821	45.78
661.01	45.83
661.198	45.85
661.387	45.8
661.575	45.9
661.763	45.94
661.952	45.96
662.14	45.83
662.328	45.89
662.517	45.87
662.705	45.84
662.893	45.82
663.082	45.87
663.27	45.79
663.458	45.71
663.646	45.52
663.834	45.6
664.023	45.67
664.211	45.82
664.399	45.88
664.587	45.78
664.775	45.72
664.963	45.78
665.152	45.67
665.34	45.76
665.528	45.91
665.716	46.07
665.904	45.98
666.092	45.97
666.28	46.01
666.468	46.07
666.656	46.08
666.844	46.16
667.032	46.11
667.22	46.22
667.408	46.35
667.596	46.28
667.784	46.2
667.971	46.24
668.159	46.23
668.347	46.15
668.535	46.13
668.723	46.07
668.911	46.09
669.098	46.13
669.286	46.02
669.474	45.84
669.662	45.95
669.849	46
670.037	46.07
670.225	46.1
670.413	46.16
670.6	46.18
670.788	46.38
670.976	46.43
671.163	46.47
671.351	46.53
671.538	46.59
671.726	46.56
671.913	46.58
672.101	46.54
672.289	46.6
672.476	46.61
672.664	46.66
672.851	46.53
673.039	46.56
673.226	46.41
673.413	46.39
673.601	46.35
673.788	46.3
673.976	46.3
674.163	46.35
674.35	46.32
674.538	46.36
674.725	46.26
674.912	46.43
675.1	46.44
675.287	46.58
675.474	46.71
675.662	46.76
675.849	46.84
676.036	46.79
676.223	46.82
676.411	46.66
676.598	46.7
676.785	46.83
676.972	46.83
677.159	46.74
677.346	46.85
677.533	46.88
677.721	47.03
677.908	46.93
678.095	46.96
678.282	46.96
678.469	47.03
678.656	47.1
678.843	47.08
679.03	46.95
679.217	46.94
679.404	46.77
679.591	46.78
679.778	46.63
679.964	46.63
680.151	46.62
680.338	46.58
680.525	46.74
680.712	46.67
680.899	46.66
681.086	46.79
681.272	46.83
681.459	47.02
681.646	46.95
681.833	47.06
682.02	47.02
682.206	47.07
682.393	47.05
682.58	46.91
682.766	46.84
682.953	46.7
683.14	46.65
683.326	46.78
683.513	46.75
683.7	46.83
683.886	46.7
684.073	46.85
684.259	46.84
684.446	46.96
684.632	47.07
684.819	47.09
685.005	47.33
685.192	47.37
685.378	47.35
685.565	47.23
685.751	47.15
685.938	47.2
686.124	47.14
686.31	47.07
686.497	47.09
686.683	47.08
686.87	47.1
687.056	46.96
687.242	46.94
687.429	46.84
687.615	46.87
687.801	46.95
687.987	46.94
688.174	46.94
688.36	46.99
688.546	46.95
688.732	46.84
688.918	46.83
689.105	46.97
689.291	46.87
689.477	46.93
689.663	47.04
689.849	46.95
690.035	47.06
690.221	47.2
690.407	47.3
690.593	47.25
690.779	47.31
690.965	47.44
691.151	47.5
691.337	47.47
691.523	47.49
691.709	47.49
691.895	47.66
692.081	47.63
692.267	47.72
692.453	47.73
692.639	47.89
692.825	47.96
693.011	47.86
693.196	47.7
693.382	47.99
693.568	48.01
693.754	47.89
693.94	47.69
694.125	47.8
694.311	47.71
694.497	47.71
694.682	47.55
694.868	47.68
695.054	47.57
695.239	47.53
695.425	47.39
695.611	47.41
695.796	47.36
695.982	47.56
696.168	47.47
696.353	47.43
696.539	47.53
696.724	47.56
696.91	47.4
697.095	47.53
697.281	47.57
697.466	47.62
697.652	47.5
697.837	47.56
698.023	47.51
698.208	47.59
698.393	47.54
698.579	47.54
698.764	47.47
698.949	47.56
699.135	47.48
699.32	47.57
699.505	47.59
699.691	47.68
699.876	47.73
700.061	47.72
700.246	47.64
700.432	47.6
700.617	47.45
700.802	47.64
700.987	47.62
701.172	47.65
701.358	47.39
701.543	47.37
701.728	47.31
701.913	47.26
702.098	47.27
702.283	47.34
702.468	47.48
702.653	47.4
702.838	47.51
703.023	47.63
703.208	47.73
703.393	47.84
703.578	47.8
703.763	47.88
703.948	47.86
704.133	47.87
704.318	47.7
704.503	47.76
704.688	47.94
704.873	47.9
705.057	47.86
705.242	47.73
705.427	47.92
705.612	47.99
705.797	48.15
705.981	48.27
706.166	48.42
706.351	48.48
706.536	48.43
706.72	48.25
706.905	48.14
707.09	48.23
707.274	48.39
707.459	48.19
707.644	48.19
707.828	48.16
708.013	48.1
708.197	48.02
708.382	48.08
708.567	48.22
708.751	48.32
708.936	48.24
709.12	48.18
709.305	48.16
709.489	48.27
709.673	48.16
709.858	47.92
710.042	47.97
710.227	47.84
710.411	47.7
710.596	47.43
710.78	47.51
710.964	47.62
711.149	47.48
711.333	47.54
711.517	47.6
711.702	47.77
711.886	47.84
712.07	47.84
712.254	47.83
712.438	47.89
712.623	48.13
712.807	48.07
712.991	48.12
713.175	48.26
713.359	48.18
713.544	48.24
713.728	48.22
713.912	48.27
714.096	48.22
714.28	48.24
714.464	48.41
714.648	48.25
714.832	48.12
715.016	47.97
715.2	47.9
715.384	47.92
715.568	47.78
715.752	47.69
715.936	47.69
716.12	47.59
716.304	47.65
716.488	47.43
716.671	47.4
716.855	47.54
717.039	47.75
717.223	47.61
717.407	47.38
717.59	47.4
717.774	47.29
717.958	47.32
718.142	47.41
718.325	47.34
718.509	47.43
718.693	47.47
718.877	47.4
719.06	47.19
719.244	47.24
719.428	47.6
719.611	47.59
719.795	47.76
719.978	47.69
720.162	47.78
720.345	47.72
720.529	47.76
720.713	47.89
720.896	48.01
721.08	48.05
721.263	48.08
721.446	47.97
721.63	48
721.813	47.92
721.997	47.85
722.18	47.72
722.364	47.98
722.547	48.04
722.73	47.96
722.914	48.02
723.097	48.08
723.28	48.22
723.464	48.13
723.647	48.16
723.83	48.05
724.013	48.25
724.197	48.44
724.38	48.36
724.563	48.13
724.746	48.24
724.929	47.98
725.112	47.96
725.296	47.8
725.479	47.61
725.662	47.61
725.845	47.71
726.028	47.71
726.211	47.64
726.394	47.73
726.577	47.73
726.76	47.5
726.943	47.68
727.126	47.56
727.309	47.62
727.492	47.76
727.675	47.64
727.858	47.62
728.041	47.61
728.224	47.7
728.407	47.53
728.589	47.56
728.772	47.61
728.955	47.52
729.138	47.62
729.321	47.67
729.503	47.8
729.686	47.85
729.869	47.87
730.052	47.66
730.234	47.6
730.417	47.68
730.6	47.82
730.782	47.85
730.965	47.93
731.148	47.83
731.33	47.67
731.513	47.61
731.695	47.59
731.878	47.47
732.061	47.54
732.243	47.39
732.426	47.34
732.608	47.33
732.791	47.31
732.973	47.51
733.156	47.58
733.338	47.7
733.52	47.43
733.703	47.52
733.885	47.61
734.068	47.56
734.25	47.42
734.432	47.58
734.615	47.66
734.797	47.46
734.979	47.21
735.162	47.12
735.344	47.08
735.526	47.36
735.708	47.17
735.891	47.41
736.073	47.49
736.255	47.79
736.437	47.67
736.619	47.49
736.802	47.62
736.984	47.68
737.166	47.73
737.348	47.57
737.53	47.57
737.712	47.72
737.894	47.58
738.076	47.66
738.258	47.5
738.44	47.38
738.622	47.28
738.804	47.41
738.986	47.15
739.168	46.98
739.35	47.16
739.532	47.01
739.714	46.82
739.896	46.9
740.078	46.95
740.259	47.02
740.441	47.25
740.623	47.38
740.805	47.51
740.987	47.71
741.168	47.58
741.35	47.66
741.532	47.93
741.714	47.98
741.895	47.93
742.077	47.72
742.259	47.92
742.44	47.56
742.622	47.47
742.804	47.4
742.985	47.26
743.167	47.65
743.348	47.44
743.53	47.5
743.711	47.65
743.893	47.57
744.075	47.58
744.256	47.13
744.438	47.26
744.619	47.52
744.8	47.23
744.982	47.35
745.163	47.45
745.345	47.63
745.526	47.54
745.707	47.46
745.889	47.29
746.07	47.61
746.252	47.95
746.433	48.15
746.614	47.96
746.795	48.48
746.977	48.51
747.158	48.33
747.339	48.35
747.52	48.69
747.702	48.78
747.883	49.09
748.064	48.73
748.245	48.42
748.426	48.29
748.607	48.26
748.788	48.01
748.97	47.87
749.151	48
749.332	47.95
749.513	47.55
749.694	47.59
749.875	47.28
750.056	47.71
750.237	47.99
750.418	47.72
750.599	47.66
750.78	47.55
750.96	47.69
751.141	47.67
751.322	47.6
751.503	47.61
751.684	47.23
751.865	47.48
752.046	47.19
752.226	46.88
752.407	47.38
752.588	47.59
752.769	47.63
752.949	47.58
753.13	47.52
753.311	47.44
753.492	47.32
753.672	47.6
753.853	47.44
754.034	47.52
754.214	47.87
754.395	47.41
754.575	47.5
754.756	47.16
754.937	47.32
755.117	47.31
755.298	47.39
755.478	47.83
755.659	47.87
755.839	47.6
756.02	47.44
756.2	47.29
756.381	47.44
756.561	47.23
756.741	47.67
756.922	47.61
757.102	47.65
757.283	47.77
757.463	47.35
757.643	47
757.823	47.09
758.004	47.12
758.184	47.21
758.364	47.27
758.545	47.34
758.725	47.19
758.905	47.09
759.085	47.26
759.265	47.03
759.446	46.88
759.626	47.16
759.806	47.54
759.986	47.34
760.166	47
760.346	46.96
760.526	47
760.706	47
760.886	47.01
761.066	46.72
761.246	46.86
761.426	47.13
761.606	47.03
761.786	46.74
761.966	46.88
762.146	46.82
762.326	46.73
762.506	46.57
762.686	46.56
762.866	46.48
763.046	46.36
763.225	46.4
763.405	46.19
763.585	46.22
763.765	46.14
763.945	46
764.124	46.18
764.304	46.34
764.484	46.44
764.664	46.21
764.843	46.21
765.023	46.37
765.203	46.17
765.382	46.4
765.562	46.46
765.741	46.86
765.921	47.14
766.101	46.97
766.28	46.71
766.46	46.66
766.639	46.72
766.819	46.64
766.998	46.7
767.178	46.46
767.357	46.44
767.537	46.23
767.716	46.18
767.896	45.97
768.075	45.96
768.254	46.29
768.434	46.28
768.613	46.26
768.792	46.39
768.972	46.24
769.151	46.64
769.33	46.75
769.51	46.77
769.689	46.5
769.868	46.67
770.047	46.9
770.226	46.76
770.406	46.69
770.585	46.81
770.764	46.86
770.943	46.95
771.122	47.02
771.301	46.72
771.48	47.08
771.66	47.18
771.839	46.94
772.018	46.92
772.197	46.98
772.376	46.95
772.555	47.2
772.734	47.23
772.913	46.92
773.092	46.92
773.271	47.14
773.449	46.7
773.628	46.73
773.807	47.03
773.986	46.99
774.165	46.85
774.344	47.15
774.523	46.98
774.701	46.84
774.88	47.23
775.059	47.23
775.238	46.89
775.417	46.96
775.595	46.35
775.774	46.59
775.953	46.76
776.131	46.42
776.31	46
776.489	46.22
776.667	46.22
776.846	45.72
777.025	45.53
777.203	45.58
777.382	45.38
777.56	45.75
777.739	45.23
777.917	45.09
778.096	45.22
778.274	45.47
778.453	45.48
778.631	44.96
778.81	45.17
778.988	44.77
779.166	45.28
779.345	45.55
779.523	45.79
779.702	46
779.88	46.19
780.058	46.58
780.237	46.32
780.415	46.3
780.593	47.04
780.771	47.13
780.95	47.86
781.128	47.45
781.306	47.52
781.484	47.33
781.662	47.28
781.841	47.2
782.019	46.81
782.197	47.37
782.375	47.19
782.553	47.22
782.731	47.08
782.909	46.43
783.087	46.41
783.265	46.39
783.443	46.36
783.621	46.23
783.799	45.62
783.977	45.89
784.155	44.98
784.333	45.13
784.511	45.02
784.689	45.2
784.867	45.87
785.045	45.49
785.223	45.26
785.4	44.66
785.578	44.57
785.756	44.94
785.934	44.71
786.112	45.08
786.289	44.89
786.467	45.09
786.645	45.21
786.823	44.68
787	44.49
787.178	44.68
787.356	45.19
787.533	45.32
787.711	45.53
787.889	45.66
788.066	45.68
788.244	45.69
788.421	45.17
788.599	45.22
788.776	45.38
788.954	45.92
789.131	46.06
789.309	46.19
789.486	45.95
789.664	45.96
789.841	45.91
790.019	45.86
790.196	45.84
790.373	45.53
790.551	45.09
790.728	45.32
790.906	45.11
791.083	44.33
791.26	44.41
791.437	44.3
791.615	44.39
791.792	44.49
791.969	44.55
792.146	44.56
792.324	44.98
792.501	45.32
792.678	44.99
792.855	44.76
793.032	44.96
793.209	44.43
793.387	45.25
793.564	44.89
793.741	44.57
793.918	44.06
794.095	44.32
794.272	44.38
794.449	44.23
794.626	44.21
794.803	44.66
794.98	44.81
795.157	45.23
795.334	44.65
795.511	44.56
795.688	44.79
795.864	45.05
796.041	44.99
796.218	44.73
796.395	45.17
796.572	45.16
796.749	44.82
796.925	45.08
797.102	44.88
797.279	45.09
797.456	45.15
797.632	45.13
797.809	44.95
797.986	44.84
798.162	45.13
798.339	44.58
798.516	44.88
798.692	44.91
798.869	44.7
799.046	44.49
799.222	44.62
799.399	44.66
799.575	44.72
799.752	45.07
799.928	44.98
800.105	44.39
800.281	44.5
800.458	44.64
800.634	44.44
800.811	44.15
800.987	44.2
801.163	43.53
801.34	43.23
801.516	43.1
801.692	43.29
801.869	43.67
802.045	44.38
802.221	44
802.398	43.4
802.574	43.45
802.75	43.57
802.926	43.69
803.103	43.79
803.279	43.99
803.455	44.14
803.631	44.09
803.807	43.34
803.983	43.58
804.16	43.61
804.336	43.85
804.512	44.37
804.688	44.83
804.864	45.09
805.04	45.11
805.216	44.85
805.392	44.29
805.568	44.18
805.744	44.35
805.92	44.34
806.096	44.7
806.272	44.34
806.448	44.09
806.623	43.01
806.799	43.01
806.975	42.9
807.151	43.62
807.327	43.59
807.503	43.49
807.678	43.47
807.854	43.4
808.03	43.29
808.206	42.94
808.381	42.62
808.557	43.01
808.733	42.29
808.908	42.26
809.084	42.19
809.26	42.67
809.435	42
809.611	41.98
809.787	41.61
809.962	40.92
810.138	41.56
810.313	41.82
810.489	42.01
810.664	41.95
810.84	42.01
811.015	42.16
811.191	41.54
811.366	42.23
811.542	42.01
811.717	42.05
811.892	43.8
812.068	43.83
812.243	43.74
812.419	43.39
812.594	44.3
812.769	44.71
812.944	44.5
813.12	44.7
813.295	44.54
813.47	44.4
813.645	44.59
813.821	43.63
813.996	43.97
814.171	44.31
814.346	44.57
814.521	44.47
814.697	43.9
814.872	43.68
815.047	44.14
815.222	43.69
815.397	44.1
815.572	43.92
815.747	44.36
815.922	43.87
816.097	43.71
816.272	43.83
816.447	43.21
816.622	43.63
816.797	43.48
816.972	43.52
817.147	44.28
817.322	43.95
817.496	43.87
817.671	43.36
817.846	43.34
818.021	42.68
818.196	42.48
818.371	42.54
818.545	42.52
818.72	42.55
818.895	42.51
819.069	42.51
819.244	42.48
819.419	42.28
819.594	42.14
819.768	41.8
819.943	41.9
820.117	41.75
820.292	41.6
820.467	41.5
820.641	41.32
820.816	41.04
820.99	40.94
821.165	40.87
821.339	40.85
821.514	40.68
821.688	40.51
821.863	40.56
822.037	40.54
822.212	40.5
822.386	40.45
822.56	40.4
822.735	40.46
822.909	40.48
823.084	40.45
823.258	40.44
823.432	40.64
823.606	40.79
823.781	40.71
823.955	40.8
824.129	40.89
824.303	41.01
824.478	41.13
824.652	41.17
824.826	41.17
825	41.45
825.174	41.49
825.348	41.3
825.523	41.43
825.697	41.43
825.871	41.52
826.045	41.5
826.219	41.34
826.393	41.29
826.567	41.29
826.741	41.33
826.915	41.22
827.089	41.14
827.263	41.33
827.437	41.36
827.611	41.54
827.784	41.3
827.958	41.29
828.132	41.62
828.306	41.9
828.48	41.92
828.654	41.56
828.827	41.75
829.001	42.07
829.175	41.81
829.349	42.18
829.522	41.63
829.696	41.85
829.87	42.51
830.044	42.24
830.217	42.34
830.391	42.08
830.565	42.71
830.738	42.36
830.912	42.47
831.085	42.58
831.259	42.11
831.432	42.58
831.606	42.56
831.779	41.83
831.953	41.73
832.126	41.47
832.3	41.1
832.473	40.76
832.647	40.92
832.82	40.7
832.994	40.66
833.167	40.52
833.34	40.23
833.514	40.07
833.687	40.21
833.86	39.92
834.034	39.65
834.207	40.25
834.38	40.08
834.553	39.65
834.727	39.64
834.9	39.77
835.073	39.65
835.246	39.96
835.419	40.2
835.593	40.67
835.766	41.23
835.939	41.78
836.112	41.68
836.285	42.34
836.458	43.06
836.631	43.31
836.804	43.59
836.977	43.81
837.15	43.96
837.323	43.83
837.496	43.14
837.669	43.07
837.842	42.87
838.015	42.29
838.188	41.13
838.361	41.49
838.533	40.83
838.706	40.54
838.879	41.19
839.052	40.51
839.225	40.89
839.398	41.14
839.57	40.57
839.743	40.33
839.916	40.89
840.088	41.27
840.261	41.66
840.434	42.6
840.607	42.6
840.779	42.54
840.952	43.87
841.124	43.51
841.297	43.02
841.47	43.42
841.642	43.95
841.815	43.81
841.987	45.49
842.16	44.64
842.332	43.62
842.505	43.06
842.677	44.38
842.85	44.18
843.022	45.33
843.194	46.48
843.367	47.35
843.539	46.7
843.712	46.68
843.884	46.67
844.056	47.01
844.229	47.69
844.401	49.58
844.573	49.23
844.745	48.84
844.918	47.07
845.09	46.6
845.262	45.11
845.434	46.67
845.606	46.34
845.779	45.53
845.951	45.28
846.123	46.31
846.295	45.42
846.467	44.73
846.639	44.39
846.811	45.13
846.983	45.05
847.155	46.45
847.327	46.16
847.499	46.05
847.671	45.49
847.843	45.36
848.015	42.32
848.187	43.3
848.359	42.81
848.531	43.69
848.703	42.96
848.875	43.28
849.047	41.63
849.218	40.53
849.39	41.3
849.562	42.35
849.734	42.19
849.905	43.21
850.077	41.9
850.249	42.43
850.421	42.93
850.592	43.95
850.764	44.69
850.936	46.43
851.107	46.15
851.279	45.73
851.451	44.23
851.622	44.36
851.794	47.86
851.965	48.4
852.137	47.59
852.308	46.55
852.48	46.81
852.651	45.57
852.823	46.34
852.994	47.96
853.166	49
853.337	51.87
853.509	52.3
853.68	51.1
853.851	52.3
854.023	51.59
854.194	51.91
854.365	50.58
854.537	53.02
854.708	51.92
854.879	49.39
855.05	49.8
855.222	47.78
855.393	46.13
855.564	44.69
855.735	42.51
855.906	44.88
856.078	45.23
856.249	46.27
856.42	44.44
856.591	43.05
856.762	45.44
856.933	44.93
857.104	42.81
857.275	43.88
857.446	43.9
857.617	41.99
857.788	41.56
857.959	39.47
858.13	39.51
858.301	39.02
858.472	39.46
858.643	38.13
858.814	36.42
858.985	37.65
859.155	38.91
859.326	39.38
859.497	40.58
859.668	40.42
859.839	40.51
860.009	40.03
860.18	39.24
860.351	41.27
860.522	40.46
860.692	42.49
860.863	41.53
861.034	40.78
861.204	39.05
861.375	41.11
861.546	39.08
861.716	38.77
861.887	37
862.057	38.06
862.228	35.84
862.398	37.98
862.569	38.17
862.739	40.98
862.91	40.39
863.08	43.18
863.251	40.35
863.421	39.65
863.592	41.65
863.762	44.56
863.932	44.46
864.103	44.78
864.273	43.17
864.443	42.01
864.614	42.2
864.784	44.24
864.954	43.2
865.125	46.63
865.295	50
865.465	49.12
865.635	50.53
865.805	50.96
865.976	51.57
866.146	53.26
866.316	53.59
866.486	50.37
866.656	49.16
866.826	47.84
866.996	46.35
867.166	45.04
867.336	44.35
867.506	41.9
867.676	39.95
867.846	40.35
868.016	38.39
868.186	37.51
868.356	41.91
868.526	42.03
868.696	42.78
868.866	44.08
869.036	42.34
869.206	43.18
869.376	43.66
869.545	45.02
869.715	44.67
869.885	46.09
870.055	47.68
870.224	45.85
870.394	45.55
870.564	47
870.734	44.6
870.903	44.82
871.073	44.8
871.243	46.68
871.412	47.19
871.582	47.85
871.751	49.25
871.921	48.87
872.091	47.6
872.26	47.99
872.43	45.37
872.599	47.37
872.769	48.87
872.938	47.43
873.108	46.79
873.277	43.39
873.446	41.36
873.616	37.49
873.785	36.67
873.955	38.51
874.124	38.64
874.293	40.53
874.463	39.16
874.632	39.2
874.801	39.32
874.971	37.73
875.14	41.1
875.309	40.37
875.478	41.43
875.647	43.08
875.817	43.99
875.986	42.56
876.155	41.25
876.324	40.88
876.493	41.86
876.662	44.37
876.831	45.8
877	45.1
877.17	45.14
877.339	48.48
877.508	48.07
877.677	46.19
877.846	46.68
878.015	46.74
878.184	48.26
878.352	47.48
878.521	44.91
878.69	44.48
878.859	44.41
879.028	45.74
879.197	43.78
879.366	43.19
879.534	43.18
879.703	43.21
879.872	42.79
880.041	41.35
880.21	41.24
880.378	41.92
880.547	41.05
880.716	40.44
880.884	39.49
881.053	39.32
881.222	38.71
881.39	37.96
881.559	37.68
881.727	37.52
881.896	37.56
882.065	36.91
882.233	36.61
882.402	36.47
882.57	36.79
882.739	36.89
882.907	36.95
883.076	37.46
883.244	38.21
883.412	38.36
883.581	38.42
883.749	38.31
883.918	38.75
884.086	39.14
884.254	39.8
884.423	39.42
884.591	40.15
884.759	39.81
884.927	39.53
885.096	38.77
885.264	38.82
885.432	38.92
885.6	38.68
885.769	39.29
885.937	39.06
886.105	38.14
886.273	38.51
886.441	38.44
886.609	39.8
886.777	38.88
886.945	39.02
887.113	37.85
887.281	38.05
887.449	41.08
887.617	40.23
887.785	38.74
887.953	39.97
888.121	38.68
888.289	37.97
888.457	36.56
888.625	37.83
888.793	38.79
888.961	38.83
889.129	39.44
889.296	38.52
889.464	38.72
889.632	39.44
889.8	38.64
889.967	40.82
890.135	41.49
