Data from JASIL_3023_Reflection_01.txt Node
Date: Mon Nov 09 10:47:38 EST 2015
User: Geneva
Spectrometer: USB4E03002
Autoset integration time: false
Trigger mode: 4
Integration Time (sec): 1.000000E-1
Scans to average: 10
Electric dark correction enabled: false
Nonlinearity correction enabled: false
Boxcar width: 5
Stray light correction enabled: false
XAxis mode: Wavelengths
Stop averaging: false
Number of Pixels in Spectrum: 3648
>>>>>Begin Spectral Data<<<<<
177.575	1.11
177.794	-80.9
178.014	-78.38
178.233	-89.73
178.452	-177.78
178.672	-900
178.891	-2430.43
179.11	1648.78
179.33	5981.82
179.549	432.69
179.768	316.87
179.987	1151.39
180.207	-1036.67
180.426	-914.93
180.645	-228.37
180.864	-146.76
181.084	-142.58
181.303	-140.74
181.522	-136.46
181.741	-187.7
181.96	-335.74
182.179	-155.52
182.398	-193.83
182.618	-245.25
182.837	-300.49
183.056	-714.74
183.275	659.26
183.494	-884.44
183.713	-2192.5
183.932	-823.4
184.151	-2215.15
184.37	-285.86
184.589	-4638.89
184.808	448.99
185.027	358.18
185.246	249.12
185.465	163.73
185.684	249.71
185.903	120.05
186.122	77.3
186.341	122.13
186.56	129.24
186.779	681.63
186.998	-226.37
187.216	6.4
187.435	-85.42
187.654	-91.35
187.873	-88.28
188.092	-84.31
188.311	-63.66
188.53	-124.62
188.748	-153.82
188.967	-550.34
189.186	850.54
189.405	522.47
189.623	836.45
189.842	1201.59
190.061	-12460
190.28	-521.28
190.498	-515.24
190.717	-235.24
190.936	-245.98
191.154	-135.71
191.373	-70.85
191.592	-132.87
191.81	-34.93
192.029	-105.82
192.248	-147.19
192.466	-163.27
192.685	-237.44
192.904	-2360.87
193.122	714.49
193.341	-9500
193.559	4916.67
193.778	679.55
193.996	742.86
194.215	472.34
194.433	363.3
194.652	289.24
194.87	214.95
195.089	178.9
195.307	398.67
195.526	383.33
195.744	342.93
195.963	472.79
196.181	-1331.91
196.399	-418.67
196.618	-427.74
196.836	-247.03
197.055	-225.23
197.273	-173.79
197.491	-192.5
197.71	-126.42
197.928	-121.65
198.146	-106.53
198.365	-149.3
198.583	-3888.89
198.801	196.46
199.019	222.78
199.238	172.92
199.456	251.02
199.674	341.38
199.892	643.52
200.111	523
200.329	757.14
200.547	-3141.67
200.765	667.53
200.983	-286.75
201.202	-273.21
201.42	-122.77
201.638	-41.44
201.856	-109.63
202.074	-256.57
202.292	-223.81
202.51	-163.89
202.728	-1375
202.946	78.03
203.165	1094.74
203.383	-17.31
203.601	-186.36
203.819	63.95
204.037	112.5
204.255	21
204.473	48.87
204.691	-3.92
204.909	828.57
205.127	-796.97
205.345	-723.53
205.562	837.04
205.78	-448
205.998	-442.03
206.216	-262.26
206.434	-446.07
206.652	-7128.57
206.87	883.05
207.088	361.21
207.306	294.9
207.523	403.03
207.741	551.65
207.959	289.19
208.177	247.68
208.395	263.96
208.612	196.21
208.83	151.07
209.048	161.41
209.266	316.18
209.483	518.03
209.701	-1417.24
209.919	8300
210.136	416.36
210.354	1875
210.572	-512.77
210.79	-977.78
211.007	436.5
211.225	350.88
211.442	971.05
211.66	-240.16
211.878	-423.68
212.095	-641.51
212.313	-16066.67
212.53	-304.92
212.748	-153.55
212.966	-663.41
213.183	-13200
213.401	-61.06
213.618	-27.18
213.836	-71.31
214.053	-35.68
214.271	-111.41
214.488	-10.63
214.705	-58.3
214.923	-62.56
215.14	-129.13
215.358	-117.88
215.575	-26.24
215.793	-318.18
216.01	-1187.5
216.227	-498.15
216.445	172.04
216.662	356.12
216.879	225.66
217.097	224.41
217.314	429.84
217.531	905.17
217.749	-234.42
217.966	-414.62
218.183	-114.14
218.4	-82.44
218.618	-104.42
218.835	-71.67
219.052	-46.07
219.269	-96.49
219.487	-100.65
219.704	-113.54
219.921	-157.93
220.138	-250
220.355	-232.49
220.572	-17466.67
220.79	471.3
221.007	380.15
221.224	421.88
221.441	344.3
221.658	-157.82
221.875	-136.94
222.092	-78.68
222.309	-41.03
222.526	-58.67
222.743	-28.91
222.96	-32.72
223.177	-13.56
223.394	3.07
223.611	-6.88
223.828	3.84
224.045	14.08
224.262	28.45
224.479	27.37
224.696	16.02
224.913	16.62
225.13	13.16
225.347	22.19
225.564	11.21
225.781	5.95
225.997	8.95
226.214	17.19
226.431	15.44
226.648	11.34
226.865	11.12
227.082	16.73
227.298	16.09
227.515	11.14
227.732	11.66
227.949	6.56
228.165	3.07
228.382	-0.14
228.599	-4.56
228.816	-6.03
229.032	-12.58
229.249	-19.33
229.466	-29.32
229.682	-32.55
229.899	-27.48
230.116	-37.82
230.332	-33.29
230.549	-36.38
230.765	-35.19
230.982	-36.44
231.199	-28.34
231.415	-29.78
231.632	-26.94
231.848	-28.92
232.065	-16.8
232.281	-33.81
232.498	-32.4
232.714	-24.61
232.931	-16.81
233.147	-23.45
233.364	-26.6
233.58	-42.77
233.797	-42.87
234.013	-38.59
234.23	-35.63
234.446	-36.37
234.662	-19.95
234.879	-15.26
235.095	-14.59
235.312	-18.35
235.528	-25.85
235.744	-23.6
235.961	-21.26
236.177	-18.71
236.393	-23.6
236.61	-37.29
236.826	-33.94
237.042	-32.36
237.258	-31.01
237.475	-31.35
237.691	-32.72
237.907	-16.19
238.123	-19.69
238.339	-20.38
238.556	-15.09
238.772	-15.75
238.988	-9.24
239.204	-12.03
239.42	-12.94
239.636	-14.73
239.853	-17.01
240.069	-16.46
240.285	-20.8
240.501	-16.34
240.717	-9.05
240.933	-11.4
241.149	-8.97
241.365	-11.22
241.581	-11.97
241.797	-10.44
242.013	-6.92
242.229	-7.05
242.445	-9.35
242.661	-8.52
242.877	-8.77
243.093	-17.91
243.309	-13.97
243.525	-19.9
243.741	-6.53
243.957	-6.27
244.173	-6.05
244.388	-7.14
244.604	-2.66
244.82	0.53
245.036	2.37
245.252	3.36
245.468	5
245.683	4.07
245.899	4.87
246.115	0.98
246.331	2.16
246.547	1.55
246.762	1.57
246.978	-1.06
247.194	-2.01
247.409	-2.36
247.625	-6.03
247.841	-8.05
248.057	-6.39
248.272	-9.92
248.488	-8.34
248.703	-11.79
248.919	-9.95
249.135	-15.85
249.35	-14
249.566	-9.36
249.782	-11.5
249.997	-6.72
250.213	-2.9
250.428	-6.08
250.644	-0.92
250.859	-1.68
251.075	1.95
251.29	-2.19
251.506	2.46
251.721	-1.28
251.937	-8.62
252.152	-6.02
252.368	-6.15
252.583	-7.48
252.798	-9.21
253.014	-4.43
253.229	-5.73
253.445	-13.21
253.66	-14.77
253.875	-20.55
254.091	-18.3
254.306	-7.75
254.521	-7.46
254.737	-15.75
254.952	-14.18
255.167	-12.65
255.383	-25.57
255.598	-21.66
255.813	-18.55
256.028	-18.07
256.244	-11.54
256.459	-8.21
256.674	-8.78
256.889	-11.89
257.104	-4.22
257.32	-3.52
257.535	-3.41
257.75	1.54
257.965	2.05
258.18	4.56
258.395	4.72
258.61	4.6
258.826	5.02
259.041	4.79
259.256	4.68
259.471	2.55
259.686	1.84
259.901	2.61
260.116	0.23
260.331	0.77
260.546	-2.65
260.761	-2.09
260.976	-3.57
261.191	-4.17
261.406	-4.04
261.621	-0.35
261.836	0.16
262.05	0.41
262.265	-1.2
262.48	-1.48
262.695	-2.38
262.91	1.62
263.125	-0.61
263.34	-0.7
263.555	-3.88
263.769	-3.79
263.984	-1.97
264.199	1.21
264.414	-1.36
264.629	-3.45
264.843	-1.51
265.058	-5.41
265.273	-7.7
265.488	-4.5
265.702	-6.14
265.917	-4.37
266.132	-1.93
266.346	-3.76
266.561	-5.3
266.776	-3.03
266.99	-2.74
267.205	-1.67
267.42	-0.45
267.634	0.76
267.849	1.5
268.063	0.95
268.278	2.55
268.492	-0.37
268.707	-2.2
268.922	-0.22
269.136	1.31
269.351	0.94
269.565	-0.02
269.78	-2.34
269.994	-5.7
270.209	-7.21
270.423	-5.94
270.637	-6.72
270.852	-3.21
271.066	-1.65
271.281	-2.74
271.495	-3.02
271.709	-2.41
271.924	-2.8
272.138	-2.66
272.353	-3.01
272.567	-3.54
272.781	-1.72
272.996	-2.26
273.21	-7.49
273.424	-6.76
273.638	-7.07
273.853	-6.66
274.067	-6.44
274.281	-5.4
274.495	-3.2
274.71	-2.27
274.924	-3.07
275.138	-2.01
275.352	-2.39
275.566	-2.52
275.781	-5.51
275.995	-5.04
276.209	-7.64
276.423	-6.97
276.637	-6.46
276.851	-6.49
277.065	-2.95
277.279	-1.76
277.493	-1.72
277.707	-4.86
277.921	-3.07
278.135	-1.5
278.349	-2.31
278.563	-5.03
278.777	-4.79
278.991	-6.65
279.205	-5.41
279.419	-7.63
279.633	-6.45
279.847	-9.12
280.061	-8.8
280.275	-10.86
280.489	-10.7
280.703	-12.34
280.917	-9.01
281.131	-8.3
281.344	-11.13
281.558	-11.91
281.772	-11.38
281.986	-12.37
282.2	-13.94
282.414	-9.62
282.627	-8.28
282.841	-10.39
283.055	-9.3
283.269	-11.56
283.482	-13.53
283.696	-9.26
283.91	-8
284.123	-7.78
284.337	-7.9
284.551	-5.33
284.764	-7.54
284.978	-5.8
285.192	-4.25
285.405	-3.91
285.619	-2.9
285.833	-1.81
286.046	-2.43
286.26	-4.23
286.473	-4.24
286.687	-2.88
286.9	-2.51
287.114	-1.18
287.327	-1.11
287.541	-1.31
287.754	-1.67
287.968	0.22
288.181	-0.09
288.395	-1.53
288.608	-1.88
288.822	-3.06
289.035	-5.49
289.248	-6.09
289.462	-6.43
289.675	-8.05
289.889	-10.05
290.102	-9.92
290.315	-10.73
290.529	-10.2
290.742	-7.41
290.955	-6.97
291.169	-5.45
291.382	-3.6
291.595	-5.37
291.808	-7.4
292.022	-7.35
292.235	-5.1
292.448	-4.93
292.661	-5.03
292.875	-8.31
293.088	-12.8
293.301	-12.87
293.514	-13.39
293.727	-12.73
293.94	-13.64
294.153	-11.04
294.367	-10.36
294.58	-11.4
294.793	-9.55
295.006	-7.15
295.219	-4.74
295.432	-3.34
295.645	-1.16
295.858	0.57
296.071	0.25
296.284	0.47
296.497	1.56
296.71	0.65
296.923	1.08
297.136	-1.35
297.349	-3.04
297.562	-4.81
297.775	-2.97
297.988	-3.1
298.201	-3.81
298.414	-2.89
298.626	0.46
298.839	-1.13
299.052	1.6
299.265	1.57
299.478	2.7
299.691	2.08
299.903	3.39
300.116	3
300.329	3.66
300.542	6.05
300.755	5.42
300.967	4.73
301.18	2.54
301.393	1.7
301.605	2.17
301.818	3.09
302.031	2.39
302.243	1.96
302.456	-0.03
302.669	-0.33
302.881	-2.31
303.094	-2.72
303.307	-4.65
303.519	-4.4
303.732	-4.81
303.944	-7.75
304.157	-7.39
304.37	-6.36
304.582	-6.28
304.795	-6.44
305.007	-8.18
305.22	-8.69
305.432	-8.12
305.645	-6.66
305.857	-7.76
306.069	-7.32
306.282	-3.02
306.494	-3.3
306.707	-2.31
306.919	-1.33
307.132	-1.53
307.344	-1.42
307.556	-0.01
307.769	-2.2
307.981	-1.5
308.193	0.08
308.406	0.38
308.618	-0.68
308.83	-1.79
309.043	-4.22
309.255	-3.46
309.467	-2.19
309.679	-0.9
309.892	-1.87
310.104	-0.05
310.316	0.37
310.528	-0.53
310.74	-1.57
310.953	0.36
311.165	1.36
311.377	4.34
311.589	2.79
311.801	3.19
312.013	2.18
312.225	0.22
312.437	-2.12
312.649	-6.57
312.862	-4.61
313.074	-7.29
313.286	-8.21
313.498	-7.69
313.71	-8.45
313.922	-6.63
314.134	-7.05
314.346	-9.24
314.558	-7.57
314.77	-6.96
314.982	-6.07
315.193	-5.84
315.405	-4.04
315.617	-4.13
315.829	0.23
316.041	0.71
316.253	-0.45
316.465	-2.19
316.677	1.7
316.888	0.63
317.1	3.78
317.312	5.62
317.524	4.9
317.736	6.97
317.947	5.2
318.159	3.4
318.371	3.47
318.583	5.45
318.794	7.35
319.006	4.01
319.218	4.26
319.43	2.08
319.641	3.51
319.853	5.04
320.064	3.44
320.276	5.03
320.488	3.81
320.699	4.67
320.911	4.44
321.123	6.41
321.334	5.41
321.546	5.94
321.757	8.05
321.969	9.52
322.18	7.61
322.392	10.39
322.603	7.9
322.815	4.85
323.026	3.43
323.238	5.71
323.449	3.14
323.661	5.8
323.872	4.52
324.083	3.74
324.295	2.39
324.506	3.02
324.718	-0.59
324.929	-0.06
325.14	0.32
325.352	-0.3
325.563	-3.36
325.774	-3.5
325.986	-2.32
326.197	-1.97
326.408	-2.91
326.62	-2.13
326.831	-3.34
327.042	-0.3
327.253	2.02
327.464	3.62
327.676	4.31
327.887	6.73
328.098	7.38
328.309	3.27
328.52	5.03
328.732	4.39
328.943	3.93
329.154	4.62
329.365	-0.26
329.576	-2.21
329.787	-3.88
329.998	-3.83
330.209	-5.27
330.42	-7.12
330.631	-3.54
330.842	-6.03
331.053	-4.47
331.264	-3.19
331.475	-3.22
331.686	1.27
331.897	0.66
332.108	-0.81
332.319	2.31
332.53	0.48
332.741	4.07
332.952	1.48
333.163	4.34
333.374	4.84
333.585	3.99
333.795	3.23
334.006	2.18
334.217	4.55
334.428	6
334.639	0.41
334.849	0.03
335.06	-2.12
335.271	2.74
335.482	2.5
335.692	2.51
335.903	1.78
336.114	3.42
336.325	2.35
336.535	0.86
336.746	2.55
336.957	3.72
337.167	6.56
337.378	7.16
337.589	3.54
337.799	2.75
338.01	3.43
338.22	4.96
338.431	5.56
338.642	4.88
338.852	3.17
339.063	1.53
339.273	4.22
339.484	3.21
339.694	0.37
339.905	1.39
340.115	1.07
340.326	2.22
340.536	0.25
340.746	-0.19
340.957	2.15
341.167	2.94
341.378	3.08
341.588	0.97
341.799	-1.5
342.009	1.52
342.219	1.17
342.43	3.38
342.64	0.71
342.85	2.23
343.061	2.48
343.271	0.21
343.481	-0.58
343.691	-1.37
343.902	-1.55
344.112	-0.42
344.322	-2.81
344.532	-1.74
344.743	-3.39
344.953	-2.85
345.163	-2.04
345.373	-1.51
345.583	0.18
345.793	2.28
346.004	3.14
346.214	4.48
346.424	3.8
346.634	6.26
346.844	6.04
347.054	5.66
347.264	3.97
347.474	2.79
347.684	0.99
347.894	1.48
348.104	1.63
348.314	1.71
348.524	1.22
348.734	3.39
348.944	1.04
349.154	0.93
349.364	2.98
349.574	4.11
349.784	2.93
349.994	2.21
350.204	3.74
350.413	2.66
350.623	3.03
350.833	2.02
351.043	0.56
351.253	2.43
351.463	1.24
351.672	-0.34
351.882	1.69
352.092	2.92
352.302	5.36
352.511	3.74
352.721	5.34
352.931	4.24
353.141	4.97
353.35	6.05
353.56	6.55
353.77	6.62
353.979	5.59
354.189	4.74
354.399	5.16
354.608	5.65
354.818	5.03
355.027	2.57
355.237	3.67
355.447	3.93
355.656	3.95
355.866	3.35
356.075	3.07
356.285	4.63
356.494	5.36
356.704	5.09
356.913	4.8
357.123	5.81
357.332	7.72
357.542	7.66
357.751	7.03
357.96	5.1
358.17	5.48
358.379	6.09
358.589	6.47
358.798	4.58
359.007	5.54
359.217	5.28
359.426	4.94
359.635	4.28
359.845	3.96
360.054	4.3
360.263	5.79
360.472	5.85
360.682	6.18
360.891	5.68
361.1	7.2
361.309	5.98
361.519	5.38
361.728	4.67
361.937	4.92
362.146	4.89
362.355	5.75
362.564	5.56
362.774	6.87
362.983	6.01
363.192	6.34
363.401	4.65
363.61	4.54
363.819	4.81
364.028	5.17
364.237	4.88
364.446	4.51
364.655	3.77
364.864	4.53
365.073	3.43
365.282	3.88
365.491	4.78
365.7	6.94
365.909	7.43
366.118	8.52
366.327	8.76
366.536	10.13
366.745	10.43
366.954	10.14
367.162	9.29
367.371	8.86
367.58	8.31
367.789	6.54
367.998	5.37
368.207	5.85
368.415	4.44
368.624	4.51
368.833	2.86
369.042	3.21
369.25	2.61
369.459	2.83
369.668	2.02
369.877	2.3
370.085	2.8
370.294	3.62
370.503	2.92
370.711	3.71
370.92	3.33
371.129	3.26
371.337	2.02
371.546	3.67
371.754	3.46
371.963	4.6
372.171	5.89
372.38	7.93
372.589	7.82
372.797	7.75
373.006	7.72
373.214	7.02
373.423	7.1
373.631	9.47
373.84	7.21
374.048	6.96
374.256	7.06
374.465	6.1
374.673	3.02
374.882	2.97
375.09	3.53
375.298	2.59
375.507	3.55
375.715	4.32
375.923	3.09
376.132	5.5
376.34	6.28
376.548	5.64
376.757	6.18
376.965	6.94
377.173	6.95
377.381	8.11
377.59	8.97
377.798	8.96
378.006	8.78
378.214	8.92
378.423	8.71
378.631	8.72
378.839	8.49
379.047	8.51
379.255	8.77
379.463	6.77
379.671	4.76
379.879	4.16
380.088	4.47
380.296	4.53
380.504	3.26
380.712	1.73
380.92	1.5
381.128	1.05
381.336	0.71
381.544	0.22
381.752	1.53
381.96	2.42
382.168	2.11
382.376	2.41
382.584	1.26
382.791	3.19
382.999	4.17
383.207	4.53
383.415	5.17
383.623	4.84
383.831	5.37
384.039	5.91
384.247	6.02
384.454	5.47
384.662	5.32
384.87	7.33
385.078	7.16
385.285	7.21
385.493	6.44
385.701	6.57
385.909	7.82
386.116	7.38
386.324	7.47
386.532	7.53
386.739	7.95
386.947	8.19
387.155	6.84
387.362	5.83
387.57	5.27
387.778	4.6
387.985	4
388.193	2.49
388.4	3.14
388.608	2.31
388.816	1.95
389.023	2.47
389.231	1.78
389.438	0.93
389.646	-0.05
389.853	0.15
390.061	0.88
390.268	2.14
390.475	3.19
390.683	2.26
390.89	0.99
391.098	1.1
391.305	1.35
391.512	2.08
391.72	2.08
391.927	3.6
392.135	4.11
392.342	3.72
392.549	1.65
392.756	0.56
392.964	1.63
393.171	3.43
393.378	3.79
393.586	3.1
393.793	1.84
394	3.17
394.207	3.2
394.414	3.12
394.622	3.2
394.829	3.76
395.036	4.19
395.243	3.83
395.45	3.84
395.657	3.89
395.864	4.28
396.072	3.98
396.279	3.28
396.486	3.14
396.693	2.67
396.9	3.48
397.107	4.13
397.314	3.49
397.521	3.12
397.728	2.13
397.935	1.08
398.142	1.25
398.349	1.56
398.556	1.27
398.763	-0.15
398.97	-0.69
399.177	-1.06
399.383	0.71
399.59	0.61
399.797	0.68
400.004	2.33
400.211	2.33
400.418	1.05
400.625	0.97
400.831	1.6
401.038	2.49
401.245	4.75
401.452	4.37
401.658	3.33
401.865	5.37
402.072	5.68
402.279	5.53
402.485	5.08
402.692	6.16
402.899	6.18
403.105	6.58
403.312	7.23
403.519	6.21
403.725	6.97
403.932	6.41
404.138	6.35
404.345	5.48
404.552	4.07
404.758	4.26
404.965	3.33
405.171	3.68
405.378	2.36
405.584	2.04
405.791	1.6
405.997	1.42
406.204	2.13
406.41	0.31
406.617	0.59
406.823	1.65
407.029	2.76
407.236	4.65
407.442	4.67
407.649	5.21
407.855	5.96
408.061	6.04
408.268	4.69
408.474	3.22
408.68	4.29
408.887	4.48
409.093	4.9
409.299	3.91
409.505	3.49
409.712	3.31
409.918	5.07
410.124	4.97
410.33	4.48
410.537	5.16
410.743	5.28
410.949	4.54
411.155	5.55
411.361	5.15
411.567	4.64
411.773	3.96
411.98	4.22
412.186	2.44
412.392	1.7
412.598	2.14
412.804	3.03
413.01	3.83
413.216	3.8
413.422	3.42
413.628	2.75
413.834	3.65
414.04	3.66
414.246	3.56
414.452	3.3
414.658	3.48
414.864	3.75
415.07	2.51
415.275	1.2
415.481	0.87
415.687	0.76
415.893	0.76
416.099	0.99
416.305	1.06
416.511	1.38
416.716	1.82
416.922	1.67
417.128	1.52
417.334	1.78
417.539	2.58
417.745	3.27
417.951	3.63
418.157	4.46
418.362	4.26
418.568	3.89
418.774	3.44
418.979	2.68
419.185	2.92
419.391	2.59
419.596	2.72
419.802	2.94
420.008	2.84
420.213	-1.71
420.419	-2.13
420.624	-2.33
420.83	-2.14
421.035	-1.94
421.241	-1.07
421.446	-1.34
421.652	-0.91
421.857	-0.81
422.063	-0.66
422.268	-1.11
422.474	2.78
422.679	2.31
422.885	2.74
423.09	2.76
423.295	2.6
423.501	2.14
423.706	2.32
423.911	2.1
424.117	1.79
424.322	1.12
424.527	1.64
424.733	2.4
424.938	2.85
425.143	2.61
425.349	2.61
425.554	2.45
425.759	3.19
425.964	3.18
426.169	3.82
426.375	3.8
426.58	4.65
426.785	4.31
426.99	3.67
427.195	3.91
427.4	3.85
427.605	4.5
427.811	5.3
428.016	4.16
428.221	3.39
428.426	2.11
428.631	2.61
428.836	2.7
429.041	2.62
429.246	2.91
429.451	2.58
429.656	2.28
429.861	1.71
430.066	1.16
430.271	1.8
430.476	3.36
430.681	3.6
430.886	3.14
431.09	2.43
431.295	2.53
431.5	2.15
431.705	1.69
431.91	1.71
432.115	1.86
432.32	1.47
432.524	2.26
432.729	1.41
432.934	1.68
433.139	2.02
433.343	2.16
433.548	1.82
433.753	1.81
433.958	2.29
434.162	2.21
434.367	1.76
434.572	2.57
434.776	1.36
434.981	0.94
435.186	0.46
435.39	0.65
435.595	0.7
435.799	0.51
436.004	0.37
436.209	0.84
436.413	1.75
436.618	1.98
436.822	1.74
437.027	1.49
437.231	2.06
437.436	2.28
437.64	1.96
437.845	2.36
438.049	3.11
438.253	3.41
438.458	3.12
438.662	2.21
438.867	2.06
439.071	1.96
439.275	2.38
439.48	1.75
439.684	2.24
439.888	2.64
440.093	2.55
440.297	2.45
440.501	2.63
440.706	2.6
440.91	2.71
441.114	2.42
441.318	2.51
441.523	2.14
441.727	2.69
441.931	2.54
442.135	2.46
442.339	2.27
442.543	2.2
442.748	2.4
442.952	2.3
443.156	2.84
443.36	3.54
443.564	3.91
443.768	4.24
443.972	4.39
444.176	3.74
444.38	3.87
444.584	4.57
444.788	4.83
444.992	4.32
445.196	4.35
445.4	4.07
445.604	3.62
445.808	3.14
446.012	3.19
446.216	2.96
446.42	3.2
446.624	2.93
446.828	2.31
447.032	1.92
447.235	1.8
447.439	1.49
447.643	1.85
447.847	2.35
448.051	3.08
448.254	2.58
448.458	2.54
448.662	3
448.866	2.89
449.069	2.64
449.273	2.52
449.477	2.81
449.681	3.4
449.884	3.41
450.088	3.2
450.292	3.01
450.495	3.84
450.699	3.88
450.902	3.58
451.106	3.77
451.31	3.56
451.513	3.73
451.717	3.98
451.92	3.65
452.124	2.89
452.327	2.64
452.531	1.99
452.734	1.67
452.938	1.18
453.141	0.72
453.345	0.68
453.548	0.96
453.752	0.87
453.955	1.23
454.158	0.78
454.362	1.28
454.565	1.57
454.769	1.58
454.972	1.75
455.175	1.99
455.379	2.44
455.582	1.97
455.785	2.31
455.988	2.74
456.192	2.4
456.395	3.23
456.598	3.7
456.801	3.28
457.005	3.59
457.208	2.93
457.411	3.49
457.614	3.79
457.817	3.97
458.021	4.13
458.224	3.75
458.427	4.09
458.63	4.22
458.833	3.91
459.036	4.18
459.239	3.9
459.442	3.77
459.645	3.52
459.848	3.29
460.051	3.53
460.254	3.33
460.457	3
460.66	2.48
460.863	1.67
461.066	1.29
461.269	1.34
461.472	1.25
461.675	1.48
461.878	1.18
462.081	1.42
462.284	0.5
462.486	0.34
462.689	0.9
462.892	1.08
463.095	1.65
463.298	1.96
463.5	1.54
463.703	2.14
463.906	2.73
464.109	3.03
464.311	2.76
464.514	3.04
464.717	2.66
464.92	2.75
465.122	2.34
465.325	2.12
465.528	2.73
465.73	2.84
465.933	3.03
466.135	2.99
466.338	2.14
466.541	2.16
466.743	1.81
466.946	2.48
467.148	2.28
467.351	2.57
467.553	2.76
467.756	2.33
467.958	2.14
468.161	1.75
468.363	1.78
468.566	2.52
468.768	2.69
468.971	3.04
469.173	2.77
469.375	2.64
469.578	2.5
469.78	2.04
469.983	2.24
470.185	2.73
470.387	3.05
470.59	2.89
470.792	2.86
470.994	2.86
471.196	3.26
471.399	3.88
471.601	4.43
471.803	4.11
472.005	4.91
472.208	3.95
472.41	4.06
472.612	3.82
472.814	4.12
473.016	4.61
473.218	4.42
473.421	3.63
473.623	2.83
473.825	2.18
474.027	2.6
474.229	2.39
474.431	2.85
474.633	2.32
474.835	2.69
475.037	2.59
475.239	2.07
475.441	2.15
475.643	2.02
475.845	2.06
476.047	2.15
476.249	1.96
476.451	1.4
476.653	1.95
476.855	2.34
477.057	1.56
477.258	1.37
477.46	1.72
477.662	1.37
477.864	1.99
478.066	2.39
478.268	2.18
478.469	2.48
478.671	2.96
478.873	2.44
479.075	2.31
479.276	3.04
479.478	2.7
479.68	2.9
479.882	3.23
480.083	2.81
480.285	2.64
480.487	2.79
480.688	2.77
480.89	2.83
481.091	2.93
481.293	3.03
481.495	2.9
481.696	3.06
481.898	2.95
482.099	3.07
482.301	3.25
482.502	3.35
482.704	3.48
482.905	3.58
483.107	3.46
483.308	3.51
483.51	3.52
483.711	3.55
483.913	3.66
484.114	3.44
484.315	3.22
484.517	3.25
484.718	3.09
484.92	2.98
485.121	2.78
485.322	3.01
485.524	3.06
485.725	3.09
485.926	3.04
486.127	2.98
486.329	3.09
486.53	3.12
486.731	3.24
486.932	3.44
487.134	3.47
487.335	3.38
487.536	3.37
487.737	3.24
487.938	3.35
488.139	3.45
488.341	3.56
488.542	3.63
488.743	3.7
488.944	3.73
489.145	3.41
489.346	3.71
489.547	3.77
489.748	3.61
489.949	3.8
490.15	3.5
490.351	3.38
490.552	3.34
490.753	3.38
490.954	3.34
491.155	3.14
491.356	3.07
491.557	2.79
491.758	2.92
491.959	2.9
492.159	2.6
492.36	2.79
492.561	2.82
492.762	2.65
492.963	2.77
493.164	2.89
493.364	2.56
493.565	2.61
493.766	2.67
493.967	2.62
494.167	2.84
494.368	2.84
494.569	2.25
494.769	2.09
494.97	1.63
495.171	2.01
495.371	2.31
495.572	2.67
495.773	3.04
495.973	3.02
496.174	2.88
496.375	2.84
496.575	2.31
496.776	2.77
496.976	2.65
497.177	3.28
497.377	2.92
497.578	2.08
497.778	2.07
497.979	1.66
498.179	1.64
498.38	1.42
498.58	0.97
498.78	1.86
498.981	1.95
499.181	1.72
499.382	1.87
499.582	1.91
499.782	2.06
499.983	2.23
500.183	2.42
500.383	2.72
500.584	3.11
500.784	3.31
500.984	2.84
501.184	2.31
501.385	2.7
501.585	2.23
501.785	1.83
501.985	2.13
502.185	2.14
502.386	2.77
502.586	2.76
502.786	2.63
502.986	2.92
503.186	3.24
503.386	3.63
503.586	3.78
503.786	4.04
503.987	4.51
504.187	4.3
504.387	4.1
504.587	3.57
504.787	3.57
504.987	4.04
505.187	4.39
505.387	3.84
505.587	3.77
505.786	4.09
505.986	3.92
506.186	4.36
506.386	4.68
506.586	4.75
506.786	4.91
506.986	4.28
507.186	4.31
507.386	4.47
507.585	4.99
507.785	5.48
507.985	5.54
508.185	5.52
508.384	5.54
508.584	5.88
508.784	6.16
508.984	6.31
509.183	7.16
509.383	6.82
509.583	6.51
509.782	6.91
509.982	7.16
510.182	6.97
510.381	7.32
510.581	6.58
510.781	6.13
510.98	6.12
511.18	5.85
511.379	5.37
511.579	5.32
511.778	5.35
511.978	5.01
512.177	4.65
512.377	4.45
512.576	4.67
512.776	5.16
512.975	5.79
513.175	5.77
513.374	5.61
513.573	5.82
513.773	5.65
513.972	5.42
514.172	5.32
514.371	4.99
514.57	5.46
514.77	5.11
514.969	5.18
515.168	4.81
515.367	4.93
515.567	5.39
515.766	5.44
515.965	5.84
516.164	6.25
516.364	6.52
516.563	6.91
516.762	6.92
516.961	7.05
517.16	6.88
517.359	7.09
517.559	7.14
517.758	6.93
517.957	7.13
518.156	7.61
518.355	7.85
518.554	7.58
518.753	7.53
518.952	7.14
519.151	7.09
519.35	7.82
519.549	8.16
519.748	8.27
519.947	8.67
520.146	8.63
520.345	8.2
520.544	7.84
520.743	8.18
520.942	8.07
521.141	8.25
521.339	8.48
521.538	8.08
521.737	8.22
521.936	8.35
522.135	8.32
522.333	8.17
522.532	7.92
522.731	7.92
522.93	7.92
523.129	8.01
523.327	8.62
523.526	8.48
523.725	8.13
523.923	7.97
524.122	7.96
524.321	8.15
524.519	8.48
524.718	8.5
524.917	8.65
525.115	8.61
525.314	8.7
525.512	8.37
525.711	8.32
525.909	8.43
526.108	8.17
526.306	8.27
526.505	8.47
526.703	8.4
526.902	8.45
527.1	8.67
527.299	8.93
527.497	8.93
527.696	8.88
527.894	9.05
528.092	9.31
528.291	9.49
528.489	9.55
528.688	9.31
528.886	9.29
529.084	9.45
529.283	9.17
529.481	9.2
529.679	9.27
529.877	9.58
530.076	9.59
530.274	9.49
530.472	9.41
530.67	9.44
530.869	9.67
531.067	10.05
531.265	10.34
531.463	10.54
531.661	10.65
531.859	10.76
532.057	10.78
532.255	10.76
532.454	10.94
532.652	11.04
532.85	10.9
533.048	10.98
533.246	10.87
533.444	10.73
533.642	10.8
533.84	10.82
534.038	10.8
534.236	10.77
534.434	10.9
534.632	10.63
534.83	10.74
535.027	11.02
535.225	10.87
535.423	10.97
535.621	11.22
535.819	11.5
536.017	11.12
536.215	11.22
536.412	11.52
536.61	11.55
536.808	11.87
537.006	11.92
537.203	12.03
537.401	12.19
537.599	12.29
537.797	12.25
537.994	12
538.192	12.28
538.39	12.39
538.587	12.33
538.785	12.22
538.983	12.2
539.18	12.27
539.378	12.2
539.575	12.31
539.773	11.97
539.97	11.89
540.168	12.27
540.366	12.27
540.563	12.28
540.761	12.32
540.958	12.58
541.155	12.44
541.353	12.78
541.55	12.79
541.748	12.8
541.945	13.28
542.143	13.41
542.34	13.16
542.537	13.33
542.735	13.28
542.932	13.08
543.129	12.97
543.327	13.67
543.524	13.35
543.721	13.56
543.919	13.76
544.116	13.71
544.313	13.85
544.51	14.11
544.708	14.05
544.905	13.88
545.102	14.02
545.299	14.02
545.496	13.45
545.693	13.35
545.891	13.41
546.088	13.36
546.285	13.06
546.482	13.09
546.679	12.83
546.876	12.97
547.073	13.94
547.27	14.61
547.467	14.67
547.664	14.73
547.861	14.59
548.058	14.49
548.255	14.59
548.452	14.76
548.649	14.64
548.846	15.04
549.043	15.32
549.24	14.39
549.437	13.72
549.633	12.91
549.83	13.08
550.027	13.63
550.224	13.37
550.421	13.31
550.618	13.9
550.814	13.93
551.011	13.54
551.208	13.39
551.405	13.85
551.601	13.63
551.798	14.49
551.995	14.14
552.191	13.74
552.388	14.08
552.585	13.86
552.781	13.82
552.978	13.99
553.175	14.48
553.371	14.64
553.568	14.73
553.764	15.07
553.961	15.25
554.157	15.96
554.354	16.43
554.55	16.25
554.747	17.1
554.943	16.6
555.14	16.51
555.336	16.39
555.533	16.74
555.729	16.14
555.926	15.89
556.122	16.52
556.318	17.13
556.515	17.12
556.711	18.11
556.907	17.74
557.104	18.11
557.3	18.66
557.496	18.58
557.693	18.19
557.889	18.98
558.085	19.91
558.281	19.14
558.478	18.9
558.674	19.52
558.87	19.2
559.066	19.41
559.262	18.81
559.459	18.74
559.655	18.96
559.851	18.78
560.047	19.15
560.243	18.25
560.439	18.52
560.635	17.89
560.831	18.18
561.027	18.44
561.223	18.47
561.419	19.06
561.615	18.82
561.811	18.5
562.007	18.89
562.203	18.54
562.399	18.78
562.595	19.24
562.791	19.44
562.987	18.61
563.183	18.6
563.379	18.8
563.575	18.88
563.771	19.19
563.966	19.11
564.162	18.71
564.358	18.63
564.554	18.91
564.75	18.21
564.945	18.86
565.141	19.27
565.337	18.81
565.533	18.67
565.728	18.96
565.924	19.01
566.12	19.16
566.315	19.71
566.511	19.84
566.707	19.99
566.902	20.84
567.098	20.38
567.293	20.61
567.489	20.69
567.684	20.62
567.88	20.43
568.076	19.84
568.271	20.27
568.467	20.23
568.662	19.93
568.858	19.38
569.053	19.22
569.248	19.31
569.444	19.19
569.639	19.73
569.835	19.53
570.03	19.81
570.225	19.92
570.421	19.23
570.616	18.81
570.812	19.01
571.007	19.3
571.202	19.49
571.397	19.58
571.593	19.63
571.788	19.57
571.983	19.32
572.178	18.92
572.374	19.06
572.569	19.15
572.764	20.39
572.959	20.56
573.154	21.08
573.35	20.1
573.545	20
573.74	19.74
573.935	19.55
574.13	20.24
574.325	20.63
574.52	20.94
574.715	21.12
574.91	20.58
575.105	20.64
575.3	20.17
575.495	20.81
575.69	21.08
575.885	21.21
576.08	21.06
576.275	21.24
576.47	20.97
576.665	20.88
576.86	21.57
577.055	21.13
577.25	20.49
577.444	20.91
577.639	20.63
577.834	20.51
578.029	20.12
578.224	19.91
578.418	19.78
578.613	19.18
578.808	19.17
579.003	18.13
579.197	18.14
579.392	18.27
579.587	17.79
579.781	18.3
579.976	18.48
580.171	18.29
580.365	18.53
580.56	18.28
580.755	19.27
580.949	19.25
581.144	19.63
581.338	19.79
581.533	20.26
581.727	20.62
581.922	20.21
582.116	19.97
582.311	20.08
582.505	20.07
582.7	20.39
582.894	20.32
583.089	21.3
583.283	21.3
583.478	21.5
583.672	20.65
583.866	20.79
584.061	21.69
584.255	21.92
584.449	22.01
584.644	22.1
584.838	21.53
585.032	21.43
585.226	20.78
585.421	20.84
585.615	20.79
585.809	21.86
586.003	21.42
586.198	20.79
586.392	20.16
586.586	19.99
586.78	19.68
586.974	19.85
587.168	19.97
587.363	19.41
587.557	18.63
587.751	18.51
587.945	17.37
588.139	17.41
588.333	17.07
588.527	17.39
588.721	17.68
588.915	17.46
589.109	17.02
589.303	16.48
589.497	16.57
589.691	17.59
589.885	16.72
590.079	17.87
590.273	17.9
590.466	18.51
590.66	19.06
590.854	19.1
591.048	19.62
591.242	20.41
591.436	21.03
591.629	20.84
591.823	20.41
592.017	21.92
592.211	21.52
592.404	21.59
592.598	21.47
592.792	21.24
592.986	21.69
593.179	22.25
593.373	22.4
593.567	23.01
593.76	23.68
593.954	23.59
594.147	22.16
594.341	22.02
594.535	22.48
594.728	22.25
594.922	22.43
595.115	22.38
595.309	21.59
595.502	21.21
595.696	20.39
595.889	20.34
596.083	20.74
596.276	20.91
596.47	20.72
596.663	20.59
596.856	20.63
597.05	20.1
597.243	20.04
597.437	20.69
597.63	21.34
597.823	21.64
598.017	21.6
598.21	21.64
598.403	22.49
598.596	23.49
598.79	23.62
598.983	23.61
599.176	23.55
599.369	23.12
599.563	22.44
599.756	21.96
599.949	21.93
600.142	21.87
600.335	21.35
600.528	21.1
600.722	20.4
600.915	20.07
601.108	19.91
601.301	20.12
601.494	20.79
601.687	21.5
601.88	21.03
602.073	21.09
602.266	21.09
602.459	21.44
602.652	21.65
602.845	22.06
603.038	22.62
603.231	23.26
603.424	22.89
603.617	22.27
603.809	21.57
604.002	21.28
604.195	21.31
604.388	21.48
604.581	21.5
604.774	21.88
604.966	21.63
605.159	20.84
605.352	20.49
605.545	20.89
605.737	21.64
605.93	22.58
606.123	23.55
606.316	23.57
606.508	22.7
606.701	22.34
606.894	21.68
607.086	21.52
607.279	21.27
607.471	21
607.664	20.97
607.857	20.92
608.049	20.08
608.242	19.83
608.434	19.64
608.627	20.37
608.819	20.78
609.012	21.14
609.204	20.85
609.397	21.22
609.589	21.45
609.782	21.73
609.974	21.9
610.166	21.8
610.359	21.9
610.551	21.98
610.743	21.41
610.936	21.38
611.128	20.89
611.32	21.52
611.513	21.61
611.705	21.87
611.897	21.76
612.09	21.82
612.282	22.62
612.474	23.15
612.666	23.68
612.858	24.53
613.051	24.21
613.243	24.23
613.435	24.15
613.627	24.62
613.819	23.61
614.011	23.06
614.203	21.82
614.395	21.09
614.588	20.96
614.78	21.67
614.972	20.45
615.164	21.25
615.356	20.09
615.548	20.46
615.74	19.33
615.932	20.08
616.124	21.36
616.315	21.45
616.507	22.91
616.699	22.11
616.891	21.57
617.083	22.67
617.275	22.32
617.467	22.77
617.659	22.06
617.85	23.2
618.042	22.64
618.234	21.6
618.426	22.34
618.618	21.72
618.809	21.91
619.001	21.35
619.193	21.04
619.384	20.27
619.576	21.13
619.768	21.07
619.959	19.69
620.151	20.55
620.343	20.7
620.534	20.25
620.726	21.07
620.917	21.04
621.109	21.21
621.301	21.11
621.492	21.63
621.684	22.45
621.875	23.45
622.067	23.71
622.258	23.41
622.45	24.33
622.641	24.24
622.832	23.56
623.024	24.37
623.215	24.32
623.407	24.03
623.598	24.01
623.789	23.31
623.981	22.65
624.172	22.99
624.363	23.43
624.555	22.53
624.746	22.95
624.937	23.59
625.129	22.41
625.32	22.18
625.511	22.39
625.702	22.69
625.893	22.54
626.085	23.04
626.276	22.31
626.467	21.94
626.658	22.25
626.849	21.6
627.04	21.06
627.231	22.27
627.422	22.07
627.614	21.34
627.805	20.5
627.996	20.76
628.187	20.09
628.378	21.18
628.569	21.2
628.76	21.14
628.951	21.16
629.142	20.26
629.332	19.01
629.523	19.04
629.714	19.94
629.905	21
630.096	21.23
630.287	21.52
630.478	22.62
630.669	22.43
630.859	23.19
631.05	23.86
631.241	24.97
631.432	26.06
631.623	27.03
631.813	27.4
632.004	27.04
632.195	25.81
632.385	25.37
632.576	24.34
632.767	23.56
632.957	22.59
633.148	22.28
633.339	22.42
633.529	21.79
633.72	21.94
633.91	21.41
634.101	21.43
634.292	22.31
634.482	22.48
634.673	21.97
634.863	22.85
635.054	23.06
635.244	23.54
635.435	23.16
635.625	22.93
635.815	22.33
636.006	22.14
636.196	21.66
636.387	21.33
636.577	21.6
636.767	23.11
636.958	23.66
637.148	23.33
637.338	22.98
637.529	23.03
637.719	24.24
637.909	24.32
638.099	25.29
638.29	25.22
638.48	25.9
638.67	25.69
638.86	24.41
639.05	23.56
639.241	24.17
639.431	24.71
639.621	24.78
639.811	23.93
640.001	23.61
640.191	24.56
640.381	26.12
640.571	25.49
640.761	26.5
640.951	26.68
641.141	28.13
641.331	27.83
641.521	27.21
641.711	26.27
641.901	26.21
642.091	26.62
642.281	24.17
642.471	22.42
642.661	22.02
642.851	21.6
643.041	21.34
643.231	21.42
643.42	21.09
643.61	21.52
643.8	22.51
643.99	22.94
644.18	22.67
644.369	23.95
644.559	24.86
644.749	24.35
644.939	24.58
645.128	24.85
645.318	23.59
645.508	24.87
645.697	25.51
645.887	24.92
646.076	25.86
646.266	26.31
646.456	25.68
646.645	26.64
646.835	28.02
647.024	27.48
647.214	27.4
647.403	28.35
647.593	26.95
647.782	25.44
647.972	26.05
648.161	24.96
648.351	25.07
648.54	25.59
648.73	24.37
648.919	23.86
649.108	23.49
649.298	22.73
649.487	21.52
649.677	21.56
649.866	22.09
650.055	20.74
650.244	21.08
650.434	20.55
650.623	20.69
650.812	20.99
651.002	21.25
651.191	20.61
651.38	20.71
651.569	21.42
651.758	23.31
651.947	24.27
652.137	23.75
652.326	23.28
652.515	24.12
652.704	23.92
652.893	24.11
653.082	23.98
653.271	25.28
653.46	25.66
653.649	25.38
653.838	24.64
654.027	24.25
654.216	26.01
654.405	26.02
654.594	25.13
654.783	25.72
654.972	25.74
655.161	27.02
655.35	26.69
655.539	27.16
655.728	28.52
655.916	28.07
656.105	27.16
656.294	26.97
656.483	26.26
656.672	26.67
656.86	26.29
657.049	25.94
657.238	24.58
657.427	24.85
657.615	23.8
657.804	23.19
657.993	23.63
658.181	23.99
658.37	24.26
658.559	25.41
658.747	25.87
658.936	25.53
659.125	23.53
659.313	24.11
659.502	23.03
659.69	24.68
659.879	24.04
660.067	22.68
660.256	22.52
660.444	21.78
660.633	21.08
660.821	19.3
661.01	20.26
661.198	22.28
661.387	22
661.575	23.41
661.763	22.77
661.952	22.1
662.14	23.95
662.328	24.63
662.517	25.55
662.705	25.42
662.893	26.63
663.082	25.62
663.27	26.12
663.458	26.86
663.646	26.73
663.834	26.96
664.023	26.82
664.211	25.25
664.399	25.2
664.587	24.35
664.775	24.97
664.963	24.62
665.152	23.9
665.34	23.46
665.528	21.68
665.716	21.69
665.904	22.75
666.092	23.86
666.28	24.8
666.468	25.02
666.656	24.22
666.844	24.8
667.032	24.6
667.22	25.41
667.408	25.2
667.596	26.04
667.784	25.56
667.971	25.25
668.159	25.15
668.347	24.73
668.535	25.4
668.723	27.36
668.911	26.23
669.098	25.53
669.286	25.4
669.474	26.77
669.662	26.25
669.849	26.7
670.037	24.77
670.225	24.56
670.413	25.66
670.6	25.14
670.788	23.45
670.976	23.24
671.163	23.57
671.351	23.39
671.538	23.41
671.726	23.68
671.913	23.14
672.101	24.15
672.289	23.81
672.476	22.22
672.664	22.17
672.851	22.94
673.039	23.38
673.226	25.31
673.413	24.35
673.601	25.04
673.788	26.08
673.976	25.92
674.163	26.32
674.35	28.32
674.538	29.92
674.725	29.68
674.912	30.83
675.1	31.19
675.287	30.69
675.474	30.87
675.662	29.12
675.849	28.94
676.036	29.61
676.223	29.13
676.411	28.76
676.598	28.46
676.785	28.64
676.972	27.16
677.159	26.87
677.346	25.33
677.533	26.83
677.721	26.98
677.908	26.33
678.095	26.52
678.282	25.29
678.469	24.67
678.656	24.51
678.843	23.55
679.03	23.46
679.217	24.75
679.404	25.5
679.591	23.84
679.778	23.41
679.964	23.31
680.151	23.58
680.338	24.76
680.525	24.66
680.712	25.29
680.899	24.56
681.086	24.95
681.272	23.99
681.459	23.58
681.646	24.94
681.833	25.17
682.02	24.68
682.206	24.77
682.393	24.63
682.58	23.62
682.766	21.56
682.953	23.51
683.14	23.91
683.326	23.29
683.513	22.29
683.7	21.87
683.886	21.93
684.073	21.46
684.259	19.36
684.446	18.86
684.632	19.47
684.819	20.74
685.005	20.29
685.192	18.61
685.378	18.07
685.565	19.49
685.751	19.32
685.938	19.91
686.124	19.48
686.31	20.41
686.497	20.25
686.683	20.5
686.87	19.77
687.056	19.01
687.242	19.32
687.429	19.9
687.615	20.6
687.801	20.76
687.987	20.98
688.174	22.29
688.36	22.58
688.546	23.9
688.732	24.27
688.918	23.4
689.105	23.44
689.291	23.83
689.477	23.19
689.663	22.37
689.849	23.66
690.035	22.84
690.221	22.7
690.407	23.8
690.593	22.97
690.779	23.71
690.965	25.01
691.151	24.35
691.337	25.13
691.523	24.81
691.709	24.25
691.895	24.72
692.081	25.26
692.267	24.36
692.453	24.14
692.639	25.45
692.825	21.99
693.011	23.29
693.196	25.41
693.382	24.38
693.568	24.29
693.754	24.48
693.94	23.82
694.125	24.13
694.311	26.56
694.497	26.21
694.682	24.51
694.868	26.54
695.054	25.52
695.239	22.49
695.425	23.57
695.611	23.88
695.796	23.6
695.982	21.41
696.168	20.93
696.353	19.54
696.539	20.07
696.724	19.9
696.91	19.7
697.095	20.01
697.281	21.32
697.466	21
697.652	21.85
697.837	22.06
698.023	22.89
698.208	22.96
698.393	23.98
698.579	23.6
698.764	24.68
698.949	24.65
699.135	25.13
699.32	25.79
699.505	25.53
699.691	24.8
699.876	26.37
700.061	27.68
700.246	28.22
700.432	27.9
700.617	28.35
700.802	27.79
700.987	28.45
701.172	28.35
701.358	26.87
701.543	28.56
701.728	28.47
701.913	27.29
702.098	27.56
702.283	29.12
702.468	29.74
702.653	29.81
702.838	28.68
703.023	28.02
703.208	27.78
703.393	28.24
703.578	27.01
703.763	28.23
703.948	26.86
704.133	25.77
704.318	25.55
704.503	24.48
704.688	24.5
704.873	25.08
705.057	25.88
705.242	25.51
705.427	26.03
705.612	25.99
705.797	25.35
705.981	25.32
706.166	26.56
706.351	26.41
706.536	26.25
706.72	25.72
706.905	26.6
707.09	27.02
707.274	25.68
707.459	26.86
707.644	27.08
707.828	27.62
708.013	29.25
708.197	29.88
708.382	28.92
708.567	31.27
708.751	31.19
708.936	31.94
709.12	31.88
709.305	33.09
709.489	31.81
709.673	33.98
709.858	32.37
710.042	33.08
710.227	31.7
710.411	32.14
710.596	32.36
710.78	32.38
710.964	31.91
711.149	32
711.333	32.7
711.517	33.72
711.702	32.27
711.886	34.42
712.07	33.52
712.254	33.71
712.438	34.82
712.623	32.5
712.807	32.52
712.991	31.75
713.175	32.18
713.359	31.24
713.544	31.43
713.728	30.33
713.912	29.55
714.096	28.65
714.28	29.67
714.464	27.82
714.648	29.55
714.832	29.29
715.016	29.58
715.2	28.35
715.384	27.21
715.568	27.09
715.752	28.71
715.936	28.28
716.12	28.96
716.304	27.34
716.488	27.27
716.671	24.67
716.855	26.24
717.039	27.07
717.223	24.78
717.407	26.93
717.59	26.23
717.774	23.8
717.958	24.19
718.142	23.12
718.325	22.29
718.509	21.61
718.693	23.61
718.877	22.25
719.06	19.8
719.244	22.1
719.428	18.94
719.611	18.47
719.795	21.15
719.978	23.18
720.162	22.71
720.345	22.04
720.529	22.6
720.713	23.18
720.896	19.8
721.08	21.61
721.263	18.45
721.446	20.83
721.63	20.39
721.813	16.22
721.997	13.21
722.18	15.88
722.364	17.11
722.547	16.95
722.73	15.07
722.914	18.97
723.097	19.54
723.28	23.57
723.464	22.35
723.647	22.49
723.83	21.02
724.013	23.55
724.197	19.57
724.38	18.29
724.563	17.4
724.746	18.77
724.929	18.83
725.112	17.16
725.296	16.58
725.479	14.38
725.662	14.4
725.845	19.29
726.028	17.98
726.211	19.57
726.394	22.7
726.577	23.78
726.76	25.79
726.943	24.47
727.126	25.56
727.309	26.84
727.492	30.74
727.675	31.48
727.858	29.27
728.041	28.85
728.224	29.49
728.407	26.9
728.589	27.65
728.772	24.68
728.955	23.29
729.138	22.35
729.321	21.81
729.503	21.9
729.686	21.65
729.869	21.75
730.052	21.7
730.234	23.1
730.417	23.21
730.6	21.85
730.782	22.1
730.965	22.98
731.148	24.22
731.33	22.49
731.513	22.11
731.695	21.37
731.878	21.61
732.061	22.39
732.243	21.54
732.426	20.87
732.608	18.97
732.791	20.71
732.973	20.44
733.156	17.3
733.338	19
733.52	19.05
733.703	19.73
733.885	22.37
734.068	22.85
734.25	23.55
734.432	27.23
734.615	31.15
734.797	32.26
734.979	34.9
735.162	39.11
735.344	38.38
735.526	39.96
735.708	40.95
735.891	40.25
736.073	39.8
736.255	38.15
736.437	39.21
736.619	37.94
736.802	37.73
736.984	38.14
737.166	36.21
737.348	38.76
737.53	36.25
737.712	34.96
737.894	32.77
738.076	33.01
738.258	33.16
738.44	30.89
738.622	31.11
738.804	29.13
738.986	29.71
739.168	31.27
739.35	29.15
739.532	30.86
739.714	32.01
739.896	35.25
740.078	38.35
740.259	38.27
740.441	41.02
740.623	43.01
740.805	42.66
740.987	41.32
741.168	40.72
741.35	41.83
741.532	40.02
741.714	37.76
741.895	31.74
742.077	26.05
742.259	26.93
742.44	24.45
742.622	23.55
742.804	26.35
742.985	25.25
743.167	25.94
743.348	26.5
743.53	24.83
743.711	30.34
743.893	35.69
744.075	36.64
744.256	37.79
744.438	35.88
744.619	34.56
744.8	35.02
744.982	35.34
745.163	34.83
745.345	32.19
745.526	35.66
745.707	36.61
745.889	34.88
746.07	32.75
746.252	30.13
746.433	29.88
746.614	27.64
746.795	22.97
746.977	21.01
747.158	20.06
747.339	23.33
747.52	23.99
747.702	23.33
747.883	21.92
748.064	27.66
748.245	27.36
748.426	29.62
748.607	34.61
748.788	38.31
748.97	43.09
749.151	45.23
749.332	44.06
749.513	44.2
749.694	41.86
749.875	40.4
750.056	34.13
750.237	33.79
750.418	30.94
750.599	26.72
750.78	24.76
750.96	26.54
751.141	19.67
751.322	20.81
751.503	23.64
751.684	21.07
751.865	25.73
752.046	29.45
752.226	29.42
752.407	31.85
752.588	32.55
752.769	33.92
752.949	28.28
753.13	31.36
753.311	28.03
753.492	27.03
753.672	27.55
753.853	25.2
754.034	24.87
754.214	26.6
754.395	27.66
754.575	31.6
754.756	30.22
754.937	32.76
755.117	32.28
755.298	37.79
755.478	35.72
755.659	38.37
755.839	39.16
756.02	37.61
756.2	37.02
756.381	36.32
756.561	34.16
756.741	35.28
756.922	31.21
757.102	33.26
757.283	28.79
757.463	26.21
757.643	25.37
757.823	27.14
758.004	28.6
758.184	29.23
758.364	22.44
758.545	23.25
758.725	23.95
758.905	26.49
759.085	24.73
759.265	22.81
759.446	20.05
759.626	16.79
759.806	9.45
759.986	9.98
760.166	5.92
760.346	12.28
760.526	6.4
760.706	8.23
760.886	10.2
761.066	12.29
761.246	14.8
761.426	16.94
761.606	19.97
761.786	23.95
761.966	22.09
762.146	22.67
762.326	21.16
762.506	21.75
762.686	18.26
762.866	16.62
763.046	16.65
763.225	17.67
763.405	18.54
763.585	18.45
763.765	17.06
763.945	16.58
764.124	16.15
764.304	16.76
764.484	20
764.664	26.21
764.843	26.19
765.023	25.06
765.203	27.02
765.382	26.52
765.562	24.25
765.741	27.44
765.921	29.75
766.101	36.34
766.28	35.97
766.46	32.63
766.639	25.83
766.819	30.89
766.998	33.29
767.178	31.04
767.357	33.65
767.537	33.39
767.716	32.43
767.896	33.82
768.075	32.89
768.254	34.27
768.434	32.68
768.613	36.75
768.792	37.55
768.972	39.42
769.151	40.37
769.33	45.74
769.51	44.88
769.689	48.67
769.868	46.19
770.047	42.24
770.226	45.69
770.406	51.54
770.585	53.4
770.764	49.12
770.943	47.66
771.122	44.72
771.301	41.17
771.48	48.45
771.66	42.55
771.839	46.93
772.018	47.88
772.197	42.01
772.376	41.49
772.555	41.55
772.734	39.84
772.913	39.72
773.092	37.97
773.271	40.03
773.449	34.02
773.628	36.91
773.807	29.65
773.986	30.79
774.165	36.98
774.344	33.01
774.523	31.84
774.701	38.4
774.88	38.72
775.059	46.8
775.238	46.25
775.417	50.34
775.595	52.77
775.774	54.78
775.953	53.32
776.131	51.83
776.31	54.42
776.489	53.09
776.667	54.68
776.846	53.39
777.025	49.48
777.203	45.4
777.382	40.46
777.56	43.12
777.739	41.44
777.917	44.91
778.096	42.59
778.274	41.32
778.453	43.83
778.631	32.61
778.81	32.13
778.988	30.08
779.166	28.33
779.345	25.71
779.523	16.53
779.702	16.76
779.88	17.88
780.058	18.34
780.237	25.95
780.415	24.49
780.593	27.58
780.771	28.08
780.95	28.12
781.128	28.19
781.306	30.56
781.484	35.1
781.662	41.24
781.841	36.78
782.019	32.8
782.197	25.54
782.375	26.92
782.553	28.55
782.731	25.58
782.909	27.48
783.087	27.49
783.265	28.92
783.443	29.93
783.621	20.32
783.799	23.48
783.977	29.68
784.155	28.61
784.333	23
784.511	26.77
784.689	30.26
784.867	31.87
785.045	33.59
785.223	30.58
785.4	24.57
785.578	33.23
785.756	29.97
785.934	34.68
786.112	39.87
786.289	40.8
786.467	40.8
786.645	39.1
786.823	39.2
787	38.11
787.178	35.2
787.356	37.43
787.533	30.95
787.711	30.43
787.889	28.51
788.066	23.75
788.244	28.56
788.421	28.79
788.599	27.15
788.776	24.1
788.954	27.19
789.131	30.59
789.309	36.23
789.486	41.93
789.664	44.89
789.841	33.35
790.019	39.09
790.196	35.81
790.373	34.96
790.551	39.82
790.728	33.31
790.906	28.71
791.083	45.39
791.26	34.72
791.437	24.17
791.615	9.97
791.792	26.69
791.969	25
792.146	19.65
792.324	14.09
792.501	16.22
792.678	23.78
792.855	19.42
793.032	6.94
793.209	6.77
793.387	13.06
793.564	19.64
793.741	22.55
793.918	22.95
794.095	31.66
794.272	27.48
794.449	21.9
794.626	22.59
794.803	29.58
794.98	32.27
795.157	34.05
795.334	35.27
795.511	29.76
795.688	32.77
795.864	37.45
796.041	25.26
796.218	36.26
796.395	35.77
796.572	38.53
796.749	25.15
796.925	37.06
797.102	31.98
797.279	31.72
797.456	32.58
797.632	22.71
797.809	16.93
797.986	20.61
798.162	18.24
798.339	17.5
798.516	9.18
798.692	26.16
798.869	13.52
799.046	22.74
799.222	21.52
799.399	24.29
799.575	35.33
799.752	40.54
799.928	42.52
800.105	50.2
800.281	55.65
800.458	58.87
800.634	56.65
800.811	57.58
800.987	48.8
801.163	46.54
801.34	48.91
801.516	38.55
801.692	26.25
801.869	30.82
802.045	15.01
802.221	14.01
802.398	15.3
802.574	14.93
802.75	17.23
802.926	18.65
803.103	20.23
803.279	23.65
803.455	24.15
803.631	25.03
803.807	27.19
803.983	48.02
804.16	49.96
804.336	46.69
804.512	41.79
804.688	28.41
804.864	29.2
805.04	26.54
805.216	30.03
805.392	24.57
805.568	31.25
805.744	20.94
805.92	11.83
806.096	10.57
806.272	23.88
806.448	34.6
806.623	45.62
806.799	43.29
806.975	43.35
807.151	38.03
807.327	46.43
807.503	41.58
807.678	45.57
807.854	38.83
808.03	38.57
808.206	28.68
808.381	25.66
808.557	27.84
808.733	28.68
808.908	32.56
809.084	22.13
809.26	15.46
809.435	21.67
809.611	3.54
809.787	7.26
809.962	16.38
810.138	8.29
810.313	-12.53
810.489	-12.77
810.664	-23.65
810.84	-31.03
811.015	-17.37
811.191	-19.06
811.366	-38.1
811.542	-14.06
811.717	-13.96
811.892	-31.17
812.068	-31.32
812.243	-27.9
812.419	-30.24
812.594	-16.71
812.769	-40.47
812.944	-34.08
813.12	-3.98
813.295	17.55
813.47	-3.78
813.645	-20.07
813.821	-15.3
813.996	-9.53
814.171	5.01
814.346	15.89
814.521	11.65
814.697	17.39
814.872	-6.55
815.047	-15.46
815.222	-51.66
815.397	-40.89
815.572	-13.03
815.747	-4.97
815.922	-17.25
816.097	-23.51
816.272	-25.96
816.447	-27.26
816.622	-13.27
816.797	-6.64
816.972	-4.45
817.147	7.98
817.322	11.41
817.496	5.56
817.671	-0.91
817.846	6.79
818.021	14.01
818.196	11.62
818.371	24.42
818.545	17.87
818.72	17.07
818.895	10.61
819.069	7.85
819.244	4.15
819.419	5.99
819.594	1.06
819.768	3.71
819.943	2.83
820.117	6.51
820.292	7.31
820.467	10.73
820.641	12.42
820.816	13.65
820.99	13.48
821.165	14.97
821.339	15.96
821.514	18.29
821.688	17.33
821.863	19.09
822.037	16.92
822.212	15.71
822.386	15.08
822.56	16.46
822.735	16.7
822.909	18.18
823.084	17.78
823.258	15.4
823.432	14.25
823.606	15.91
823.781	10.93
823.955	16.98
824.129	18.11
824.303	16.97
824.478	16.01
824.652	15.55
824.826	17.47
825	15.93
825.174	18.68
825.348	16.73
825.523	16.44
825.697	17.65
825.871	14.64
826.045	16.87
826.219	20.43
826.393	20.97
826.567	15.74
826.741	17.43
826.915	15.34
827.089	16.02
827.263	16.9
827.437	20.02
827.611	23.84
827.784	30.86
827.958	28.81
828.132	23.61
828.306	18.88
828.48	24.64
828.654	24.72
828.827	29.14
829.001	22.96
829.175	32.46
829.349	28.45
829.522	25.64
829.696	16.04
829.87	15.4
830.044	4.7
830.217	18.3
830.391	19.12
830.565	8.59
830.738	9.56
830.912	6.79
831.085	1.53
831.259	-7.88
831.432	-7.92
831.606	-1.78
831.779	-7.66
831.953	8.2
832.126	14.06
832.3	16.98
832.473	21.01
832.647	24.24
832.82	23.22
832.994	22.22
833.167	31.18
833.34	31.87
833.514	28.88
833.687	32.05
833.86	28.94
834.034	21.18
834.207	20.25
834.38	17.81
834.553	18.24
834.727	28.79
834.9	24.15
835.073	20.89
835.246	12
835.419	4.78
835.593	-11.63
835.766	-16.9
835.939	-32.24
836.112	-40.86
836.285	-69.04
836.458	-60.26
836.631	-102.48
836.804	-50.07
836.977	-81.51
837.15	-50
837.323	-59.37
837.496	-30
837.669	-31.38
837.842	-10.27
838.015	-5.72
838.188	-6.53
838.361	-10.19
838.533	-4.06
838.706	-2.82
838.879	4.49
839.052	-0.23
839.225	11.41
839.398	13.62
839.57	16
839.743	16.25
839.916	22.47
840.088	28.78
840.261	23.21
840.434	23.83
840.607	13.71
840.779	5.88
840.952	-8.04
841.124	-14.32
841.297	-9.65
841.47	-66.34
841.642	-16.56
841.815	-42.64
841.987	-47.92
842.16	-69.63
842.332	-46.87
842.505	-21.41
842.677	-31.34
842.85	-19.02
843.022	-39.48
843.194	-103.76
843.367	-65.78
843.539	-104.65
843.712	-117.6
843.884	-109.95
844.056	-102.09
844.229	-123.84
844.401	-142.71
844.573	-144.59
844.745	-122.5
844.918	-132.92
845.09	-131.36
845.262	-37.66
845.434	-79.57
845.606	-221.43
845.779	763.64
845.951	-5925
846.123	738.24
846.295	-508.16
846.467	552.63
846.639	786.96
846.811	-106.82
846.983	35.38
847.155	-100
847.327	15.09
847.499	46.01
847.671	69.44
847.843	57.27
848.015	30.43
848.187	40
848.359	43.15
848.531	32.18
848.703	8
848.875	26.11
849.047	310
849.218	1625
849.39	-372.84
849.562	7520
849.734	-1553.57
849.905	7385.71
850.077	-575.68
850.249	-223.57
850.421	544.44
850.592	265.04
850.764	64.66
850.936	8.2
851.107	-63.64
851.279	-64.07
851.451	-137.11
851.622	-327.93
851.794	-222.18
851.965	-447.24
852.137	-422.98
852.308	-6933.33
852.48	712.04
852.651	386.39
852.823	472.22
852.994	2100
853.166	-6650
853.337	1416.67
853.509	-134.17
853.68	-10025
853.851	-305.56
854.023	-278.32
854.194	-314.41
854.365	-87.74
854.537	-40.8
854.708	-45.59
854.879	-113.93
855.05	-77.59
855.222	-58.19
855.393	-142.95
855.564	-29.79
855.735	-34.23
855.906	6.64
856.078	-73.68
856.249	-39.72
856.42	-129.06
856.591	-192.31
856.762	878.95
856.933	861.54
857.104	158.67
857.275	-25
857.446	-69.23
857.617	-683.33
857.788	-3850
857.959	70.29
858.13	-104.08
858.301	31.4
858.472	-35
858.643	-21.38
858.814	-90.23
858.985	-132.75
859.155	-321.35
859.326	-751.49
859.497	-293.99
859.668	-384.66
859.839	-750
860.009	-436.9
860.18	-315.25
860.351	-162.42
860.522	-54.42
860.692	-44
860.863	-65.99
861.034	-35.96
861.204	5.71
861.375	-60.47
861.546	15.9
861.716	55.44
861.887	119.33
862.057	501.47
862.228	630.95
862.398	-27.21
862.569	-352.94
862.739	-268.18
862.91	218.48
863.08	200
863.251	-495.24
863.421	-172
863.592	112.5
863.762	187.01
863.932	-356.1
864.103	471.11
864.273	-278.95
864.443	-503.57
864.614	-182.18
864.784	-163.98
864.954	-28.13
865.125	-56.94
865.295	-67.65
865.465	-75.75
865.635	-57.72
865.805	-106.9
865.976	-52.12
866.146	-35.41
866.316	-10.96
866.486	12.06
866.656	12.64
866.826	20.73
866.996	34.4
867.166	42.88
867.336	37.46
867.506	36.12
867.676	60.44
867.846	21.28
868.016	5.8
868.186	17.51
868.356	-92.77
868.526	-180.81
868.696	1611.76
868.866	450.75
869.036	1400
869.206	-786.49
869.376	788.89
869.545	-676
869.715	-133.33
869.885	16.18
870.055	137.61
870.224	-34.48
870.394	-75.25
870.564	-151.94
870.734	-166.07
870.903	-43.52
871.073	-57.04
871.243	-123.12
871.412	-154.13
871.582	-584.78
871.751	2518.18
871.921	369.62
872.091	140.31
872.26	106.42
872.43	113.82
872.599	156.36
872.769	153.4
872.938	242.48
873.108	194.07
873.277	287.9
873.446	-1707.69
873.616	510.75
873.785	-61.87
873.955	-9.94
874.124	-78.93
874.293	-109.28
874.463	-508.11
874.632	428.99
874.801	161.82
874.971	86.58
875.14	70.89
875.309	76.36
875.478	84.62
875.647	95.79
875.817	197.37
875.986	157.94
876.155	-34500
876.324	-312.88
876.493	-142.92
876.662	-217.69
876.831	-62.83
877	-89.62
877.17	-44.97
877.339	-28.75
877.508	-52.43
877.677	0
877.846	1304.17
878.015	455
878.184	144.92
878.352	383.33
878.521	-55.88
878.69	53.56
878.859	94.84
879.028	70.92
879.197	54.04
879.366	55.33
879.534	54.01
879.703	52.98
879.872	39.01
880.041	29.24
880.21	26.7
880.378	27.71
880.547	19.07
880.716	9.56
880.884	4.55
881.053	-2.75
881.222	-6.94
881.39	-13.25
881.559	-3.5
881.727	0.22
881.896	-0.28
882.065	-3.73
882.233	-11.71
882.402	-14.87
882.57	-17.8
882.739	-23.48
882.907	-25.15
883.076	-44.47
883.244	-51.38
883.412	-76.12
883.581	-61.96
883.749	-65.99
883.918	-93.01
884.086	-79.17
884.254	-75.89
884.423	-61.47
884.591	-22.1
884.759	7.49
884.927	30.77
885.096	45.32
885.264	57.74
885.432	50.75
885.6	31.16
885.769	32.62
885.937	22.16
886.105	1.71
886.273	-3.38
886.441	-35.71
886.609	-56.17
886.777	-42.2
886.945	-25.21
887.113	-25.42
887.281	-27.36
887.449	-18.67
887.617	-44.7
887.785	-72.43
887.953	-79.69
888.121	-155.03
888.289	-115.83
888.457	-121.15
888.625	-200
888.793	584.21
888.961	-296.88
889.129	-1350
889.296	-245.31
889.464	-82.69
889.632	29.23
889.8	83.33
889.967	61.79
890.135	15.25
