Data from JASIL_3047_Reflection_02.txt Node
Date: Mon Nov 09 11:15:11 EST 2015
User: Geneva
Spectrometer: USB4E03002
Autoset integration time: false
Trigger mode: 4
Integration Time (sec): 1.000000E-1
Scans to average: 10
Electric dark correction enabled: false
Nonlinearity correction enabled: false
Boxcar width: 5
Stray light correction enabled: false
XAxis mode: Wavelengths
Stop averaging: false
Number of Pixels in Spectrum: 3648
>>>>>Begin Spectral Data<<<<<
177.575	463.64
177.794	6400
178.014	-63700
178.233	-1211.32
178.452	-640.26
178.672	-3170.59
178.891	991.67
179.11	508.22
179.33	459.37
179.549	-646.15
179.768	-1025
179.987	-162.8
180.207	-5685.71
180.426	1179.41
180.645	326.44
180.864	548.97
181.084	656.62
181.303	-106200
181.522	-857.69
181.741	-994.74
181.96	-388.89
182.179	-129.24
182.398	-128.46
182.618	-33.17
182.837	-38.68
183.056	9.11
183.275	19.87
183.494	87.32
183.713	129.7
183.932	157.81
184.151	145.73
184.37	190.91
184.589	-179.66
184.808	-52.73
185.027	37.08
185.246	47.19
185.465	30.84
185.684	102.94
185.903	-262.12
186.122	-34.29
186.341	-114.21
186.56	-115.83
186.779	-80.33
186.998	-26.84
187.216	-26.85
187.435	-25.45
187.654	-12.24
187.873	-25.21
188.092	-25.93
188.311	-28.27
188.53	-88.09
188.748	-55.05
188.967	-8.56
189.186	-51.81
189.405	-41.48
189.623	-158.01
189.842	-100.52
190.061	-95.4
190.28	-153.33
190.498	-101.23
190.717	-101.65
190.936	-49.33
191.154	-40.91
191.373	-1833.33
191.592	-2000
191.81	7.5
192.029	42.31
192.248	-65.93
192.466	114.63
192.685	6.82
192.904	1142.11
193.122	358.18
193.341	381.36
193.559	-1084.21
193.778	-522.37
193.996	-7880
194.215	269.66
194.433	1047.62
194.652	747.62
194.87	228.92
195.089	47.13
195.307	79.03
195.526	314.29
195.744	-51.14
195.963	-1025
196.181	75.95
196.399	25.64
196.618	-5.3
196.836	-9.04
197.055	30.52
197.273	31.19
197.491	6.42
197.71	76.22
197.928	141.96
198.146	66.48
198.365	112.78
198.583	232.85
198.801	586.21
199.019	200.98
199.238	218.57
199.456	224.37
199.674	198.92
199.892	199.57
200.111	635.71
200.329	182.98
200.547	625.53
200.765	580
200.983	-98.7
201.202	289.58
201.42	-26.42
201.638	58.85
201.856	89
202.074	58.33
202.292	90.54
202.51	196.92
202.728	153.25
202.946	232.32
203.165	215.69
203.383	400
203.601	387.5
203.819	327.86
204.037	300.46
204.255	229.64
204.473	595.18
204.691	929.27
204.909	-1384.38
205.127	825.86
205.345	529.41
205.562	376.12
205.78	1414.81
205.998	-2042.11
206.216	-497.56
206.434	-20.63
206.652	-123.53
206.87	-93.75
207.088	-9.03
207.306	41.67
207.523	110.21
207.741	82.29
207.959	160.07
208.177	148.31
208.395	723.08
208.612	-6.4
208.83	-140.85
209.048	-101.72
209.266	-44.44
209.483	-114.75
209.701	413.24
209.919	-95.3
210.136	-6.06
210.354	-81.01
210.572	-117.14
210.79	-148.25
211.007	278.05
211.225	-132.97
211.442	-62.11
211.66	-25.73
211.878	7.75
212.095	40.54
212.313	98.63
212.53	50.64
212.748	135.29
212.966	238.68
213.183	13.39
213.401	454.05
213.618	-83.82
213.836	-18.21
214.053	6.36
214.271	30.96
214.488	42.45
214.705	23.81
214.923	-87.34
215.14	-20.23
215.358	24.06
215.575	26.32
215.793	24.71
216.01	49.58
216.227	82.37
216.445	21.94
216.662	18.72
216.879	-50
217.097	-17.65
217.314	140.23
217.531	-388
217.749	-111.11
217.966	55.64
218.183	111.05
218.4	352.11
218.618	-11300
218.835	-259.49
219.052	-850
219.269	-472.13
219.487	-74.36
219.704	-265.05
219.921	-177.68
220.138	279.52
220.355	-2325
220.572	-1816.67
220.79	-53.01
221.007	-8.96
221.224	-18.25
221.441	-108
221.658	-55.07
221.875	25.71
222.092	17.09
222.309	101.72
222.526	644.44
222.743	127.27
222.96	-42.39
223.177	-156.25
223.394	-346.15
223.611	152.33
223.828	134.83
224.045	-61.05
224.262	-345
224.479	775.47
224.696	-1636.84
224.913	129.04
225.13	117.86
225.347	70.53
225.564	84.46
225.781	133.18
225.997	102.75
226.214	87.1
226.431	38.54
226.648	19.59
226.865	12.53
227.082	-3.64
227.298	12.27
227.515	9.56
227.732	10.35
227.949	11.43
228.165	11.67
228.382	13.14
228.599	9.84
228.816	9.55
229.032	17.83
229.249	19.25
229.466	30.68
229.682	13.27
229.899	6.78
230.116	-2.27
230.332	-2.38
230.549	-39.85
230.765	-72.89
230.982	-21.92
231.199	1.58
231.415	-11.82
231.632	-43.66
231.848	-18.66
232.065	6.36
232.281	18.95
232.498	21.84
232.714	27.61
232.931	36.44
233.147	32.86
233.364	22.49
233.58	18.77
233.797	19.11
234.013	9.95
234.23	-2.15
234.446	-5.16
234.662	13.58
234.879	18.62
235.095	14.69
235.312	17.71
235.528	18.61
235.744	6.05
235.961	-11.67
236.177	-43.25
236.393	-9.22
236.61	1.88
236.826	21.12
237.042	2.37
237.258	5.72
237.475	1.49
237.691	4.07
237.907	4.13
238.123	5.88
238.339	33.33
238.556	32.97
238.772	25.79
238.988	16.71
239.204	3.17
239.42	8.27
239.636	1.09
239.853	11.67
240.069	3.78
240.285	13.51
240.501	12.56
240.717	4.38
240.933	5.18
241.149	4.87
241.365	6.51
241.581	10.03
241.797	8.78
242.013	8.19
242.229	5.08
242.445	11.18
242.661	8.49
242.877	15.66
243.093	16.13
243.309	14.98
243.525	10.57
243.741	12.71
243.957	14.13
244.173	14.65
244.388	13.68
244.604	10.44
244.82	5.06
245.036	0.93
245.252	-2.74
245.468	-1.21
245.683	0.35
245.899	2.22
246.115	3.38
246.331	1.32
246.547	1.86
246.762	0.98
246.978	1.2
247.194	1.71
247.409	5.25
247.625	7.52
247.841	4.54
248.057	2.27
248.272	1.82
248.488	-1.22
248.703	-0.72
248.919	-10.68
249.135	-13.91
249.35	-15.27
249.566	-11.01
249.782	-23.63
249.997	-21.26
250.213	-14.91
250.428	-10.15
250.644	-7.31
250.859	-8.25
251.075	-12.67
251.29	-5.13
251.506	-3.52
251.721	1.78
251.937	1.18
252.152	7.56
252.368	6.42
252.583	10.81
252.798	10.53
253.014	11.12
253.229	18
253.445	27.73
253.66	25.6
253.875	33.22
254.091	15.48
254.306	2.03
254.521	-4.38
254.737	-2.06
254.952	-11.67
255.167	-11.85
255.383	-22.77
255.598	-27.57
255.813	-36.43
256.028	-30.5
256.244	-24.41
256.459	-14.97
256.674	-5.83
256.889	-2.83
257.104	-4.33
257.32	-0.84
257.535	-1.2
257.75	1.95
257.965	2.47
258.18	3.98
258.395	4.43
258.61	5.03
258.826	5.69
259.041	8.45
259.256	6.95
259.471	8.25
259.686	8.64
259.901	9.8
260.116	9.61
260.331	10.86
260.546	9.96
260.761	8.97
260.976	4.39
261.191	1.11
261.406	-7.28
261.621	-3.21
261.836	-6.17
262.05	-4.51
262.265	-6.01
262.48	-3.22
262.695	-2.18
262.91	-0.73
263.125	0.72
263.34	2.39
263.555	6.18
263.769	9.04
263.984	4.66
264.199	8.03
264.414	3.73
264.629	-0.53
264.843	-2.86
265.058	-2.51
265.273	3.37
265.488	2.87
265.702	2.24
265.917	0.15
266.132	3.08
266.346	3.13
266.561	3.64
266.776	4.01
266.99	8.53
267.205	8.58
267.42	6.36
267.634	1.76
267.849	-0.24
268.063	-0.29
268.278	1.07
268.492	-0.59
268.707	0.99
268.922	0.89
269.136	0.23
269.351	-2.95
269.565	-1.76
269.78	1.54
269.994	1.03
270.209	4.94
270.423	4.42
270.637	2.98
270.852	-1.04
271.066	-2.43
271.281	-0.8
271.495	0.28
271.709	1.6
271.924	1.1
272.138	-1.01
272.353	-2.56
272.567	-6.71
272.781	-3.94
272.996	-0.47
273.21	4.22
273.424	9.3
273.638	6.56
273.853	7.89
274.067	7.02
274.281	8.8
274.495	8.43
274.71	11.1
274.924	14.1
275.138	9.24
275.352	8.8
275.566	7.53
275.781	-0.89
275.995	-0.45
276.209	-3.09
276.423	-3.02
276.637	-3.2
276.851	-3.75
277.065	0.62
277.279	-1.59
277.493	3.28
277.707	0.9
277.921	2.23
278.135	6.97
278.349	6.56
278.563	8.15
278.777	8.31
278.991	7.09
279.205	6.36
279.419	-0.21
279.633	-0.3
279.847	-2.19
280.061	1.6
280.275	0.48
280.489	0.33
280.703	1.54
280.917	2.18
281.131	4.06
281.344	2.59
281.558	2.54
281.772	5.82
281.986	7.06
282.2	10.06
282.414	7.51
282.627	7.42
282.841	5.94
283.055	5.29
283.269	4.86
283.482	3
283.696	1.41
283.91	3.18
284.123	-0.42
284.337	-2.15
284.551	-3.94
284.764	-5.39
284.978	-5.54
285.192	-2.7
285.405	-3.15
285.619	-4.44
285.833	-5.24
286.046	-2.94
286.26	-2.88
286.473	0.26
286.687	-0.9
286.9	-3.56
287.114	-0.54
287.327	0.19
287.541	-0.49
287.754	-1.32
287.968	1.65
288.181	1.26
288.395	2.04
288.608	3.19
288.822	3.49
289.035	7.46
289.248	7.91
289.462	6.74
289.675	5.94
289.889	5.24
290.102	4.61
290.315	4.1
290.529	6.78
290.742	3.07
290.955	1.06
291.169	-2.09
291.382	-1.53
291.595	0.93
291.808	1.08
292.022	0.86
292.235	-2.91
292.448	-0.72
292.661	-2.4
292.875	-6.08
293.088	-0.81
293.301	-0.45
293.514	-0.62
293.727	-2.36
293.94	-0.13
294.153	-2.15
294.367	0.56
294.58	2.27
294.793	2.34
295.006	3.38
295.219	4.7
295.432	2.88
295.645	2.33
295.858	3.15
296.071	3.21
296.284	2.4
296.497	2.69
296.71	-0.58
296.923	0.44
297.136	-0.11
297.349	-0.42
297.562	-1.78
297.775	-2.34
297.988	-1.31
298.201	-1.15
298.414	-2.42
298.626	-5.08
298.839	-7.26
299.052	-1.71
299.265	-2.67
299.478	-2.9
299.691	-1.97
299.903	-1.03
300.116	2.08
300.329	1.82
300.542	0.51
300.755	0.07
300.967	0.95
301.18	1.33
301.393	-2.07
301.605	-2.3
301.818	-1.94
302.031	-5.98
302.243	-2.35
302.456	-4.39
302.669	-3.66
302.881	-3.28
303.094	-0.89
303.307	-0.68
303.519	3.65
303.732	5.45
303.944	6.24
304.157	6.63
304.37	10.08
304.582	7.13
304.795	5.69
305.007	3.22
305.22	3.42
305.432	1.8
305.645	3.33
305.857	-0.37
306.069	-1.02
306.282	1.21
306.494	2.17
306.707	1
306.919	0.84
307.132	-0.52
307.344	4.55
307.556	4.31
307.769	4.44
307.981	2.8
308.193	4.9
308.406	3.19
308.618	1.24
308.83	-0.4
309.043	-1.08
309.255	0.96
309.467	3.54
309.679	-0.03
309.892	2.01
310.104	2.54
310.316	3.32
310.528	3.66
310.74	5.52
310.953	7.08
311.165	6.63
311.377	8.25
311.589	7.76
311.801	7.5
312.013	6.21
312.225	6
312.437	5.82
312.649	6.55
312.862	6.36
313.074	6.78
313.286	5.61
313.498	10.52
313.71	13.6
313.922	11.58
314.134	12.55
314.346	15.1
314.558	12.99
314.77	11.86
314.982	11.81
315.193	13.39
315.405	12.51
315.617	14.37
315.829	12.49
316.041	7.67
316.253	12.05
316.465	9.96
316.677	12.87
316.888	14.17
317.1	13.77
317.312	14.5
317.524	15.44
317.736	18.08
317.947	15
318.159	14.37
318.371	15.82
318.583	12.7
318.794	14.8
319.006	10.03
319.218	11.72
319.43	12.12
319.641	6.73
319.853	5.23
320.064	3.72
320.276	5.21
320.488	3.97
320.699	2.85
320.911	7.27
321.123	6.98
321.334	7.5
321.546	8.77
321.757	10.17
321.969	11.35
322.18	7.16
322.392	5.22
322.603	4.48
322.815	5.77
323.026	7.52
323.238	3.61
323.449	3.25
323.661	5.2
323.872	1.37
324.083	2.04
324.295	3.81
324.506	7.4
324.718	6.77
324.929	6.21
325.14	5.82
325.352	5.59
325.563	6.39
325.774	6.37
325.986	4.99
326.197	6.93
326.408	6.71
326.62	6.53
326.831	6.48
327.042	5.81
327.253	3.48
327.464	1.84
327.676	2.9
327.887	4.68
328.098	4.96
328.309	5.18
328.52	3.05
328.732	4.33
328.943	6.53
329.154	6.66
329.365	4.71
329.576	8.5
329.787	11.36
329.998	11.8
330.209	9.02
330.42	5.74
330.631	7.33
330.842	10.85
331.053	9.97
331.264	8.94
331.475	4.35
331.686	10.91
331.897	14.6
332.108	14.1
332.319	13.18
332.53	14.98
332.741	16.54
332.952	15.34
333.163	14.04
333.374	15.54
333.585	17.12
333.795	18.66
334.006	16
334.217	13.68
334.428	15.47
334.639	13.5
334.849	14.88
335.06	16.44
335.271	13.41
335.482	13.04
335.692	8.91
335.903	7.61
336.114	3.53
336.325	6.56
336.535	5.97
336.746	4.72
336.957	6.01
337.167	3.98
337.378	6.71
337.589	10.65
337.799	11.15
338.01	13.83
338.22	11.5
338.431	15.75
338.642	13.16
338.852	14.39
339.063	14.66
339.273	14.53
339.484	14.28
339.694	12.01
339.905	11.9
340.115	13.71
340.326	12.23
340.536	14.11
340.746	13.77
340.957	15.35
341.167	15.2
341.378	13.3
341.588	15.92
341.799	16.84
342.009	15.16
342.219	15.24
342.43	13.8
342.64	15.36
342.85	15.3
343.061	13.77
343.271	14.18
343.481	14.88
343.691	15.58
343.902	14.13
344.112	14.67
344.322	16.1
344.532	15.25
344.743	14.19
344.953	12.83
345.163	11.07
345.373	13.26
345.583	11.09
345.793	9.04
346.004	6.92
346.214	6.98
346.424	4.21
346.634	4.23
346.844	4.55
347.054	6.1
347.264	8.52
347.474	10.68
347.684	9.87
347.894	11.61
348.104	12.63
348.314	13.03
348.524	11.36
348.734	12.36
348.944	11.63
349.154	13.82
349.364	10.35
349.574	8.65
349.784	8.68
349.994	8.8
350.204	6.91
350.413	6.53
350.623	9.05
350.833	7.84
351.043	6.01
351.253	7.59
351.463	5.99
351.672	10.32
351.882	9.85
352.092	7.08
352.302	6.48
352.511	6.1
352.721	6.56
352.931	5.03
353.141	7.39
353.35	5.2
353.56	4.71
353.77	4.86
353.979	4.18
354.189	3.1
354.399	4.3
354.608	5.79
354.818	6.77
355.027	5.34
355.237	5.91
355.447	5.35
355.656	7.49
355.866	6.19
356.075	5.88
356.285	6.05
356.494	8.22
356.704	7.19
356.913	5.61
357.123	6.84
357.332	7.54
357.542	9.62
357.751	10.71
357.96	11.2
358.17	12.02
358.379	11.18
358.589	9.15
358.798	6.65
359.007	9.32
359.217	11.44
359.426	9.31
359.635	10.59
359.845	8.11
360.054	8.66
360.263	9.23
360.472	9.27
360.682	11.17
360.891	12.06
361.1	13.91
361.309	13.22
361.519	11.99
361.728	12.33
361.937	11.53
362.146	13.51
362.355	11.32
362.564	11.14
362.774	11
362.983	10.03
363.192	10.54
363.401	11.19
363.61	11.33
363.819	10.5
364.028	12.36
364.237	11.82
364.446	10.27
364.655	11.59
364.864	11
365.073	10.23
365.282	9.05
365.491	8.59
365.7	5.56
365.909	5.07
366.118	5.62
366.327	1.69
366.536	0.32
366.745	1.17
366.954	0.59
367.162	2.54
367.371	3.1
367.58	2.09
367.789	1.98
367.998	3.42
368.207	4.01
368.415	4.82
368.624	7.77
368.833	9.67
369.042	8.22
369.25	9.51
369.459	8.04
369.668	8.72
369.877	9.98
370.085	11.44
370.294	11.34
370.503	10.72
370.711	9.7
370.92	8.75
371.129	9.43
371.337	9.62
371.546	8.13
371.754	10.05
371.963	8.14
372.171	7.53
372.38	6.77
372.589	6.91
372.797	6.83
373.006	7.61
373.214	8.63
373.423	7.58
373.631	9.75
373.84	9.43
374.048	7.15
374.256	8.34
374.465	8.55
374.673	7.8
374.882	8.02
375.09	8.53
375.298	9.51
375.507	9.53
375.715	11.02
375.923	9.13
376.132	9.79
376.34	10.49
376.548	11.2
376.757	11.32
376.965	11.02
377.173	9.21
377.381	8.08
377.59	7.83
377.798	6.75
378.006	4.92
378.214	4.87
378.423	5.06
378.631	3.66
378.839	1.84
379.047	1.89
379.255	1.9
379.463	4.72
379.671	5.03
379.879	3
380.088	3.79
380.296	4.19
380.504	5.58
380.712	6.72
380.92	8.84
381.128	9.4
381.336	9.82
381.544	11.36
381.752	10.36
381.96	12.19
382.168	13.22
382.376	12.89
382.584	12.05
382.791	11.63
382.999	8.47
383.207	5.97
383.415	6.16
383.623	5.2
383.831	3.95
384.039	4.41
384.247	3.29
384.454	2.69
384.662	2.25
384.87	2.81
385.078	1.08
385.285	2.49
385.493	4.53
385.701	5.23
385.909	6.34
386.116	6.17
386.324	5.03
386.532	3.61
386.739	3.67
386.947	4.94
387.155	5.18
387.362	6.49
387.57	7.46
387.778	7.28
387.985	7.06
388.193	6.07
388.4	5.28
388.608	6.14
388.816	5.79
389.023	5.61
389.231	3.82
389.438	3.68
389.646	4.31
389.853	2.95
390.061	2.4
390.268	2.55
390.475	4.26
390.683	5
390.89	5.04
391.098	6.02
391.305	4.81
391.512	5.07
391.72	5.31
391.927	2.95
392.135	3.87
392.342	3.86
392.549	2.74
392.756	1.59
392.964	1.89
393.171	1.7
393.378	-0.51
393.586	-0.29
393.793	1.95
394	1.5
394.207	3.12
394.414	2.39
394.622	1.88
394.829	3.36
395.036	3.68
395.243	4.45
395.45	4.57
395.657	7.23
395.864	8.34
396.072	7.01
396.279	7.15
396.486	6.51
396.693	7.58
396.9	8.85
397.107	8.87
397.314	7.37
397.521	7.12
397.728	7.09
397.935	6.58
398.142	6.05
398.349	5.8
398.556	6.29
398.763	7.32
398.97	6.27
399.177	5.54
399.383	3.31
399.59	3.28
399.797	1.39
400.004	0.68
400.211	1.29
400.418	2.52
400.625	4.18
400.831	4.63
401.038	4.71
401.245	4.96
401.452	4.88
401.658	5.1
401.865	6.25
402.072	7.13
402.279	6.78
402.485	6.89
402.692	6.19
402.899	4.58
403.105	3.47
403.312	2.39
403.519	3.29
403.725	3.45
403.932	5.17
404.138	5.53
404.345	6.13
404.552	6.11
404.758	6.31
404.965	6.99
405.171	7.36
405.378	7.5
405.584	7.48
405.791	6.69
405.997	7.85
406.204	6.43
406.41	7.07
406.617	5.73
406.823	6.87
407.029	5.73
407.236	5.06
407.442	4.89
407.649	4.66
407.855	5.26
408.061	5.24
408.268	4.39
408.474	4.87
408.68	4.34
408.887	5.99
409.093	5.45
409.299	6.01
409.505	6.41
409.712	6.44
409.918	6.18
410.124	6.47
410.33	7.08
410.537	6.27
410.743	6.63
410.949	5.14
411.155	3.95
411.361	3.79
411.567	4.11
411.773	3.17
411.98	2.67
412.186	3.57
412.392	3.37
412.598	2.52
412.804	2.86
413.01	2.3
413.216	4.24
413.422	4.71
413.628	4.87
413.834	5.29
414.04	5.49
414.246	5.65
414.452	5.38
414.658	4.8
414.864	5.23
415.07	6.48
415.275	7.36
415.481	7.08
415.687	6.88
415.893	6.78
416.099	6.63
416.305	7.38
416.511	7.4
416.716	7.81
416.922	8.87
417.128	8.19
417.334	7.07
417.539	6.95
417.745	6.08
417.951	6.18
418.157	6.44
418.362	6.05
418.568	5.88
418.774	5.41
418.979	4.88
419.185	3.75
419.391	3.96
419.596	4.21
419.802	4.37
420.008	5.22
420.213	5.35
420.419	5.53
420.624	5.53
420.83	5.21
421.035	5.95
421.241	5.81
421.446	5.97
421.652	6.26
421.857	6.26
422.063	5.49
422.268	5.32
422.474	4.88
422.679	4.58
422.885	4.33
423.09	4.73
423.295	4.24
423.501	4.52
423.706	4.98
423.911	4.9
424.117	4.8
424.322	5.19
424.527	5.39
424.733	5.61
424.938	5.15
425.143	6.14
425.349	5.7
425.554	5.59
425.759	5.82
425.964	5.57
426.169	5.44
426.375	5.91
426.58	6.72
426.785	5.68
426.99	5.47
427.195	6.14
427.4	4.65
427.605	5.2
427.811	5.63
428.016	5.03
428.221	5.27
428.426	6.05
428.631	5.18
428.836	5.27
429.041	5.62
429.246	5.68
429.451	4.97
429.656	5.34
429.861	5.61
430.066	5.52
430.271	6.4
430.476	6.63
430.681	5.53
430.886	5.57
431.09	5
431.295	5.59
431.5	5.6
431.705	5.89
431.91	6.15
432.115	5.34
432.32	5.67
432.524	4.65
432.729	4.18
432.934	4.72
433.139	4.45
433.343	3.77
433.548	3.03
433.753	3.37
433.958	3.21
434.162	2.94
434.367	3.78
434.572	3.16
434.776	4.37
434.981	4.41
435.186	4.06
435.39	4.04
435.595	4.91
435.799	5.58
436.004	4.89
436.209	5.53
436.413	5.72
436.618	5.77
436.822	6.46
437.027	6.03
437.231	5.84
437.436	5.68
437.64	6.84
437.845	5.79
438.049	4.74
438.253	5.1
438.458	4.83
438.662	4.33
438.867	4.03
439.071	3.79
439.275	3.54
439.48	3.77
439.684	3.55
439.888	3.27
440.093	4.23
440.297	5.24
440.501	5.51
440.706	5.52
440.91	6
441.114	5.89
441.318	5.84
441.523	5.53
441.727	5.19
441.931	5.39
442.135	4.98
442.339	4.5
442.543	4.39
442.748	4.42
442.952	4.26
443.156	4.34
443.36	4.32
443.564	4.39
443.768	4.59
443.972	5.05
444.176	5.47
444.38	5.1
444.584	5.07
444.788	3.91
444.992	4.12
445.196	4.78
445.4	4.79
445.604	5.05
445.808	4.6
446.012	4.39
446.216	4.27
446.42	4.79
446.624	5.04
446.828	5.22
447.032	6.29
447.235	5.95
447.439	4.98
447.643	5.2
447.847	5.61
448.051	5.82
448.254	6.39
448.458	6.82
448.662	5.8
448.866	6.13
449.069	6.58
449.273	6.11
449.477	5.93
449.681	6.31
449.884	5.54
450.088	3.88
450.292	4.12
450.495	3.54
450.699	3.02
450.902	3.54
451.106	3.73
451.31	3.47
451.513	4.17
451.717	4.39
451.92	3.83
452.124	4.1
452.327	4.67
452.531	4.94
452.734	5.6
452.938	6.26
453.141	5.52
453.345	5.66
453.548	5.26
453.752	4.74
453.955	5.14
454.158	5.77
454.362	6.22
454.565	6.74
454.769	7.09
454.972	6.73
455.175	6.08
455.379	6.31
455.582	5.8
455.785	6.15
455.988	5.92
456.192	5.4
456.395	5.49
456.598	5.14
456.801	5.06
457.005	4.77
457.208	5.5
457.411	5.13
457.614	5.18
457.817	5.11
458.021	4.82
458.224	5.2
458.427	4.88
458.63	4.44
458.833	4.46
459.036	4.6
459.239	4.29
459.442	4
459.645	4.33
459.848	4.15
460.051	4.22
460.254	3.92
460.457	4.24
460.66	4.7
460.863	4.83
461.066	5.38
461.269	5.19
461.472	5.57
461.675	5.46
461.878	5.78
462.081	5.95
462.284	5.97
462.486	6.36
462.689	5.8
462.892	5.64
463.095	5.33
463.298	4.45
463.5	4.39
463.703	4.69
463.906	5.05
464.109	4.52
464.311	4.83
464.514	5.07
464.717	4.94
464.92	5.12
465.122	5.37
465.325	6.39
465.528	6.36
465.73	6.18
465.933	5.45
466.135	5.28
466.338	5.35
466.541	5.45
466.743	5.2
466.946	5.06
467.148	4.93
467.351	4.75
467.553	4.13
467.756	4.01
467.958	4.11
468.161	4.93
468.363	3.98
468.566	4.12
468.768	4.18
468.971	4.19
469.173	4.03
469.375	3.34
469.578	2.92
469.78	3.82
469.983	4.69
470.185	4.34
470.387	4.24
470.59	5.64
470.792	5.04
470.994	4.79
471.196	5.41
471.399	5.49
471.601	5.59
471.803	5.72
472.005	5.02
472.208	4.81
472.41	4.88
472.612	4.83
472.814	4.26
473.016	4.97
473.218	5.37
473.421	4.34
473.623	4.27
473.825	4.61
474.027	5.05
474.229	4.77
474.431	4.53
474.633	4.93
474.835	4.5
475.037	4.97
475.239	5.18
475.441	4.53
475.643	4.84
475.845	5.24
476.047	4.99
476.249	5.22
476.451	6.06
476.653	6.25
476.855	5.41
477.057	5.01
477.258	4.94
477.46	5.31
477.662	5.68
477.864	5.88
478.066	5.57
478.268	5.83
478.469	5.76
478.671	5.44
478.873	5.69
479.075	6.34
479.276	6.41
479.478	5.96
479.68	5.15
479.882	4.94
480.083	4.69
480.285	4.84
480.487	4.89
480.688	4.54
480.89	4.19
481.091	4.04
481.293	4.08
481.495	4.28
481.696	4.3
481.898	4.45
482.099	4.35
482.301	4.39
482.502	4.54
482.704	4.51
482.905	4.54
483.107	4.59
483.308	4.68
483.51	4.58
483.711	4.61
483.913	4.62
484.114	4.55
484.315	4.64
484.517	4.64
484.718	4.61
484.92	4.61
485.121	4.67
485.322	4.89
485.524	4.53
485.725	4.54
485.926	4.79
486.127	4.76
486.329	4.69
486.53	4.79
486.731	5
486.932	4.81
487.134	4.75
487.335	4.5
487.536	4.55
487.737	4.69
487.938	4.74
488.139	4.6
488.341	4.56
488.542	4.84
488.743	4.92
488.944	4.83
489.145	4.93
489.346	4.92
489.547	5.1
489.748	4.88
489.949	4.82
490.15	4.84
490.351	4.86
490.552	4.73
490.753	4.88
490.954	4.74
491.155	4.56
491.356	4.38
491.557	4.82
491.758	4.97
491.959	5.17
492.159	5.23
492.36	5.22
492.561	5.15
492.762	5.7
492.963	4.96
493.164	5.01
493.364	4.96
493.565	5.44
493.766	4.78
493.967	4.64
494.167	4.08
494.368	4.16
494.569	4.4
494.769	4.14
494.97	3.72
495.171	4.04
495.371	3.93
495.572	3.55
495.773	3.18
495.973	3.66
496.174	3.67
496.375	3.76
496.575	3.89
496.776	3.91
496.976	4.16
497.177	4.15
497.377	4.97
497.578	5.42
497.778	5.96
497.979	6.54
498.179	6.15
498.38	5.99
498.58	6.47
498.78	6.66
498.981	6.41
499.181	6.21
499.382	7.05
499.582	6.31
499.782	5.86
499.983	6.41
500.183	6.2
500.383	6
500.584	6.2
500.784	5.61
500.984	5.39
501.184	5.58
501.385	5.66
501.585	5.46
501.785	5.71
501.985	5.41
502.185	5.69
502.386	5.62
502.586	5.84
502.786	6.06
502.986	6.23
503.186	6.07
503.386	5.62
503.586	5.59
503.786	4.95
503.987	4.91
504.187	5.23
504.387	5.14
504.587	5.13
504.787	4.94
504.987	5.06
505.187	5.49
505.387	5.45
505.587	5.83
505.786	5.82
505.986	6.18
506.186	5.77
506.386	5.73
506.586	5.75
506.786	6.13
506.986	5.91
507.186	5.31
507.386	5.24
507.585	5.47
507.785	5.66
507.985	5.84
508.185	5.81
508.384	6.24
508.584	6.5
508.784	6.02
508.984	5.8
509.183	6.31
509.383	6.29
509.583	6.31
509.782	6.27
509.982	6.31
510.182	6.33
510.381	6.28
510.581	6.44
510.781	6.56
510.98	6.8
511.18	6.86
511.379	7.13
511.579	7.55
511.778	7.85
511.978	8.75
512.177	8.95
512.377	9.32
512.576	9.51
512.776	9.49
512.975	9.85
513.175	9.83
513.374	10.39
513.573	9.84
513.773	9.9
513.972	9.48
514.172	8.85
514.371	8.56
514.57	7.95
514.77	7.58
514.969	7.59
515.168	7.38
515.367	7.21
515.567	7.04
515.766	7.37
515.965	7.4
516.164	7.44
516.364	7.4
516.563	8.01
516.762	8.4
516.961	9.04
517.16	9.03
517.359	9.16
517.559	9.12
517.758	9.22
517.957	9.4
518.156	9.78
518.355	10.41
518.554	10.51
518.753	10.26
518.952	10.7
519.151	10.87
519.35	10.95
519.549	10.62
519.748	10.95
519.947	10.49
520.146	10.53
520.345	10.15
520.544	9.92
520.743	9.92
520.942	10.01
521.141	9.94
521.339	9.73
521.538	9.72
521.737	9.67
521.936	9.98
522.135	10.35
522.333	10.41
522.532	10.54
522.731	10.46
522.93	10.27
523.129	10.29
523.327	10.32
523.526	10.29
523.725	10.26
523.923	10.73
524.122	10.59
524.321	10.41
524.519	10.72
524.718	10.94
524.917	10.94
525.115	11.34
525.314	11.55
525.512	11.64
525.711	11.72
525.909	11.96
526.108	11.83
526.306	11.84
526.505	11.73
526.703	11.75
526.902	11.81
527.1	11.9
527.299	11.85
527.497	11.68
527.696	11.49
527.894	11.59
528.092	11.61
528.291	11.62
528.489	11.8
528.688	12.09
528.886	12.06
529.084	12.04
529.283	12.05
529.481	12.21
529.679	12.41
529.877	12.53
530.076	12.41
530.274	12.35
530.472	12.56
530.67	12.41
530.869	12.45
531.067	12.23
531.265	12.47
531.463	12.41
531.661	12.16
531.859	11.96
532.057	11.88
532.255	12.05
532.454	12.1
532.652	12.14
532.85	12.16
533.048	12.25
533.246	12.7
533.444	12.81
533.642	12.84
533.84	13.32
534.038	13.59
534.236	13.57
534.434	13.59
534.632	13.43
534.83	13.4
535.027	13.56
535.225	13.52
535.423	13.31
535.621	13.25
535.819	13.11
536.017	12.92
536.215	12.68
536.412	13.36
536.61	13.33
536.808	13.81
537.006	13.84
537.203	13.56
537.401	13.65
537.599	13.68
537.797	13.56
537.994	13.49
538.192	13.54
538.39	13.97
538.587	13.43
538.785	13.26
538.983	13.08
539.18	13.25
539.378	13.35
539.575	13.42
539.773	13.3
539.97	13.05
540.168	13.34
540.366	13.2
540.563	13.19
540.761	13.5
540.958	13.61
541.155	13.84
541.353	13.79
541.55	13.93
541.748	13.84
541.945	13.97
542.143	14.32
542.34	14.35
542.537	14.54
542.735	14.64
542.932	14.05
543.129	14.3
543.327	14.33
543.524	14.63
543.721	14.73
543.919	14.71
544.116	14.32
544.313	14.21
544.51	14.41
544.708	14.45
544.905	14.64
545.102	14.9
545.299	14.94
545.496	15.17
545.693	15.33
545.891	15.24
546.088	15.3
546.285	15.68
546.482	15.91
546.679	16.1
546.876	16.44
547.073	16.6
547.27	16.93
547.467	17.14
547.664	16.67
547.861	16.37
548.058	16.61
548.255	16.71
548.452	16.8
548.649	17.01
548.846	17.21
549.043	16.71
549.24	16.78
549.437	17.42
549.633	17.56
549.83	18.19
550.027	17.92
550.224	17.77
550.421	18.04
550.618	18.22
550.814	17.92
551.011	17.19
551.208	17.79
551.405	17.59
551.601	17.56
551.798	17.44
551.995	17.47
552.191	17.56
552.388	17.66
552.585	18.59
552.781	18.87
552.978	19.07
553.175	19.34
553.371	19.56
553.568	19.5
553.764	18.6
553.961	18.9
554.157	18.91
554.354	19.31
554.55	19.57
554.747	19.06
554.943	18.81
555.14	18.21
555.336	18.61
555.533	18.36
555.729	19.32
555.926	20.67
556.122	20.33
556.318	20.25
556.515	20.17
556.711	20.71
556.907	20.76
557.104	20.73
557.3	22.08
557.496	22.26
557.693	21.7
557.889	20.64
558.085	20.51
558.281	20.86
558.478	20.27
558.674	20.72
558.87	19.9
559.066	19.99
559.262	20
559.459	19.52
559.655	19.39
559.851	20.27
560.047	21.1
560.243	21.5
560.439	21.61
560.635	22.17
560.831	21.75
561.027	22.08
561.223	21.73
561.419	21.5
561.615	21.48
561.811	21.81
562.007	21.98
562.203	21.9
562.399	22.18
562.595	21.69
562.791	22.29
562.987	22.36
563.183	22.33
563.379	22.15
563.575	22.28
563.771	21.84
563.966	21.55
564.162	21.61
564.358	21.56
564.554	20.86
564.75	21.16
564.945	20.6
565.141	20.01
565.337	20.2
565.533	20.22
565.728	20.83
565.924	21.45
566.12	21.25
566.315	21.61
566.511	21.11
566.707	21.07
566.902	20.66
567.098	20.55
567.293	21.16
567.489	20.7
567.684	20.9
567.88	20.87
568.076	20.47
568.271	20.46
568.467	19.36
568.662	19.65
568.858	19.25
569.053	18.35
569.248	18.68
569.444	18.42
569.639	18.7
569.835	18.1
570.03	18.09
570.225	18.26
570.421	18.54
570.616	18.5
570.812	18.95
571.007	19.32
571.202	19.5
571.397	18.67
571.593	18.78
571.788	18.82
571.983	19.23
572.178	19.27
572.374	19.75
572.569	19.55
572.764	20.05
572.959	19.44
573.154	20.11
573.35	20.99
573.545	21.25
573.74	21.57
573.935	21.85
574.13	21.35
574.325	20.93
574.52	20.72
574.715	20.86
574.91	20.9
575.105	20.78
575.3	20.23
575.495	20.03
575.69	20.41
575.885	20.19
576.08	19.96
576.275	20.37
576.47	20.37
576.665	20.65
576.86	21.12
577.055	21.22
577.25	21.74
577.444	21.66
577.639	22.55
577.834	22.98
578.029	23.58
578.224	23.39
578.418	23.67
578.613	24.51
578.808	24.4
579.003	23.79
579.197	23.9
579.392	24.07
579.587	23.76
579.781	23.38
579.976	23.65
580.171	22.84
580.365	23.27
580.56	23.24
580.755	23.4
580.949	22.59
581.144	22.35
581.338	21.81
581.533	21.95
581.727	22.67
581.922	22.53
582.116	22.75
582.311	23.06
582.505	22.81
582.7	23.41
582.894	23.11
583.089	23.47
583.283	24.88
583.478	25.34
583.672	24.22
583.866	23.68
584.061	23.96
584.255	22.78
584.449	23.41
584.644	23.67
584.838	23.02
585.032	21.84
585.226	21.82
585.421	21.78
585.615	20.69
585.809	21.77
586.003	21.66
586.198	21.24
586.392	21.64
586.586	20.59
586.78	20.07
586.974	20.57
587.168	21.01
587.363	20.6
587.557	19.25
587.751	20.06
587.945	18.65
588.139	19.06
588.333	19.09
588.527	19.06
588.721	20.23
588.915	19.67
589.109	19
589.303	19.44
589.497	20.13
589.691	20.49
589.885	20.26
590.079	20.81
590.273	20.6
590.466	21.18
590.66	20.79
590.854	20.77
591.048	22.08
591.242	23.29
591.436	23.76
591.629	23.33
591.823	23.47
592.017	24.28
592.211	25.33
592.404	25.53
592.598	25.63
592.792	26.3
592.986	25.58
593.179	25.02
593.373	23.72
593.567	23.14
593.76	23.51
593.954	23.58
594.147	23.14
594.341	22.78
594.535	23
594.728	22.27
594.922	22.04
595.115	22.47
595.309	22.88
595.502	23.89
595.696	23.6
595.889	22.99
596.083	22.98
596.276	22.33
596.47	22.46
596.663	21.42
596.856	21.39
597.05	21.25
597.243	21.35
597.437	20.64
597.63	20.37
597.823	20.78
598.017	20.7
598.21	20.37
598.403	20.76
598.596	21.4
598.79	22.69
598.983	23.43
599.176	23.94
599.369	23.68
599.563	23.66
599.756	23.23
599.949	23.65
600.142	24.12
600.335	24.72
600.528	24.1
600.722	24.04
600.915	23.66
601.108	23.12
601.301	22.8
601.494	23.15
601.687	22.96
601.88	23.42
602.073	23.11
602.266	23.64
602.459	23.94
602.652	24.47
602.845	23.63
603.038	23.46
603.231	23.95
603.424	24.34
603.617	23.88
603.809	24.48
604.002	24.25
604.195	23.35
604.388	23.06
604.581	22.33
604.774	22.74
604.966	23.17
605.159	23.24
605.352	23.41
605.545	22.82
605.737	22.54
605.93	23.37
606.123	23.49
606.316	24.42
606.508	24.29
606.701	24.31
606.894	24.39
607.086	24.48
607.279	24.68
607.471	24.41
607.664	24.81
607.857	24.79
608.049	23.73
608.242	23.7
608.434	24.09
608.627	23.79
608.819	24.1
609.012	23.05
609.204	22.07
609.397	22.02
609.589	21.9
609.782	22.63
609.974	22.67
610.166	23.32
610.359	23.44
610.551	22
610.743	22.56
610.936	23.36
611.128	24.15
611.32	24.97
611.513	24.32
611.705	24.65
611.897	22.59
612.09	23.62
612.282	23.77
612.474	22.52
612.666	24.15
612.858	24.37
613.051	23.38
613.243	23.96
613.435	23.38
613.627	24.05
613.819	24.66
614.011	25.09
614.203	24.08
614.395	23.87
614.588	25.75
614.78	26.19
614.972	25.86
615.164	26.11
615.356	26.13
615.548	26.43
615.74	26.12
615.932	26.19
616.124	27.07
616.315	26.32
616.507	26.07
616.699	24.99
616.891	23.69
617.083	24.07
617.275	23.39
617.467	22.41
617.659	23.52
617.85	24.8
618.042	24.36
618.234	24.67
618.426	26.46
618.618	26.49
618.809	28.1
619.001	29.24
619.193	28.33
619.384	29.64
619.576	30.29
619.768	29.99
619.959	29.01
620.151	27.97
620.343	27.49
620.534	26.01
620.726	26.62
620.917	26.28
621.109	25.76
621.301	25.67
621.492	25.75
621.684	27.25
621.875	27.88
622.067	27.69
622.258	28.26
622.45	28.51
622.641	29.58
622.832	29.16
623.024	28.27
623.215	28.46
623.407	29.18
623.598	28.34
623.789	27.11
623.981	25.51
624.172	26.62
624.363	26.17
624.555	25.72
624.746	25.43
624.937	25.19
625.129	25.14
625.32	25.02
625.511	24.99
625.702	25.41
625.893	24.93
626.085	25.39
626.276	23.74
626.467	23.31
626.658	23.68
626.849	23.2
627.04	23.43
627.231	22.49
627.422	23.17
627.614	23.9
627.805	22.18
627.996	23.23
628.187	23.53
628.378	24.46
628.569	24.88
628.76	25.56
628.951	26.58
629.142	26.91
629.332	27.5
629.523	26.42
629.714	26.17
629.905	27.66
630.096	26.78
630.287	26.84
630.478	26.9
630.669	27.66
630.859	27.32
631.05	27.66
631.241	26.88
631.432	28.33
631.623	28.89
631.813	28.13
632.004	28.5
632.195	27.41
632.385	27.36
632.576	28.11
632.767	27.65
632.957	26.93
633.148	26.11
633.339	25.73
633.529	24.73
633.72	25.28
633.91	25.92
634.101	25.77
634.292	27.4
634.482	27.6
634.673	26.79
634.863	26.57
635.054	26.96
635.244	27.13
635.435	28.08
635.625	29.05
635.815	28.35
636.006	27.89
636.196	27.93
636.387	26.43
636.577	25.66
636.767	26.45
636.958	26.22
637.148	27.78
637.338	28.28
637.529	28.17
637.719	27.09
637.909	27.3
638.099	27.3
638.29	25.43
638.48	27.07
638.67	27.25
638.86	27.46
639.05	29.11
639.241	28.19
639.431	28.1
639.621	28.47
639.811	29.64
640.001	29.11
640.191	29.64
640.381	30.99
640.571	29.35
640.761	29.53
640.951	28.19
641.141	26.92
641.331	26.14
641.521	26.32
641.711	26.53
641.901	25.81
642.091	26.22
642.281	24.56
642.471	25.8
642.661	27.95
642.851	28.85
643.041	29.59
643.231	29.66
643.42	28.78
643.61	28.17
643.8	27.81
643.99	28.83
644.18	28.42
644.369	28.42
644.559	27.63
644.749	26.65
644.939	26.74
645.128	25.83
645.318	26.81
645.508	26.74
645.697	25.46
645.887	26.17
646.076	24.32
646.266	25.02
646.456	26.27
646.645	25.85
646.835	25.7
647.024	23.94
647.214	24.1
647.403	23.65
647.593	24.59
647.782	26.45
647.972	24.85
648.161	26.69
648.351	26.6
648.54	26.96
648.73	27.9
648.919	27.84
649.108	29.05
649.298	27.87
649.487	27.34
649.677	26.95
649.866	27.85
650.055	27.7
650.244	25.62
650.434	25.63
650.623	25.38
650.812	25.6
651.002	25.62
651.191	25.08
651.38	27.13
651.569	27.37
651.758	27.74
651.947	26.14
652.137	28.24
652.326	30.82
652.515	29.74
652.704	29.26
652.893	28.95
653.082	29.78
653.271	31.06
653.46	31.89
653.649	31.76
653.838	31.73
654.027	30.03
654.216	28.87
654.405	28.1
654.594	28.27
654.783	28.2
654.972	28.27
655.161	26.16
655.35	23.58
655.539	22.97
655.728	24.31
655.916	25.19
656.105	26.43
656.294	26.96
656.483	26.33
656.672	26.94
656.86	27.51
657.049	26.6
657.238	28.08
657.427	29.31
657.615	29.24
657.804	27.63
657.993	27.31
658.181	28.48
658.37	27.87
658.559	27.34
658.747	28.52
658.936	28.63
659.125	30.54
659.313	30.71
659.502	30.35
659.69	29.58
659.879	30.37
660.067	30.53
660.256	29.93
660.444	30.45
660.633	31.71
660.821	30.02
661.01	30.03
661.198	29.47
661.387	29.12
661.575	29.23
661.763	31
661.952	30.72
662.14	28.46
662.328	29.01
662.517	29.79
662.705	29.25
662.893	31.23
663.082	31.9
663.27	31.87
663.458	32.23
663.646	33.17
663.834	31.58
664.023	31.82
664.211	34.11
664.399	34.56
664.587	32.26
664.775	32.66
664.963	30.38
665.152	31.01
665.34	31.36
665.528	31.9
665.716	31.92
665.904	32.57
666.092	32.11
666.28	31.93
666.468	31.83
666.656	33.34
666.844	32.42
667.032	33.92
667.22	31.78
667.408	31.86
667.596	31.95
667.784	30.63
667.971	30.67
668.159	31.32
668.347	30.56
668.535	29.04
668.723	27.33
668.911	27.84
669.098	27.51
669.286	27.13
669.474	25.25
669.662	24.35
669.849	26.58
670.037	25.24
670.225	24.04
670.413	24.41
670.6	25.34
670.788	26.52
670.976	27.93
671.163	27.95
671.351	28.42
671.538	28.13
671.726	27.96
671.913	27.46
672.101	27.85
672.289	29.5
672.476	29.03
672.664	29.7
672.851	29.88
673.039	29.19
673.226	29.64
673.413	30.5
673.601	31.5
673.788	32.07
673.976	30.65
674.163	30.56
674.35	29.5
674.538	28.77
674.725	29.14
674.912	29.91
675.1	28.85
675.287	28.06
675.474	28.06
675.662	26.88
675.849	26.63
676.036	27.02
676.223	27.79
676.411	27.76
676.598	30.47
676.785	27.95
676.972	27.29
677.159	27.53
677.346	27.57
677.533	28.17
677.721	28.88
677.908	28.52
678.095	29.56
678.282	29.38
678.469	30.39
678.656	29.54
678.843	31.47
679.03	31.9
679.217	32.18
679.404	31.52
679.591	30.87
679.778	30.71
679.964	31.5
680.151	29.89
680.338	29.39
680.525	27.4
680.712	27.27
680.899	26.66
681.086	25.73
681.272	26.69
681.459	27.02
681.646	28.68
681.833	28.14
682.02	26.97
682.206	27.89
682.393	29.43
682.58	30.94
682.766	32.11
682.953	31.97
683.14	33.22
683.326	32.55
683.513	33.36
683.7	32.72
683.886	34.25
684.073	34.26
684.259	34.83
684.446	34.11
684.632	35.13
684.819	34.2
685.005	32.54
685.192	32.29
685.378	32.1
685.565	30.48
685.751	29.78
685.938	29.19
686.124	30.28
686.31	29.79
686.497	29.15
686.683	28.1
686.87	27.44
687.056	29.24
687.242	27.9
687.429	28.07
687.615	29.63
687.801	29.67
687.987	29.21
688.174	28.29
688.36	27.8
688.546	28.38
688.732	29.4
688.918	30.5
689.105	29.86
689.291	28.86
689.477	27.28
689.663	25.85
689.849	25.06
690.035	24.19
690.221	24.83
690.407	25.22
690.593	25.78
690.779	25.09
690.965	24.57
691.151	26.16
691.337	26.76
691.523	27.24
691.709	28.41
691.895	28.95
692.081	29.98
692.267	29.33
692.453	28.68
692.639	26.67
692.825	25.25
693.011	25.04
693.196	22.53
693.382	22.42
693.568	24.57
693.754	21.07
693.94	20.91
694.125	21.89
694.311	20.92
694.497	22.12
694.682	23.17
694.868	25.69
695.054	26.17
695.239	27.66
695.425	27.38
695.611	23.73
695.796	26.6
695.982	25.35
696.168	24.26
696.353	24.48
696.539	25.64
696.724	25.76
696.91	24.22
697.095	23.03
697.281	23.43
697.466	24.28
697.652	25.69
697.837	25.21
698.023	25.48
698.208	26.71
698.393	27.4
698.579	24.91
698.764	25.32
698.949	26.45
699.135	27.36
699.32	27.18
699.505	26.73
699.691	26.28
699.876	26.76
700.061	27.77
700.246	25.77
700.432	25.85
700.617	28.28
700.802	26.82
700.987	26.2
701.172	27.03
701.358	26.97
701.543	26.69
701.728	29.05
701.913	28.09
702.098	28.06
702.283	28.86
702.468	27.28
702.653	27.39
702.838	30.67
703.023	30.85
703.208	29.14
703.393	28.01
703.578	29.36
703.763	30.98
703.948	32.1
704.133	32.02
704.318	32.62
704.503	35.96
704.688	34.73
704.873	31.22
705.057	29.82
705.242	30.39
705.427	29.74
705.612	31.01
705.797	28.45
705.981	29.35
706.166	28.31
706.351	28.56
706.536	27.72
706.72	31.14
706.905	34.23
707.09	34.16
707.274	36.16
707.459	37.87
707.644	38.24
707.828	37.59
708.013	36.51
708.197	37.87
708.382	38.37
708.567	37.96
708.751	35.68
708.936	34.14
709.12	35.8
709.305	32.87
709.489	32.44
709.673	32.9
709.858	32.67
710.042	33.48
710.227	33.53
710.411	34.55
710.596	35.33
710.78	36.5
710.964	37.19
711.149	37.81
711.333	39.08
711.517	39
711.702	37.26
711.886	39.21
712.07	39.27
712.254	38.74
712.438	37.16
712.623	34.46
712.807	33.28
712.991	31.96
713.175	29.46
713.359	30.04
713.544	31.37
713.728	29.64
713.912	26.22
714.096	27.14
714.28	28.14
714.464	27.59
714.648	29.63
714.832	29.14
715.016	29.17
715.2	29.97
715.384	27.22
715.568	26
715.752	27.26
715.936	27.71
716.12	26.12
716.304	25.26
716.488	25.78
716.671	25.63
716.855	26.21
717.039	27.62
717.223	28.57
717.407	29.38
717.59	29.2
717.774	30.06
717.958	30.86
718.142	31.07
718.325	28.23
718.509	26.45
718.693	26.06
718.877	25.89
719.06	26.67
719.244	24.35
719.428	26.98
719.611	25.11
719.795	25.32
719.978	25.66
720.162	29.75
720.345	31.66
720.529	31.24
720.713	30.13
720.896	31.73
721.08	32.09
721.263	31.9
721.446	29.16
721.63	32.32
721.813	31.81
721.997	29.11
722.18	27.55
722.364	28.7
722.547	30.13
722.73	34.23
722.914	32.26
723.097	30.08
723.28	31.16
723.464	32.33
723.647	33.17
723.83	30.68
724.013	34.33
724.197	34.38
724.38	31.35
724.563	30.98
724.746	25.92
724.929	27.27
725.112	29.14
725.296	29.18
725.479	29.4
725.662	27.53
725.845	29.65
726.028	29.35
726.211	29.28
726.394	29.9
726.577	30.95
726.76	32.41
726.943	31.86
727.126	26.87
727.309	27.08
727.492	28.53
727.675	27.71
727.858	27.08
728.041	26.85
728.224	23.86
728.407	25.86
728.589	26.48
728.772	26.81
728.955	24.72
729.138	26.13
729.321	25.27
729.503	21.28
729.686	23.94
729.869	24.89
730.052	24.8
730.234	26.38
730.417	26.33
730.6	23.67
730.782	24.36
730.965	26.53
731.148	29.64
731.33	30.98
731.513	33.37
731.695	32.25
731.878	32.81
732.061	34.52
732.243	33.76
732.426	32.38
732.608	35.61
732.791	34.73
732.973	35.08
733.156	34.27
733.338	36.07
733.52	35.93
733.703	34.7
733.885	33.47
734.068	32.67
734.25	31.39
734.432	32.83
734.615	29.72
734.797	32.06
734.979	35.05
735.162	38.11
735.344	36.09
735.526	39.72
735.708	44.61
735.891	44.96
736.073	46.02
736.255	50.94
736.437	53.3
736.619	52.57
736.802	51.55
736.984	47.9
737.166	41.68
737.348	40.52
737.53	36.89
737.712	36.47
737.894	34.2
738.076	31.18
738.258	27.51
738.44	26.67
738.622	28.47
738.804	32.34
738.986	31.96
739.168	33.68
739.35	31.25
739.532	30.98
739.714	28.83
739.896	32.42
740.078	37.62
740.259	39.11
740.441	43.56
740.623	43.71
740.805	37.75
740.987	41.18
741.168	43.16
741.35	50.99
741.532	55.6
741.714	54.52
741.895	55.33
742.077	53.78
742.259	56.61
742.44	51.78
742.622	51.68
742.804	50.19
742.985	47.66
743.167	45.27
743.348	43.08
743.53	41.9
743.711	43.45
743.893	47.34
744.075	45.19
744.256	41.29
744.438	39.92
744.619	35.89
744.8	38.88
744.982	42.33
745.163	45.21
745.345	43.95
745.526	41.33
745.707	46.69
745.889	42.43
746.07	46.75
746.252	48.12
746.433	48.36
746.614	52.21
746.795	50.6
746.977	49.55
747.158	47.21
747.339	50.23
747.52	52
747.702	49.08
747.883	50.69
748.064	43.99
748.245	45.65
748.426	47.07
748.607	45.03
748.788	46.71
748.97	42.6
749.151	37.2
749.332	31.49
749.513	30.83
749.694	30.27
749.875	24.48
750.056	25.84
750.237	25.5
750.418	26.01
750.599	30.55
750.78	32.51
750.96	34.7
751.141	42.01
751.322	38.02
751.503	38.71
751.684	37.8
751.865	42.34
752.046	40.89
752.226	38.01
752.407	43.74
752.588	46.26
752.769	45.25
752.949	41.27
753.13	42
753.311	48.19
753.492	46.9
753.672	45.59
753.853	46.67
754.034	49.68
754.214	53.4
754.395	47.75
754.575	45.83
754.756	45.48
754.937	51.43
755.117	48.91
755.298	47.78
755.478	48.48
755.659	44.31
755.839	42.42
756.02	44.8
756.2	40.28
756.381	41.21
756.561	38.42
756.741	40.15
756.922	37.42
757.102	33.9
757.283	34.54
757.463	37.45
757.643	41.08
757.823	37.12
758.004	27.36
758.184	27.21
758.364	28.51
758.545	26.93
758.725	22.47
758.905	25.76
759.085	25.44
759.265	22.28
759.446	19.03
759.626	20.36
759.806	23.12
759.986	30.54
760.166	28.35
760.346	29.67
760.526	30.38
760.706	31.35
760.886	29.66
761.066	33.66
761.246	30.83
761.426	28.65
761.606	27.03
761.786	27.3
761.966	23.37
762.146	25.67
762.326	22.35
762.506	23.58
762.686	23.62
762.866	24.69
763.046	22.98
763.225	27.37
763.405	28.97
763.585	30.64
763.765	33.76
763.945	37.79
764.124	37.5
764.304	40.39
764.484	42.06
764.664	43.16
764.843	42.5
765.023	44.02
765.203	41.51
765.382	46.02
765.562	41.79
765.741	40.7
765.921	38.58
766.101	44.18
766.28	47.5
766.46	49.15
766.639	48.39
766.819	50.8
766.998	56.72
767.178	61.18
767.357	57.04
767.537	57.01
767.716	59.1
767.896	60.95
768.075	56.41
768.254	53.75
768.434	49.83
768.613	52.44
768.792	58.52
768.972	53.75
769.151	48.7
769.33	50.17
769.51	52.94
769.689	54.3
769.868	51.04
770.047	53.76
770.226	54.65
770.406	59.49
770.585	61.59
770.764	59.78
770.943	60.5
771.122	66.22
771.301	65.96
771.48	70.55
771.66	72.39
771.839	78.83
772.018	82.78
772.197	86.54
772.376	81.08
772.555	78.92
772.734	81.98
772.913	79.34
773.092	78.52
773.271	81.15
773.449	73.58
773.628	73
773.807	69.32
773.986	66.54
774.165	60.34
774.344	66.05
774.523	62.51
774.701	56.24
774.88	59.46
775.059	60.82
775.238	68.18
775.417	69.59
775.595	66.53
775.774	67.01
775.953	66.24
776.131	66.54
776.31	59.09
776.489	65.19
776.667	73.93
776.846	69.67
777.025	65.45
777.203	58.82
777.382	58.81
777.56	61.79
777.739	60.69
777.917	56.76
778.096	58.68
778.274	65.19
778.453	64.52
778.631	58.31
778.81	57.12
778.988	55.87
779.166	62.15
779.345	61.95
779.523	61.24
779.702	65.86
779.88	75.76
780.058	83.6
780.237	78.56
780.415	74.63
780.593	74.09
780.771	74.88
780.95	76.5
781.128	76.69
781.306	79.54
781.484	74.43
781.662	68.23
781.841	62.72
782.019	57.11
782.197	59.55
782.375	63.47
782.553	60.84
782.731	64.03
782.909	66.84
783.087	64.25
783.265	59.65
783.443	63.26
783.621	65.36
783.799	65.61
783.977	65.4
784.155	63.93
784.333	70.54
784.511	75.82
784.689	67.58
784.867	73.01
785.045	65.96
785.223	70.58
785.4	76.39
785.578	73.07
785.756	69.17
785.934	59.46
786.112	47.74
786.289	39.41
786.467	41.19
786.645	38.55
786.823	25.22
787	27.78
787.178	25.62
787.356	25.41
787.533	22.87
787.711	20.09
787.889	25.24
788.066	35.82
788.244	31.08
788.421	30.68
788.599	38.35
788.776	46.57
788.954	43.45
789.131	45.72
789.309	40
789.486	36.74
789.664	29.54
789.841	34.32
790.019	37.01
790.196	45.31
790.373	53.04
790.551	53.04
790.728	40.31
790.906	40.57
791.083	34.62
791.26	35.07
791.437	49.25
791.615	65.59
791.792	65.36
791.969	60.37
792.146	61.24
792.324	49.46
792.501	59.25
792.678	72.53
792.855	77.29
793.032	86.36
793.209	90.72
793.387	87.6
793.564	81.21
793.741	85.05
793.918	95.28
794.095	87.27
794.272	79.33
794.449	64.73
794.626	69.24
794.803	61.56
794.98	57.1
795.157	57.26
795.334	57.33
795.511	56.16
795.688	46.92
795.864	41.24
796.041	38.97
796.218	47.31
796.395	46.41
796.572	35.11
796.749	40.38
796.925	42.58
797.102	36.66
797.279	24.2
797.456	22.93
797.632	29.85
797.809	30.3
797.986	36.96
798.162	30.93
798.339	41.54
798.516	51.1
798.692	50.86
798.869	54.86
799.046	58.36
799.222	73.62
799.399	82.55
799.575	82.81
799.752	86.72
799.928	85.07
800.105	85.35
800.281	90.72
800.458	93.77
800.634	84.63
800.811	83.26
800.987	83.8
801.163	76.76
801.34	73.36
801.516	60.89
801.692	55.67
801.869	51.33
802.045	65.55
802.221	72.37
802.398	60.52
802.574	76.67
802.75	88.95
802.926	84.19
803.103	81.6
803.279	88.6
803.455	94.76
803.631	93.21
803.807	102.95
803.983	94.94
804.16	91.53
804.336	124.55
804.512	121.49
804.688	102.73
804.864	111.09
805.04	117.91
805.216	94.51
805.392	101.3
805.568	102.42
805.744	81.78
805.92	98.87
806.096	85.64
806.272	67.82
806.448	32.99
806.623	53.66
806.799	53.91
806.975	51.79
807.151	68.5
807.327	65.41
807.503	73.85
807.678	79.53
807.854	79.48
808.03	79.63
808.206	76.04
808.381	92.79
808.557	93.51
808.733	93.91
808.908	94.92
809.084	85.56
809.26	80.62
809.435	67.8
809.611	58.91
809.787	62.31
809.962	49.63
810.138	51.81
810.313	42.51
810.489	39.23
810.664	50.81
810.84	57.24
811.015	59.84
811.191	49.9
811.366	52.65
811.542	61.95
811.717	57.51
811.892	65.26
812.068	62.64
812.243	62.01
812.419	56.27
812.594	33.62
812.769	36.88
812.944	29.98
813.12	60.35
813.295	35.82
813.47	37
813.645	29.62
813.821	17.65
813.996	-42.13
814.171	9
814.346	-15.79
814.521	22.73
814.697	10.26
814.872	43.23
815.047	39.65
815.222	46.88
815.397	51.35
815.572	39.44
815.747	50.29
815.922	55.94
816.097	55.98
816.272	65.94
816.447	63.58
816.622	61.97
816.797	53.36
816.972	60.64
817.147	78.19
817.322	78.3
817.496	79.66
817.671	69.6
817.846	69.49
818.021	62
818.196	63.18
818.371	66.75
818.545	51.23
818.72	54.83
818.895	50
819.069	36.14
819.244	21.62
819.419	14.75
819.594	16.2
819.768	16.72
819.943	14.37
820.117	16.81
820.292	16.99
820.467	19.44
820.641	17.91
820.816	17.29
820.99	19.31
821.165	20.9
821.339	20.51
821.514	19.44
821.688	18.79
821.863	18.93
822.037	19.04
822.212	19.58
822.386	19.56
822.56	19.57
822.735	20.15
822.909	17.29
823.084	19.33
823.258	23.57
823.432	23.85
823.606	27.56
823.781	30.2
823.955	33.11
824.129	29.28
824.303	24.88
824.478	28.36
824.652	28.72
824.826	33.07
825	32.05
825.174	28.91
825.348	29.91
825.523	31.51
825.697	25.66
825.871	20.27
826.045	21.72
826.219	25.34
826.393	24.06
826.567	24.16
826.741	21.25
826.915	24.07
827.089	26.54
827.263	33.14
827.437	28.79
827.611	38.67
827.784	44.49
827.958	41.9
828.132	41.07
828.306	40.15
828.48	40.53
828.654	49.35
828.827	52.53
829.001	63.11
829.175	53.16
829.349	67.87
829.522	55.49
829.696	39.22
829.87	64.36
830.044	88.97
830.217	80.52
830.391	84.81
830.565	84.43
830.738	71
830.912	52.15
831.085	55.5
831.259	39.48
831.432	40.35
831.606	43.66
831.779	37.97
831.953	28.53
832.126	26.89
832.3	16.66
832.473	9.84
832.647	9.48
832.82	14.29
832.994	16.81
833.167	30.5
833.34	35.52
833.514	29.8
833.687	31.93
833.86	34.81
834.034	36.42
834.207	38.66
834.38	41.75
834.553	33.01
834.727	38.61
834.9	32.11
835.073	32.96
835.246	29.05
835.419	40.56
835.593	45.9
835.766	54.2
835.939	47.17
836.112	50.04
836.285	38.86
836.458	74.25
836.631	54.46
836.804	58.4
836.977	49.54
837.15	44.79
837.323	51.41
837.496	34.17
837.669	30.87
837.842	28.8
838.015	27.36
838.188	40.31
838.361	17.64
838.533	38.7
838.706	39.67
838.879	45.76
839.052	36.55
839.225	30.44
839.398	40.11
839.57	51.03
839.743	71.07
839.916	97.03
840.088	88.77
840.261	103.8
840.434	68.6
840.607	75.03
840.779	67.77
840.952	85.9
841.124	79.5
841.297	107.9
841.47	115
841.642	143.19
841.815	145.42
841.987	118.66
842.16	116.26
842.332	313.29
842.505	315.96
842.677	421.76
842.85	-9666.67
843.022	-4256.25
843.194	1886.36
843.367	-1470.97
843.539	-388.24
843.712	-175
843.884	-262.96
844.056	-358.18
844.229	132.85
844.401	137.83
844.573	127.11
844.745	88.66
844.918	104.67
845.09	139.12
845.262	85.5
845.434	75.75
845.606	125.73
845.779	162.34
845.951	277.49
846.123	332.6
846.295	357.95
846.467	354.82
846.639	263.92
846.811	224.31
846.983	348.57
847.155	-318.94
847.327	-356.03
847.499	3473.33
847.671	-456
847.843	-1640.91
848.015	-329.59
848.187	-159.42
848.359	-431.43
848.531	-232.67
848.703	-107.66
848.875	-175.38
849.047	-201.68
849.218	-87.06
849.39	-82.53
849.562	-205.6
849.734	-351.32
849.905	-173.82
850.077	-229.15
850.249	-1096
850.421	909.68
850.592	341.04
850.764	335.5
850.936	204.51
851.107	222.19
851.279	253.22
851.451	215.04
851.622	141.51
851.794	96
851.965	104.67
852.137	87.22
852.308	83.33
852.48	92.01
852.651	64.09
852.823	96.77
852.994	72.94
853.166	77.96
853.337	74.67
853.509	144.72
853.68	360.38
853.851	-478.38
854.023	-53.37
854.194	259.75
854.365	215.71
854.537	172.94
854.708	245.08
854.879	434.25
855.05	300
855.222	2500
855.393	159.43
855.564	410.68
855.735	1434.78
855.906	294.78
856.078	-114.36
856.249	-3.72
856.42	-82.95
856.591	-151.22
856.762	100
856.933	102.46
857.104	75.4
857.275	-9.02
857.446	60.92
857.617	51.56
857.788	56.15
857.959	155.74
858.13	125
858.301	656.25
858.472	134.21
858.643	259.26
858.814	193.46
858.985	250
859.155	543
859.326	157.7
859.497	126.27
859.668	80.51
859.839	37.23
860.009	72.45
860.18	36.28
860.351	30
860.522	266.67
860.692	202.86
860.863	-5233.33
861.034	-300
861.204	-436.36
861.375	-101.03
861.546	19.05
861.716	-75
861.887	-8.33
862.057	25
862.228	-572.22
862.398	-1462.5
862.569	174.68
862.739	152
862.91	721.21
863.08	107.82
863.251	-557.14
863.421	-17
863.592	430.65
863.762	932
863.932	303.88
864.103	120.92
864.273	198.72
864.443	483.54
864.614	192.46
864.784	242.04
864.954	2693.75
865.125	305.19
865.295	271.98
865.465	1327.78
865.635	700
865.805	2406.25
865.976	1092.86
866.146	145.49
866.316	239.67
866.486	332.54
866.656	274.24
866.826	206.82
866.996	172.09
867.166	146.3
867.336	145.29
867.506	138.51
867.676	144.39
867.846	151.43
868.016	173.17
868.186	20.5
868.356	-45
868.526	-168.75
868.696	1000
868.866	80.69
869.036	76.62
869.206	92.24
869.376	146.98
869.545	195.14
869.715	443.24
869.885	434.26
870.055	-2107.14
870.224	13650
870.394	-122.56
870.564	-237.96
870.734	-18.11
870.903	-22.44
871.073	-3.18
871.243	-53.8
871.412	-139.15
871.582	-120.12
871.751	-418.37
871.921	247.45
872.091	202.94
872.26	135.45
872.43	138.67
872.599	131.16
872.769	114.11
872.938	145.44
873.108	138.46
873.277	142.05
873.446	165.06
873.616	168.23
873.785	204.39
873.955	183.92
874.124	171.79
874.293	138.21
874.463	103.3
874.632	111.26
874.801	89.54
874.971	70.93
875.14	75.96
875.309	68.42
875.478	59.6
875.647	28.1
875.817	41.14
875.986	52.27
876.155	-46.31
876.324	14.04
876.493	1.74
876.662	31.62
876.831	8.91
877	-0.6
877.17	22.34
877.339	30.16
877.508	33.14
877.677	25
877.846	24.87
878.015	27.27
878.184	46.5
878.352	34.07
878.521	-87.5
878.69	-161.45
878.859	17.36
879.028	-152.94
879.197	54.6
879.366	57.8
879.534	25
879.703	8.55
879.872	38.43
880.041	40.44
880.21	40.93
880.378	44.84
880.547	48.08
880.716	39.82
880.884	44.49
881.053	33.38
881.222	29.95
881.39	31.45
881.559	36.76
881.727	38.72
881.896	33.04
882.065	32.3
882.233	27.38
882.402	32.86
882.57	30.56
882.739	17.19
882.907	18.33
883.076	26.38
883.244	38.92
883.412	31.53
883.581	16.12
883.749	19.73
883.918	23.47
884.086	36.6
884.254	34.11
884.423	55.73
884.591	97.87
884.759	86.38
884.927	91.94
885.096	76.02
885.264	91.7
885.432	112.84
885.6	107.05
885.769	126.4
885.937	121.4
886.105	164.25
886.273	100
886.441	111.27
886.609	288.52
886.777	149.75
886.945	122.19
887.113	132.14
887.281	224.71
887.449	-2235.71
887.617	1623.08
887.785	355.13
887.953	-905.71
888.121	-147.13
888.289	-35.14
888.457	-14.75
888.625	-33.64
888.793	-5.53
888.961	-62.29
889.129	-68.36
889.296	-215.31
889.464	-164.34
889.632	-56.92
889.8	-27.27
889.967	-74.26
890.135	-278.43
