Data from JASIL_2970_Reflection_1.txt Node
Date: Sat Nov 07 21:40:56 EST 2015
User: Geneva
Spectrometer: USB4E03002
Autoset integration time: false
Trigger mode: 4
Integration Time (sec): 1.000000E-1
Scans to average: 10
Electric dark correction enabled: true
Nonlinearity correction enabled: false
Boxcar width: 5
Stray light correction enabled: false
XAxis mode: Wavelengths
Stop averaging: false
Number of Pixels in Spectrum: 3648
>>>>>Begin Spectral Data<<<<<
177.575	404.92
177.794	97.69
178.014	187.52
178.233	88.48
178.452	87.16
178.672	191.84
178.891	162.03
179.11	148.45
179.33	174.16
179.549	228.55
179.768	228.27
179.987	165.32
180.207	-200.1
180.426	213.9
180.645	127.59
180.864	143.64
181.084	160.13
181.303	143.05
181.522	126.46
181.741	135.87
181.96	101.19
182.179	86.79
182.398	77.23
182.618	44.13
182.837	17.57
183.056	-18.6
183.275	-47.58
183.494	-41.52
183.713	1.54
183.932	-25.37
184.151	-65.88
184.37	-26.23
184.589	-7.71
184.808	-13.62
185.027	9.65
185.246	26.32
185.465	28.58
185.684	42.34
185.903	28.07
186.122	18.91
186.341	15.25
186.56	20.34
186.779	0.2
186.998	-9.79
187.216	14.91
187.435	2.19
187.654	-15.38
187.873	2.7
188.092	-11.53
188.311	3.26
188.53	-6.52
188.748	9.46
188.967	-37.38
189.186	-8.8
189.405	1.87
189.623	-56.79
189.842	-8.52
190.061	-9.12
190.28	-46.41
190.498	-52.6
190.717	-61.41
190.936	-39.98
191.154	-105.04
191.373	-161.01
191.592	-395.73
191.81	2192.54
192.029	1020.98
192.248	2219.14
192.466	-336.52
192.685	-142.71
192.904	-56.22
193.122	-60.98
193.341	-159.73
193.559	-27.3
193.778	16.96
193.996	34.1
194.215	35.54
194.433	18.08
194.652	14.55
194.87	9.92
195.089	23.78
195.307	32.32
195.526	37.1
195.744	52.15
195.963	46.72
196.181	47.07
196.399	36.79
196.618	32.46
196.836	47.69
197.055	48.43
197.273	49.69
197.491	58.48
197.71	53.75
197.928	35.11
198.146	23.76
198.365	16.5
198.583	-5.36
198.801	15.81
199.019	7.92
199.238	8.84
199.456	9.39
199.674	0.95
199.892	-14.78
200.111	-64.02
200.329	-20.82
200.547	-28.54
200.765	-27.96
200.983	-54.99
201.202	-17.98
201.42	6
201.638	-14.65
201.856	6.92
202.074	9.51
202.292	24.59
202.51	53.32
202.728	41.69
202.946	33.86
203.165	40.21
203.383	64.4
203.601	46.63
203.819	26.59
204.037	29.78
204.255	20.1
204.473	35.83
204.691	22.91
204.909	-18.28
205.127	6.79
205.345	31.35
205.562	25.77
205.78	20.09
205.998	5.94
206.216	14.05
206.434	13.65
206.652	7.62
206.87	6.88
207.088	10.06
207.306	22.02
207.523	22.7
207.741	4.21
207.959	-1.4
208.177	10.52
208.395	1.48
208.612	-9.2
208.83	-1.07
209.048	6.7
209.266	-18.19
209.483	-48.23
209.701	-87.98
209.919	-76.05
210.136	-64.83
210.354	-22.27
210.572	-23.72
210.79	-1.75
211.007	4.15
211.225	-2.53
211.442	-7.51
211.66	3.76
211.878	5.81
212.095	5.33
212.313	4.65
212.53	5.93
212.748	-0.67
212.966	-0.46
213.183	-1.44
213.401	-3.01
213.618	-0
213.836	-0.05
214.053	-5.52
214.271	-4.07
214.488	-1.97
214.705	-15.3
214.923	-13.92
215.14	-5.47
215.358	2.65
215.575	0.26
215.793	16.12
216.01	16.52
216.227	14.58
216.445	1.06
216.662	-8.03
216.879	-14.04
217.097	-0.67
217.314	-3.46
217.531	4.94
217.749	-14.76
217.966	-8.96
218.183	-6.35
218.4	-7.49
218.618	-3.1
218.835	15.55
219.052	21.98
219.269	26.02
219.487	31.8
219.704	33.74
219.921	25.44
220.138	37.22
220.355	28.98
220.572	25.9
220.79	27.98
221.007	34.28
221.224	31.27
221.441	28.61
221.658	28.56
221.875	21.87
222.092	19.93
222.309	24.09
222.526	15.39
222.743	15.29
222.96	9.84
223.177	13.86
223.394	10.11
223.611	7.85
223.828	10.08
224.045	9.28
224.262	11.76
224.479	9.96
224.696	10.23
224.913	13.53
225.13	17.06
225.347	18.63
225.564	15.73
225.781	15.32
225.997	14.8
226.214	13.93
226.431	14.83
226.648	14.51
226.865	15.8
227.082	15.7
227.298	15.12
227.515	14.53
227.732	14.29
227.949	14.46
228.165	14.09
228.382	14.13
228.599	14.17
228.816	13.87
229.032	13.93
229.249	14.07
229.466	14.17
229.682	13.93
229.899	14.25
230.116	14.3
230.332	14.35
230.549	15.38
230.765	15.9
230.982	15.8
231.199	16.74
231.415	15.9
231.632	14.98
231.848	14.87
232.065	15.77
232.281	14.55
232.498	14.62
232.714	14.68
232.931	12.84
233.147	12.78
233.364	13.32
233.58	13.6
233.797	14.14
234.013	14.45
234.23	14.7
234.446	14.53
234.662	15.5
234.879	16.61
235.095	16.03
235.312	16.53
235.528	16.08
235.744	16.04
235.961	14.63
236.177	14.1
236.393	14.18
236.61	14.11
236.826	12.63
237.042	12.69
237.258	12.26
237.475	12.51
237.691	13.56
237.907	13.65
238.123	13.14
238.339	13.34
238.556	13.28
238.772	12.16
238.988	12.19
239.204	12.9
239.42	12.88
239.636	12.79
239.853	12.71
240.069	12.32
240.285	12.89
240.501	12.73
240.717	12.78
240.933	13.22
241.149	13.87
241.365	14.22
241.581	14.36
241.797	13.87
242.013	13.73
242.229	14.04
242.445	14.03
242.661	13.95
242.877	14.3
243.093	14.47
243.309	14.16
243.525	13.41
243.741	13.03
243.957	13.07
244.173	13.9
244.388	13.5
244.604	12.85
244.82	12.94
245.036	12.48
245.252	12.25
245.468	12.17
245.683	12.12
245.899	12.42
246.115	12.27
246.331	12.11
246.547	11.76
246.762	11.72
246.978	11.79
247.194	11.61
247.409	11.7
247.625	11.61
247.841	11.35
248.057	11.36
248.272	11.07
248.488	10.89
248.703	10.61
248.919	10.78
249.135	10.55
249.35	10.32
249.566	10.44
249.782	9.78
249.997	10.06
250.213	10.33
250.428	10.62
250.644	10.53
250.859	10.45
251.075	10.6
251.29	10.13
251.506	10.2
251.721	10.41
251.937	10.36
252.152	10.61
252.368	10.32
252.583	10.19
252.798	9.76
253.014	9.7
253.229	9.94
253.445	9.36
253.66	9.76
253.875	9.55
254.091	8.84
254.306	8.52
254.521	8.55
254.737	9.19
254.952	8.9
255.167	8.72
255.383	9.01
255.598	9.27
255.813	9.55
256.028	9.53
256.244	10.09
256.459	10.21
256.674	10.17
256.889	9.97
257.104	9.51
257.32	9.83
257.535	9.66
257.75	9.41
257.965	9.25
258.18	9.18
258.395	9.12
258.61	8.8
258.826	8.87
259.041	8.85
259.256	8.82
259.471	8.84
259.686	8.79
259.901	8.8
260.116	8.82
260.331	8.59
260.546	8.72
260.761	8.57
260.976	8.57
261.191	8.54
261.406	8.38
261.621	8.31
261.836	8.09
262.05	7.81
262.265	7.73
262.48	7.6
262.695	7.7
262.91	7.87
263.125	8.05
263.34	8.35
263.555	8.29
263.769	8.09
263.984	8.4
264.199	8.35
264.414	8.65
264.629	8.67
264.843	8.88
265.058	8.58
265.273	8.41
265.488	8.26
265.702	8.43
265.917	8.62
266.132	8.97
266.346	8.88
266.561	8.68
266.776	8.62
266.99	8.72
267.205	8.77
267.42	8.79
267.634	8.6
267.849	8.86
268.063	8.5
268.278	8.07
268.492	7.96
268.707	8.11
268.922	8.6
269.136	8.47
269.351	8.47
269.565	8.47
269.78	8.46
269.994	8.17
270.209	8.08
270.423	8.51
270.637	8.86
270.852	8.92
271.066	8.69
271.281	8.74
271.495	8.71
271.709	8.74
271.924	8.53
272.138	8.61
272.353	8.97
272.567	8.76
272.781	8.4
272.996	8.16
273.21	8.02
273.424	8
273.638	7.75
273.853	7.84
274.067	7.6
274.281	7.88
274.495	8.02
274.71	7.97
274.924	7.9
275.138	8.07
275.352	8.06
275.566	8.01
275.781	8.04
275.995	8.28
276.209	8.39
276.423	8.24
276.637	7.93
276.851	7.67
277.065	7.55
277.279	7.56
277.493	7.66
277.707	7.67
277.921	7.88
278.135	7.85
278.349	7.59
278.563	7.46
278.777	7.28
278.991	7.39
279.205	7.76
279.419	8.06
279.633	7.93
279.847	7.68
280.061	7.7
280.275	7.58
280.489	7.6
280.703	7.5
280.917	7.18
281.131	7.64
281.344	7.72
281.558	7.5
281.772	7.23
281.986	7.41
282.2	7.39
282.414	7.37
282.627	7.51
282.841	7.42
283.055	7.35
283.269	7.37
283.482	7.17
283.696	7.1
283.91	7.24
284.123	7.35
284.337	7.18
284.551	7.28
284.764	7.21
284.978	7.28
285.192	7.35
285.405	7.53
285.619	7.78
285.833	7.75
286.046	7.58
286.26	7.44
286.473	7.16
286.687	7.5
286.9	7.5
287.114	7.54
287.327	7.57
287.541	7.57
287.754	7.4
287.968	7.24
288.181	7.35
288.395	7.67
288.608	7.75
288.822	7.85
289.035	7.83
289.248	7.86
289.462	7.97
289.675	7.87
289.889	7.8
290.102	7.92
290.315	8.09
290.529	8.05
290.742	7.95
290.955	7.99
291.169	8.2
291.382	8.01
291.595	7.72
291.808	7.62
292.022	7.9
292.235	7.81
292.448	7.78
292.661	7.63
292.875	7.67
293.088	7.5
293.301	7.33
293.514	7.23
293.727	7.31
293.94	7.6
294.153	7.65
294.367	7.39
294.58	7.46
294.793	7.38
295.006	7.36
295.219	7.5
295.432	7.55
295.645	7.74
295.858	7.7
296.071	7.84
296.284	7.68
296.497	7.64
296.71	7.64
296.923	7.7
297.136	7.76
297.349	7.86
297.562	7.7
297.775	7.78
297.988	7.81
298.201	7.83
298.414	7.65
298.626	7.69
298.839	7.66
299.052	7.66
299.265	7.51
299.478	7.59
299.691	7.35
299.903	7.44
300.116	7.26
300.329	7.16
300.542	7.05
300.755	7.13
300.967	7.31
301.18	7.26
301.393	7.21
301.605	7.26
301.818	7.01
302.031	7.21
302.243	7.18
302.456	7.55
302.669	7.38
302.881	7.67
303.094	7.6
303.307	7.68
303.519	7.72
303.732	7.84
303.944	7.98
304.157	7.84
304.37	7.95
304.582	7.93
304.795	7.63
305.007	7.74
305.22	7.57
305.432	7.3
305.645	7.11
305.857	7.15
306.069	7.16
306.282	7.07
306.494	7.45
306.707	7.43
306.919	7.6
307.132	7.6
307.344	7.49
307.556	7.46
307.769	7.78
307.981	7.71
308.193	7.76
308.406	7.59
308.618	7.67
308.83	7.53
309.043	7.41
309.255	7.39
309.467	7.46
309.679	7.61
309.892	7.63
310.104	7.6
310.316	7.64
310.528	7.65
310.74	7.87
310.953	8.03
311.165	8.12
311.377	8.12
311.589	8.05
311.801	8.03
312.013	7.92
312.225	7.99
312.437	8.04
312.649	8.05
312.862	8.16
313.074	7.99
313.286	7.74
313.498	7.6
313.71	7.86
313.922	7.77
314.134	7.91
314.346	8.1
314.558	8.23
314.77	7.99
314.982	7.97
315.193	7.73
315.405	7.52
315.617	7.71
315.829	7.8
316.041	7.61
316.253	7.61
316.465	7.54
316.677	7.26
316.888	7.19
317.1	7.38
317.312	7.6
317.524	7.87
317.736	8.05
317.947	7.97
318.159	8.15
318.371	8.25
318.583	8.34
318.794	8.32
319.006	8.68
319.218	8.59
319.43	8.5
319.641	8.38
319.853	8.33
320.064	8.51
320.276	8.62
320.488	8.35
320.699	8.55
320.911	8.73
321.123	8.98
321.334	8.9
321.546	8.9
321.757	9.19
321.969	9.12
322.18	9.05
322.392	8.84
322.603	8.54
322.815	8.76
323.026	8.66
323.238	8.46
323.449	8.37
323.661	8.34
323.872	8.51
324.083	8.37
324.295	8.5
324.506	8.43
324.718	8.63
324.929	8.94
325.14	8.95
325.352	9.03
325.563	9.13
325.774	9.24
325.986	9.3
326.197	9.26
326.408	9.51
326.62	9.49
326.831	9.66
327.042	9.67
327.253	9.66
327.464	9.76
327.676	9.54
327.887	9.66
328.098	9.45
328.309	9.58
328.52	9.76
328.732	9.79
328.943	9.95
329.154	10.23
329.365	10.24
329.576	10.25
329.787	10.08
329.998	10.52
330.209	10.46
330.42	10.65
330.631	10.48
330.842	10.43
331.053	10.51
331.264	10.46
331.475	10.16
331.686	10.13
331.897	10.08
332.108	10.08
332.319	9.95
332.53	10.23
332.741	9.9
332.952	9.92
333.163	10.11
333.374	10.02
333.585	10
333.795	10
334.006	10.18
334.217	10.13
334.428	10.36
334.639	10.25
334.849	10.09
335.06	10.48
335.271	10.49
335.482	10.42
335.692	10.52
335.903	10.5
336.114	10.46
336.325	10.43
336.535	10.52
336.746	10.13
336.957	10.23
337.167	10.43
337.378	10.34
337.589	10.35
337.799	10.31
338.01	10.19
338.22	10.3
338.431	10.2
338.642	10.15
338.852	9.94
339.063	10.28
339.273	10.2
339.484	10.14
339.694	10.14
339.905	10.06
340.115	9.96
340.326	9.77
340.536	9.84
340.746	10.06
340.957	10.13
341.167	10.39
341.378	10.35
341.588	10.4
341.799	10.18
342.009	10.06
342.219	10.07
342.43	10.17
342.64	10.15
342.85	9.85
343.061	9.83
343.271	9.73
343.481	9.81
343.691	9.8
343.902	9.67
344.112	9.6
344.322	9.66
344.532	9.75
344.743	9.73
344.953	9.65
345.163	9.84
345.373	9.8
345.583	9.67
345.793	9.48
346.004	9.45
346.214	9.54
346.424	9.68
346.634	9.85
346.844	9.85
347.054	9.85
347.264	10.15
347.474	10.09
347.684	9.98
347.894	10
348.104	10.01
348.314	9.98
348.524	10.05
348.734	9.97
348.944	9.88
349.154	9.81
349.364	9.64
349.574	9.47
349.784	9.5
349.994	9.61
350.204	9.56
350.413	9.43
350.623	9.43
350.833	9.17
351.043	9.13
351.253	9.25
351.463	9.23
351.672	8.96
351.882	9.08
352.092	8.94
352.302	9.03
352.511	9.09
352.721	9.3
352.931	9.27
353.141	9.24
353.35	9.25
353.56	9
353.77	9.11
353.979	9.64
354.189	9.58
354.399	9.75
354.608	9.62
354.818	9.59
355.027	9.53
355.237	9.48
355.447	9.49
355.656	9.49
355.866	9.55
356.075	9.35
356.285	9.16
356.494	9.12
356.704	9.02
356.913	9.02
357.123	9.01
357.332	8.9
357.542	8.95
357.751	8.97
357.96	9
358.17	9.06
358.379	9.19
358.589	9.09
358.798	9.13
359.007	9.1
359.217	9.11
359.426	9.1
359.635	9.12
359.845	9.14
360.054	9.13
360.263	9.11
360.472	9.01
360.682	8.98
360.891	9.03
361.1	8.95
361.309	9.02
361.519	9.01
361.728	9.12
361.937	9.2
362.146	9.18
362.355	9.24
362.564	9.23
362.774	9.2
362.983	9.05
363.192	8.93
363.401	8.96
363.61	8.89
363.819	8.88
364.028	8.81
364.237	8.73
364.446	8.8
364.655	8.69
364.864	8.76
365.073	8.85
365.282	9.02
365.491	9.1
365.7	9.05
365.909	8.97
366.118	9.01
366.327	8.91
366.536	8.87
366.745	8.69
366.954	8.71
367.162	8.72
367.371	8.5
367.58	8.31
367.789	8.19
367.998	8.17
368.207	8.35
368.415	8.31
368.624	8.23
368.833	8.23
369.042	8.36
369.25	8.49
369.459	8.36
369.668	8.4
369.877	8.44
370.085	8.59
370.294	8.58
370.503	8.4
370.711	8.35
370.92	8.38
371.129	8.29
371.337	8.24
371.546	8
371.754	8.01
371.963	8.07
372.171	8.04
372.38	7.87
372.589	7.84
372.797	7.9
373.006	7.8
373.214	7.76
373.423	7.81
373.631	7.74
373.84	7.98
374.048	7.86
374.256	7.82
374.465	7.9
374.673	7.89
374.882	7.85
375.09	7.71
375.298	7.7
375.507	7.69
375.715	7.64
375.923	7.67
376.132	7.56
376.34	7.6
376.548	7.55
376.757	7.53
376.965	7.63
377.173	7.77
377.381	7.84
377.59	7.82
377.798	7.83
378.006	7.86
378.214	7.82
378.423	7.78
378.631	7.8
378.839	7.73
379.047	7.71
379.255	7.62
379.463	7.47
379.671	7.37
379.879	7.42
380.088	7.41
380.296	7.4
380.504	7.44
380.712	7.5
380.92	7.51
381.128	7.51
381.336	7.49
381.544	7.48
381.752	7.61
381.96	7.55
382.168	7.45
382.376	7.49
382.584	7.5
382.791	7.58
382.999	7.47
383.207	7.47
383.415	7.5
383.623	7.57
383.831	7.49
384.039	7.47
384.247	7.54
384.454	7.65
384.662	7.7
384.87	7.59
385.078	7.45
385.285	7.53
385.493	7.42
385.701	7.47
385.909	7.4
386.116	7.49
386.324	7.47
386.532	7.45
386.739	7.36
386.947	7.22
387.155	7.27
387.362	7.27
387.57	7.21
387.778	7.24
387.985	7.24
388.193	7.26
388.4	7.32
388.608	7.19
388.816	7.18
389.023	7.11
389.231	7.09
389.438	7.03
389.646	6.98
389.853	7
390.061	6.93
390.268	6.92
390.475	6.84
390.683	6.73
390.89	6.68
391.098	6.72
391.305	6.75
391.512	6.71
391.72	6.67
391.927	6.6
392.135	6.49
392.342	6.5
392.549	6.42
392.756	6.43
392.964	6.43
393.171	6.45
393.378	6.42
393.586	6.41
393.793	6.49
394	6.5
394.207	6.57
394.414	6.64
394.622	6.72
394.829	6.71
395.036	6.65
395.243	6.67
395.45	6.69
395.657	6.68
395.864	6.67
396.072	6.65
396.279	6.75
396.486	6.7
396.693	6.63
396.9	6.59
397.107	6.49
397.314	6.51
397.521	6.52
397.728	6.49
397.935	6.51
398.142	6.51
398.349	6.49
398.556	6.41
398.763	6.44
398.97	6.55
399.177	6.64
399.383	6.74
399.59	6.76
399.797	6.69
400.004	6.67
400.211	6.63
400.418	6.61
400.625	6.66
400.831	6.58
401.038	6.54
401.245	6.39
401.452	6.19
401.658	6.23
401.865	6.21
402.072	6.22
402.279	6.24
402.485	6.21
402.692	6.19
402.899	6.12
403.105	6.25
403.312	6.2
403.519	6.07
403.725	6.14
403.932	6.1
404.138	6.07
404.345	6.03
404.552	6
404.758	6.03
404.965	5.98
405.171	5.99
405.378	5.87
405.584	5.93
405.791	6.05
405.997	6
406.204	6.04
406.41	6.01
406.617	5.97
406.823	5.97
407.029	5.91
407.236	5.94
407.442	5.95
407.649	6.1
407.855	6.13
408.061	6.15
408.268	6.19
408.474	6.1
408.68	6.18
408.887	6.19
409.093	6.21
409.299	6.23
409.505	6.27
409.712	6.2
409.918	6.08
410.124	6.06
410.33	6
410.537	5.97
410.743	5.98
410.949	5.96
411.155	6.06
411.361	5.97
411.567	5.93
411.773	5.84
411.98	5.9
412.186	5.9
412.392	5.8
412.598	5.88
412.804	5.86
413.01	5.83
413.216	5.78
413.422	5.75
413.628	5.88
413.834	5.87
414.04	5.95
414.246	5.84
414.452	5.81
414.658	5.87
414.864	5.84
415.07	5.82
415.275	5.84
415.481	5.81
415.687	5.7
415.893	5.6
416.099	5.61
416.305	5.58
416.511	5.64
416.716	5.58
416.922	5.57
417.128	5.52
417.334	5.53
417.539	5.5
417.745	5.5
417.951	5.53
418.157	5.55
418.362	5.61
418.568	5.61
418.774	5.56
418.979	5.56
419.185	5.53
419.391	5.55
419.596	5.54
419.802	5.51
420.008	5.5
420.213	5.48
420.419	5.42
420.624	5.36
420.83	5.35
421.035	5.35
421.241	5.37
421.446	5.39
421.652	5.36
421.857	5.34
422.063	5.36
422.268	5.34
422.474	5.36
422.679	5.38
422.885	5.4
423.09	5.4
423.295	5.4
423.501	5.39
423.706	5.32
423.911	5.34
424.117	5.32
424.322	5.31
424.527	5.32
424.733	5.29
424.938	5.33
425.143	5.3
425.349	5.28
425.554	5.32
425.759	5.32
425.964	5.4
426.169	5.39
426.375	5.38
426.58	5.31
426.785	5.33
426.99	5.32
427.195	5.25
427.4	5.27
427.605	5.26
427.811	5.25
428.016	5.26
428.221	5.28
428.426	5.29
428.631	5.26
428.836	5.32
429.041	5.28
429.246	5.3
429.451	5.35
429.656	5.34
429.861	5.3
430.066	5.25
430.271	5.26
430.476	5.16
430.681	5.14
430.886	5.19
431.09	5.21
431.295	5.22
431.5	5.16
431.705	5.09
431.91	5.08
432.115	5.08
432.32	5.09
432.524	5.03
432.729	5.03
432.934	5.07
433.139	5.06
433.343	5.12
433.548	5.1
433.753	5.13
433.958	5.18
434.162	5.17
434.367	5.2
434.572	5.19
434.776	5.25
434.981	5.29
435.186	5.25
435.39	5.26
435.595	5.26
435.799	5.25
436.004	5.27
436.209	5.25
436.413	5.25
436.618	5.21
436.822	5.24
437.027	5.15
437.231	5.11
437.436	5.08
437.64	5.03
437.845	4.92
438.049	4.91
438.253	4.87
438.458	4.83
438.662	4.82
438.867	4.81
439.071	4.8
439.275	4.88
439.48	4.91
439.684	4.94
439.888	4.94
440.093	4.98
440.297	4.97
440.501	4.97
440.706	5.01
440.91	5.05
441.114	5.04
441.318	5.04
441.523	5.01
441.727	5
441.931	5.05
442.135	5.03
442.339	5.02
442.543	5.02
442.748	5.01
442.952	4.98
443.156	4.92
443.36	4.97
443.564	4.96
443.768	4.96
443.972	4.92
444.176	4.86
444.38	4.91
444.584	4.87
444.788	4.9
444.992	4.88
445.196	4.91
445.4	4.95
445.604	4.92
445.808	4.91
446.012	4.89
446.216	4.88
446.42	4.86
446.624	4.85
446.828	4.88
447.032	4.87
447.235	4.91
447.439	4.88
447.643	4.85
447.847	4.87
448.051	4.84
448.254	4.88
448.458	4.9
448.662	4.92
448.866	4.87
449.069	4.85
449.273	4.89
449.477	4.92
449.681	4.95
449.884	4.98
450.088	4.94
450.292	4.97
450.495	4.95
450.699	4.98
450.902	5
451.106	4.99
451.31	5
451.513	4.95
451.717	4.85
451.92	4.81
452.124	4.73
452.327	4.75
452.531	4.73
452.734	4.73
452.938	4.69
453.141	4.69
453.345	4.71
453.548	4.73
453.752	4.73
453.955	4.79
454.158	4.82
454.362	4.81
454.565	4.79
454.769	4.8
454.972	4.8
455.175	4.77
455.379	4.76
455.582	4.74
455.785	4.68
455.988	4.64
456.192	4.6
456.395	4.56
456.598	4.6
456.801	4.62
457.005	4.58
457.208	4.54
457.411	4.55
457.614	4.53
457.817	4.56
458.021	4.57
458.224	4.59
458.427	4.62
458.63	4.63
458.833	4.64
459.036	4.65
459.239	4.65
459.442	4.67
459.645	4.7
459.848	4.73
460.051	4.72
460.254	4.72
460.457	4.74
460.66	4.71
460.863	4.7
461.066	4.73
461.269	4.73
461.472	4.77
461.675	4.8
461.878	4.79
462.081	4.74
462.284	4.74
462.486	4.78
462.689	4.78
462.892	4.77
463.095	4.76
463.298	4.7
463.5	4.74
463.703	4.71
463.906	4.72
464.109	4.71
464.311	4.74
464.514	4.75
464.717	4.72
464.92	4.72
465.122	4.8
465.325	4.88
465.528	4.92
465.73	4.88
465.933	4.88
466.135	4.85
466.338	4.85
466.541	4.87
466.743	4.86
466.946	4.87
467.148	4.9
467.351	4.87
467.553	4.84
467.756	4.86
467.958	4.9
468.161	4.91
468.363	4.92
468.566	4.91
468.768	4.84
468.971	4.88
469.173	4.88
469.375	4.83
469.578	4.91
469.78	4.82
469.983	4.81
470.185	4.8
470.387	4.8
470.59	4.76
470.792	4.74
470.994	4.78
471.196	4.75
471.399	4.76
471.601	4.77
471.803	4.66
472.005	4.71
472.208	4.7
472.41	4.67
472.612	4.66
472.814	4.7
473.016	4.76
473.218	4.78
473.421	4.77
473.623	4.78
473.825	4.76
474.027	4.82
474.229	4.8
474.431	4.82
474.633	4.79
474.835	4.79
475.037	4.75
475.239	4.68
475.441	4.71
475.643	4.67
475.845	4.67
476.047	4.71
476.249	4.67
476.451	4.69
476.653	4.68
476.855	4.71
477.057	4.73
477.258	4.76
477.46	4.8
477.662	4.76
477.864	4.79
478.066	4.76
478.268	4.76
478.469	4.8
478.671	4.78
478.873	4.71
479.075	4.7
479.276	4.7
479.478	4.7
479.68	4.67
479.882	4.69
480.083	4.72
480.285	4.71
480.487	4.69
480.688	4.64
480.89	4.69
481.091	4.71
481.293	4.71
481.495	4.69
481.696	4.68
481.898	4.69
482.099	4.68
482.301	4.68
482.502	4.69
482.704	4.71
482.905	4.71
483.107	4.68
483.308	4.68
483.51	4.67
483.711	4.67
483.913	4.68
484.114	4.68
484.315	4.68
484.517	4.67
484.718	4.66
484.92	4.64
485.121	4.63
485.322	4.64
485.524	4.66
485.725	4.68
485.926	4.7
486.127	4.71
486.329	4.7
486.53	4.7
486.731	4.71
486.932	4.71
487.134	4.72
487.335	4.71
487.536	4.71
487.737	4.71
487.938	4.69
488.139	4.69
488.341	4.68
488.542	4.67
488.743	4.65
488.944	4.65
489.145	4.66
489.346	4.68
489.547	4.7
489.748	4.72
489.949	4.74
490.15	4.74
490.351	4.76
490.552	4.76
490.753	4.77
490.954	4.76
491.155	4.74
491.356	4.72
491.557	4.7
491.758	4.71
491.959	4.7
492.159	4.66
492.36	4.67
492.561	4.65
492.762	4.64
492.963	4.65
493.164	4.68
493.364	4.7
493.565	4.74
493.766	4.77
493.967	4.77
494.167	4.75
494.368	4.79
494.569	4.77
494.769	4.76
494.97	4.76
495.171	4.79
495.371	4.76
495.572	4.77
495.773	4.81
495.973	4.8
496.174	4.81
496.375	4.84
496.575	4.83
496.776	4.87
496.976	4.92
497.177	5
497.377	4.97
497.578	5.03
497.778	5.04
497.979	5.04
498.179	5.06
498.38	5.06
498.58	5.07
498.78	5.09
498.981	5.1
499.181	5.1
499.382	5.06
499.582	5.11
499.782	5.11
499.983	5.11
500.183	5.09
500.383	5.09
500.584	5.1
500.784	5.12
500.984	5.13
501.184	5.1
501.385	5.11
501.585	5.08
501.785	5.06
501.985	5.06
502.185	5.05
502.386	5.08
502.586	5.13
502.786	5.19
502.986	5.22
503.186	5.25
503.386	5.29
503.586	5.31
503.786	5.33
503.987	5.37
504.187	5.41
504.387	5.47
504.587	5.48
504.787	5.46
504.987	5.44
505.187	5.46
505.387	5.43
505.587	5.43
505.786	5.49
505.986	5.5
506.186	5.51
506.386	5.49
506.586	5.47
506.786	5.53
506.986	5.54
507.186	5.55
507.386	5.57
507.585	5.63
507.785	5.65
507.985	5.64
508.185	5.68
508.384	5.71
508.584	5.7
508.784	5.76
508.984	5.76
509.183	5.78
509.383	5.86
509.583	5.86
509.782	5.88
509.982	5.89
510.182	5.91
510.381	5.94
510.581	5.97
510.781	6.02
510.98	6.03
511.18	6.04
511.379	6.09
511.579	6.07
511.778	6.08
511.978	6.07
512.177	6.07
512.377	6.09
512.576	6.09
512.776	6.11
512.975	6.11
513.175	6.12
513.374	6.16
513.573	6.15
513.773	6.19
513.972	6.23
514.172	6.31
514.371	6.38
514.57	6.33
514.77	6.42
514.969	6.44
515.168	6.51
515.367	6.51
515.567	6.55
515.766	6.58
515.965	6.6
516.164	6.65
516.364	6.64
516.563	6.65
516.762	6.74
516.961	6.71
517.16	6.77
517.359	6.79
517.559	6.83
517.758	6.84
517.957	6.89
518.156	6.92
518.355	6.94
518.554	6.96
518.753	6.98
518.952	7.02
519.151	7.07
519.35	7.12
519.549	7.12
519.748	7.15
519.947	7.2
520.146	7.22
520.345	7.24
520.544	7.3
520.743	7.35
520.942	7.4
521.141	7.39
521.339	7.4
521.538	7.38
521.737	7.44
521.936	7.44
522.135	7.44
522.333	7.42
522.532	7.43
522.731	7.44
522.93	7.44
523.129	7.45
523.327	7.48
523.526	7.47
523.725	7.48
523.923	7.51
524.122	7.53
524.321	7.59
524.519	7.65
524.718	7.64
524.917	7.65
525.115	7.63
525.314	7.65
525.512	7.67
525.711	7.75
525.909	7.75
526.108	7.75
526.306	7.77
526.505	7.76
526.703	7.77
526.902	7.84
527.1	7.87
527.299	7.93
527.497	7.97
527.696	8
527.894	8.01
528.092	8.04
528.291	8.06
528.489	8.1
528.688	8.13
528.886	8.17
529.084	8.18
529.283	8.21
529.481	8.24
529.679	8.25
529.877	8.27
530.076	8.28
530.274	8.33
530.472	8.39
530.67	8.4
530.869	8.44
531.067	8.45
531.265	8.47
531.463	8.49
531.661	8.52
531.859	8.55
532.057	8.61
532.255	8.66
532.454	8.67
532.652	8.67
532.85	8.69
533.048	8.7
533.246	8.73
533.444	8.77
533.642	8.79
533.84	8.81
534.038	8.84
534.236	8.88
534.434	8.9
534.632	8.93
534.83	8.96
535.027	9.02
535.225	9.06
535.423	9.12
535.621	9.14
535.819	9.16
536.017	9.18
536.215	9.19
536.412	9.19
536.61	9.22
536.808	9.25
537.006	9.27
537.203	9.26
537.401	9.3
537.599	9.32
537.797	9.36
537.994	9.41
538.192	9.47
538.39	9.5
538.587	9.54
538.785	9.59
538.983	9.63
539.18	9.7
539.378	9.77
539.575	9.82
539.773	9.85
539.97	9.89
540.168	9.91
540.366	9.95
540.563	10
540.761	10.03
540.958	10.04
541.155	10.08
541.353	10.12
541.55	10.15
541.748	10.15
541.945	10.19
542.143	10.2
542.34	10.24
542.537	10.26
542.735	10.29
542.932	10.33
543.129	10.37
543.327	10.41
543.524	10.45
543.721	10.52
543.919	10.55
544.116	10.59
544.313	10.67
544.51	10.71
544.708	10.77
544.905	10.78
545.102	10.79
545.299	10.84
545.496	10.9
545.693	10.92
545.891	10.92
546.088	10.99
546.285	11.03
546.482	11.04
546.679	11.09
546.876	11.11
547.073	11.17
547.27	11.27
547.467	11.3
547.664	11.31
547.861	11.37
548.058	11.4
548.255	11.44
548.452	11.45
548.649	11.55
548.846	11.62
549.043	11.63
549.24	11.65
549.437	11.64
549.633	11.68
549.83	11.72
550.027	11.72
550.224	11.8
550.421	11.84
550.618	11.87
550.814	11.86
551.011	11.87
551.208	11.99
551.405	12.03
551.601	12.1
551.798	12.17
551.995	12.23
552.191	12.25
552.388	12.24
552.585	12.27
552.781	12.35
552.978	12.4
553.175	12.45
553.371	12.47
553.568	12.52
553.764	12.56
553.961	12.63
554.157	12.67
554.354	12.73
554.55	12.88
554.747	12.94
554.943	13
555.14	13.03
555.336	13.07
555.533	13.14
555.729	13.19
555.926	13.26
556.122	13.25
556.318	13.33
556.515	13.39
556.711	13.37
556.907	13.42
557.104	13.46
557.3	13.54
557.496	13.63
557.693	13.66
557.889	13.75
558.085	13.83
558.281	13.88
558.478	13.87
558.674	13.95
558.87	13.97
559.066	13.99
559.262	13.97
559.459	13.99
559.655	13.94
559.851	13.96
560.047	13.96
560.243	13.97
560.439	14.01
560.635	14.03
560.831	14.03
561.027	14.08
561.223	14.1
561.419	14.17
561.615	14.19
561.811	14.25
562.007	14.3
562.203	14.34
562.399	14.32
562.595	14.35
562.791	14.38
562.987	14.45
563.183	14.45
563.379	14.51
563.575	14.52
563.771	14.61
563.966	14.65
564.162	14.66
564.358	14.64
564.554	14.76
564.75	14.82
564.945	14.91
565.141	15
565.337	15.07
565.533	15.12
565.728	15.23
565.924	15.23
566.12	15.35
566.315	15.41
566.511	15.48
566.707	15.48
566.902	15.46
567.098	15.48
567.293	15.46
567.489	15.49
567.684	15.52
567.88	15.48
568.076	15.54
568.271	15.46
568.467	15.48
568.662	15.55
568.858	15.64
569.053	15.71
569.248	15.74
569.444	15.79
569.639	15.85
569.835	15.9
570.03	15.99
570.225	16
570.421	16.07
570.616	16.09
570.812	16.12
571.007	16.08
571.202	16.13
571.397	16.15
571.593	16.18
571.788	16.2
571.983	16.21
572.178	16.21
572.374	16.29
572.569	16.34
572.764	16.36
572.959	16.4
573.154	16.45
573.35	16.5
573.545	16.47
573.74	16.46
573.935	16.47
574.13	16.48
574.325	16.53
574.52	16.45
574.715	16.48
574.91	16.51
575.105	16.51
575.3	16.55
575.495	16.49
575.69	16.59
575.885	16.68
576.08	16.67
576.275	16.69
576.47	16.66
576.665	16.79
576.86	16.79
577.055	16.83
577.25	16.84
577.444	16.89
577.639	17
577.834	17.04
578.029	17.05
578.224	17.14
578.418	17.22
578.613	17.3
578.808	17.29
579.003	17.34
579.197	17.42
579.392	17.42
579.587	17.44
579.781	17.38
579.976	17.33
580.171	17.3
580.365	17.28
580.56	17.2
580.755	17.19
580.949	17.18
581.144	17.19
581.338	17.15
581.533	17.15
581.727	17.13
581.922	17.16
582.116	17.27
582.311	17.34
582.505	17.37
582.7	17.39
582.894	17.43
583.089	17.46
583.283	17.45
583.478	17.49
583.672	17.52
583.866	17.57
584.061	17.53
584.255	17.52
584.449	17.42
584.644	17.47
584.838	17.53
585.032	17.51
585.226	17.51
585.421	17.54
585.615	17.57
585.809	17.6
586.003	17.53
586.198	17.58
586.392	17.57
586.586	17.62
586.78	17.65
586.974	17.73
587.168	17.83
587.363	17.89
587.557	17.94
587.751	17.91
587.945	17.93
588.139	17.97
588.333	18.04
588.527	18.04
588.721	18.07
588.915	18.02
589.109	17.96
589.303	17.86
589.497	17.9
589.691	17.91
589.885	17.97
590.079	18.01
590.273	18
590.466	18.01
590.66	18.05
590.854	18.08
591.048	18.09
591.242	18.13
591.436	18.15
591.629	18.11
591.823	18.09
592.017	18.12
592.211	18.12
592.404	18.16
592.598	18.16
592.792	18.22
592.986	18.23
593.179	18.29
593.373	18.32
593.567	18.32
593.76	18.32
593.954	18.28
594.147	18.25
594.341	18.35
594.535	18.38
594.728	18.38
594.922	18.34
595.115	18.36
595.309	18.39
595.502	18.41
595.696	18.44
595.889	18.46
596.083	18.49
596.276	18.48
596.47	18.37
596.663	18.36
596.856	18.29
597.05	18.31
597.243	18.24
597.437	18.21
597.63	18.21
597.823	18.21
598.017	18.22
598.21	18.16
598.403	18.15
598.596	18.21
598.79	18.23
598.983	18.36
599.176	18.38
599.369	18.45
599.563	18.43
599.756	18.42
599.949	18.4
600.142	18.38
600.335	18.45
600.528	18.42
600.722	18.46
600.915	18.45
601.108	18.46
601.301	18.45
601.494	18.47
601.687	18.48
601.88	18.54
602.073	18.56
602.266	18.58
602.459	18.59
602.652	18.63
602.845	18.66
603.038	18.73
603.231	18.71
603.424	18.73
603.617	18.7
603.809	18.74
604.002	18.71
604.195	18.74
604.388	18.75
604.581	18.78
604.774	18.78
604.966	18.72
605.159	18.65
605.352	18.67
605.545	18.7
605.737	18.71
605.93	18.65
606.123	18.63
606.316	18.7
606.508	18.67
606.701	18.77
606.894	18.84
607.086	18.85
607.279	18.88
607.471	18.89
607.664	18.87
607.857	18.98
608.049	19.13
608.242	19.16
608.434	19.14
608.627	19.18
608.819	19.1
609.012	19.1
609.204	19.09
609.397	19.16
609.589	19.22
609.782	19.2
609.974	19.21
610.166	19.21
610.359	19.17
610.551	19.17
610.743	19.18
610.936	19.26
611.128	19.32
611.32	19.39
611.513	19.36
611.705	19.37
611.897	19.37
612.09	19.34
612.282	19.24
612.474	19.19
612.666	19.25
612.858	19.25
613.051	19.2
613.243	19.11
613.435	19.14
613.627	19.16
613.819	19.09
614.011	19.16
614.203	19.15
614.395	19.14
614.588	19.21
614.78	19.06
614.972	19.08
615.164	19.01
615.356	18.97
615.548	18.94
615.74	18.94
615.932	18.86
616.124	18.88
616.315	18.91
616.507	18.97
616.699	18.97
616.891	19.03
617.083	19.06
617.275	19.15
617.467	19.1
617.659	19.06
617.85	19.07
618.042	19.12
618.234	19.11
618.426	19.08
618.618	19.07
618.809	19.14
619.001	19.16
619.193	19.1
619.384	19.06
619.576	19.14
619.768	19.22
619.959	19.12
620.151	19.12
620.343	19.05
620.534	19.04
620.726	19.01
620.917	19.01
621.109	19
621.301	18.91
621.492	18.95
621.684	18.91
621.875	18.92
622.067	18.97
622.258	18.98
622.45	19.02
622.641	19.06
622.832	19.1
623.024	19.12
623.215	19.1
623.407	19.21
623.598	19.22
623.789	19.24
623.981	19.26
624.172	19.39
624.363	19.41
624.555	19.4
624.746	19.44
624.937	19.45
625.129	19.45
625.32	19.4
625.511	19.46
625.702	19.49
625.893	19.53
626.085	19.49
626.276	19.43
626.467	19.48
626.658	19.52
626.849	19.5
627.04	19.49
627.231	19.46
627.422	19.6
627.614	19.62
627.805	19.63
627.996	19.6
628.187	19.62
628.378	19.64
628.569	19.62
628.76	19.63
628.951	19.68
629.142	19.71
629.332	19.73
629.523	19.71
629.714	19.65
629.905	19.68
630.096	19.71
630.287	19.64
630.478	19.59
630.669	19.65
630.859	19.63
631.05	19.57
631.241	19.53
631.432	19.47
631.623	19.55
631.813	19.59
632.004	19.48
632.195	19.5
632.385	19.54
632.576	19.64
632.767	19.61
632.957	19.64
633.148	19.71
633.339	19.77
633.529	19.86
633.72	19.8
633.91	19.73
634.101	19.89
634.292	19.85
634.482	19.8
634.673	19.69
634.863	19.62
635.054	19.56
635.244	19.49
635.435	19.46
635.625	19.46
635.815	19.44
636.006	19.52
636.196	19.41
636.387	19.39
636.577	19.48
636.767	19.53
636.958	19.62
637.148	19.68
637.338	19.71
637.529	19.68
637.719	19.61
637.909	19.61
638.099	19.56
638.29	19.58
638.48	19.72
638.67	19.71
638.86	19.74
639.05	19.61
639.241	19.67
639.431	19.66
639.621	19.67
639.811	19.75
640.001	19.78
640.191	19.83
640.381	19.76
640.571	19.66
640.761	19.7
640.951	19.61
641.141	19.68
641.331	19.67
641.521	19.58
641.711	19.6
641.901	19.54
642.091	19.5
642.281	19.51
642.471	19.56
642.661	19.56
642.851	19.59
643.041	19.7
643.231	19.7
643.42	19.63
643.61	19.67
643.8	19.58
643.99	19.61
644.18	19.7
644.369	19.72
644.559	19.83
644.749	19.83
644.939	19.75
645.128	19.71
645.318	19.64
645.508	19.74
645.697	19.73
645.887	19.87
646.076	20.01
646.266	19.99
646.456	19.96
646.645	19.83
646.835	19.79
647.024	19.82
647.214	19.99
647.403	20.12
647.593	20.05
647.782	20.13
647.972	20.01
648.161	19.76
648.351	19.74
648.54	19.74
648.73	19.83
648.919	19.92
649.108	19.95
649.298	19.76
649.487	19.69
649.677	19.61
649.866	19.6
650.055	19.82
650.244	19.94
650.434	19.93
650.623	19.9
650.812	19.87
651.002	19.81
651.191	19.89
651.38	19.9
651.569	19.92
651.758	20
651.947	19.94
652.137	19.74
652.326	19.69
652.515	19.65
652.704	19.63
652.893	19.7
653.082	19.73
653.271	19.71
653.46	19.77
653.649	19.8
653.838	19.76
654.027	19.88
654.216	19.91
654.405	20.07
654.594	20.1
654.783	20.1
654.972	20
655.161	19.98
655.35	19.98
655.539	19.96
655.728	19.9
655.916	19.87
656.105	19.82
656.294	19.91
656.483	19.74
656.672	19.82
656.86	19.83
657.049	19.85
657.238	19.84
657.427	19.87
657.615	20.03
657.804	20.03
657.993	20.13
658.181	20.18
658.37	20.17
658.559	20.24
658.747	20.19
658.936	20.22
659.125	20.33
659.313	20.34
659.502	20.27
659.69	20.2
659.879	20.24
660.067	20.26
660.256	20.32
660.444	20.35
660.633	20.37
660.821	20.37
661.01	20.43
661.198	20.38
661.387	20.43
661.575	20.45
661.763	20.41
661.952	20.45
662.14	20.45
662.328	20.4
662.517	20.38
662.705	20.42
662.893	20.51
663.082	20.44
663.27	20.36
663.458	20.19
663.646	20.3
663.834	20.35
664.023	20.3
664.211	20.33
664.399	20.19
664.587	20.21
664.775	20.13
664.963	20.04
665.152	20.08
665.34	20.14
665.528	20.29
665.716	20.17
665.904	20.13
666.092	20.19
666.28	20.11
666.468	20.23
666.656	20.15
666.844	20.28
667.032	20.24
667.22	20.35
667.408	20.35
667.596	20.39
667.784	20.55
667.971	20.55
668.159	20.5
668.347	20.42
668.535	20.36
668.723	20.37
668.911	20.29
669.098	20.33
669.286	20.15
669.474	20.16
669.662	20.06
669.849	19.97
670.037	19.92
670.225	19.94
670.413	20.09
670.6	20.2
670.788	20.24
670.976	20.29
671.163	20.23
671.351	20.28
671.538	20.18
671.726	20.28
671.913	20.18
672.101	20.26
672.289	20.36
672.476	20.38
672.664	20.36
672.851	20.33
673.039	20.28
673.226	20.49
673.413	20.58
673.601	20.75
673.788	20.74
673.976	20.72
674.163	20.67
674.35	20.58
674.538	20.51
674.725	20.54
674.912	20.64
675.1	20.68
675.287	20.52
675.474	20.58
675.662	20.64
675.849	20.6
676.036	20.8
676.223	20.94
676.411	20.86
676.598	20.94
676.785	20.82
676.972	20.76
677.159	20.79
677.346	20.9
677.533	20.78
677.721	20.78
677.908	20.81
678.095	20.74
678.282	20.73
678.469	20.73
678.656	20.71
678.843	20.69
679.03	20.68
679.217	20.67
679.404	20.58
679.591	20.58
679.778	20.49
679.964	20.45
680.151	20.51
680.338	20.41
680.525	20.54
680.712	20.54
680.899	20.6
681.086	20.59
681.272	20.64
681.459	20.72
681.646	20.75
681.833	20.88
682.02	20.95
682.206	20.86
682.393	20.94
682.58	20.85
682.766	20.86
682.953	20.86
683.14	20.89
683.326	20.98
683.513	20.91
683.7	20.89
683.886	20.87
684.073	20.83
684.259	20.83
684.446	20.81
684.632	20.83
684.819	20.79
685.005	20.93
685.192	20.95
685.378	20.74
685.565	20.72
685.751	20.77
685.938	20.58
686.124	20.59
686.31	20.54
686.497	20.49
686.683	20.49
686.87	20.57
687.056	20.47
687.242	20.5
687.429	20.67
687.615	20.74
687.801	20.73
687.987	20.61
688.174	20.61
688.36	20.72
688.546	20.78
688.732	20.7
688.918	20.59
689.105	20.61
689.291	20.49
689.477	20.45
689.663	20.4
689.849	20.37
690.035	20.64
690.221	20.64
690.407	20.52
690.593	20.5
690.779	20.56
690.965	20.66
691.151	20.59
691.337	20.75
691.523	20.67
691.709	20.75
691.895	20.77
692.081	20.72
692.267	20.7
692.453	20.66
692.639	20.65
692.825	20.73
693.011	20.54
693.196	20.44
693.382	20.49
693.568	20.35
693.754	20.28
693.94	20.25
694.125	20.37
694.311	20.4
694.497	20.5
694.682	20.51
694.868	20.48
695.054	20.66
695.239	20.79
695.425	20.71
695.611	20.85
695.796	21.01
695.982	21.08
696.168	20.93
696.353	20.94
696.539	21
696.724	21
696.91	21.11
697.095	21.1
697.281	21.11
697.466	21.08
697.652	21.01
697.837	20.83
698.023	20.77
698.208	20.82
698.393	20.88
698.579	20.87
698.764	20.87
698.949	20.81
699.135	20.79
699.32	20.82
699.505	20.89
699.691	20.87
699.876	21.02
700.061	21.09
700.246	21.09
700.432	21.1
700.617	21.07
700.802	21.04
700.987	21.04
701.172	21.02
701.358	20.9
701.543	20.88
701.728	21
701.913	21
702.098	20.99
702.283	20.96
702.468	20.93
702.653	20.73
702.838	20.9
703.023	20.89
703.208	20.97
703.393	21.04
703.578	20.91
703.763	20.89
703.948	20.85
704.133	20.78
704.318	20.74
704.503	20.66
704.688	21.01
704.873	20.75
705.057	20.7
705.242	20.6
705.427	20.69
705.612	20.8
705.797	20.78
705.981	20.9
706.166	21.06
706.351	21.01
706.536	21.17
706.72	21.01
706.905	21.19
707.09	21.24
707.274	21.26
707.459	21.16
707.644	21.29
707.828	21.25
708.013	21.13
708.197	21.02
708.382	20.94
708.567	20.7
708.751	20.8
708.936	20.79
709.12	20.83
709.305	20.8
709.489	20.83
709.673	20.56
709.858	20.62
710.042	20.72
710.227	20.74
710.411	20.92
710.596	21.13
710.78	21.13
710.964	21.12
711.149	21.18
711.333	21.45
711.517	21.35
711.702	21.52
711.886	21.79
712.07	21.68
712.254	21.79
712.438	21.72
712.623	21.68
712.807	21.71
712.991	21.89
713.175	21.79
713.359	21.63
713.544	21.8
713.728	21.9
713.912	21.61
714.096	21.87
714.28	21.76
714.464	21.87
714.648	21.92
714.832	21.75
715.016	21.54
715.2	21.5
715.384	21.55
715.568	21.51
715.752	21.38
715.936	21.49
716.12	21.2
716.304	21.11
716.488	21.19
716.671	21.11
716.855	21.21
717.039	21.18
717.223	21.24
717.407	21.1
717.59	20.99
717.774	21.01
717.958	20.95
718.142	20.95
718.325	21.09
718.509	21.02
718.693	20.89
718.877	20.76
719.06	20.78
719.244	20.62
719.428	20.58
719.611	20.74
719.795	20.67
719.978	20.65
720.162	20.81
720.345	20.61
720.529	20.48
720.713	20.82
720.896	21.02
721.08	21.23
721.263	21.35
721.446	21.53
721.63	21.52
721.813	21.54
721.997	21.66
722.18	21.64
722.364	21.75
722.547	21.81
722.73	21.5
722.914	21.41
723.097	21.28
723.28	21.41
723.464	21.23
723.647	21.36
723.83	21.3
724.013	21.24
724.197	21.19
724.38	21.34
724.563	21.34
724.746	21.55
724.929	21.9
725.112	21.71
725.296	21.5
725.479	21.62
725.662	21.5
725.845	21.44
726.028	21.17
726.211	21.17
726.394	21.11
726.577	21.22
726.76	21.09
726.943	20.85
727.126	21.07
727.309	21.17
727.492	21.13
727.675	21.07
727.858	21.16
728.041	21.35
728.224	21.32
728.407	21.39
728.589	21.22
728.772	21.42
728.955	21.48
729.138	21.53
729.321	21.48
729.503	21.6
729.686	21.55
729.869	21.61
730.052	21.66
730.234	21.62
730.417	21.64
730.6	21.69
730.782	21.5
730.965	21.48
731.148	21.36
731.33	21.42
731.513	21.23
731.695	21.17
731.878	21.22
732.061	21.2
732.243	21.31
732.426	21.12
732.608	21.4
732.791	21.29
732.973	21.29
733.156	21.3
733.338	21.35
733.52	21.32
733.703	21.55
733.885	21.43
734.068	21.42
734.25	21.24
734.432	21.52
734.615	21.23
734.797	21.27
734.979	21.22
735.162	21.16
735.344	21.07
735.526	21.15
735.708	21
735.891	21.19
736.073	21.46
736.255	21.54
736.437	21.43
736.619	21.37
736.802	21.36
736.984	21.32
737.166	21.35
737.348	21.2
737.53	21.39
737.712	21.6
737.894	21.51
738.076	21.28
738.258	21.27
738.44	21.31
738.622	21.41
738.804	21.54
738.986	21.84
739.168	22
739.35	22.1
739.532	21.96
739.714	21.69
739.896	21.58
740.078	21.56
740.259	21.81
740.441	21.73
740.623	21.9
740.805	21.98
740.987	21.66
741.168	21.47
741.35	21.57
741.532	21.74
741.714	21.98
741.895	22.22
742.077	22.43
742.259	22.46
742.44	22.37
742.622	22.12
742.804	22.15
742.985	22.22
743.167	22.36
743.348	22.19
743.53	22.07
743.711	22.09
743.893	21.86
744.075	21.7
744.256	21.25
744.438	21.32
744.619	21.28
744.8	21.02
744.982	20.95
745.163	20.93
745.345	20.95
745.526	21.06
745.707	21.02
745.889	21.09
746.07	21.24
746.252	21.42
746.433	21.5
746.614	21.63
746.795	22.19
746.977	22.39
747.158	22.36
747.339	22.34
747.52	22.12
747.702	22.04
747.883	21.74
748.064	21.59
748.245	21.5
748.426	21.36
748.607	21.5
748.788	21.01
748.97	20.87
749.151	21.15
749.332	21.42
749.513	21.75
749.694	21.85
749.875	22.21
750.056	22.4
750.237	22.79
750.418	22.83
750.599	22.52
750.78	22.53
750.96	22.41
751.141	22.45
751.322	22.32
751.503	21.99
751.684	22.04
751.865	22.2
752.046	21.93
752.226	21.74
752.407	21.77
752.588	21.85
752.769	22.22
752.949	22.4
753.13	21.89
753.311	22.02
753.492	22.25
753.672	22.08
753.853	21.54
754.034	21.7
754.214	21.77
754.395	21.72
754.575	21.78
754.756	21.49
754.937	21.17
755.117	21.59
755.298	21.49
755.478	21.43
755.659	21.78
755.839	22.02
756.02	22.14
756.2	21.97
756.381	21.76
756.561	21.56
756.741	21.67
756.922	22.1
757.102	22.16
757.283	22.06
757.463	22.02
757.643	21.63
757.823	21.65
758.004	21.58
758.184	21.53
758.364	21.91
758.545	22.27
758.725	22.25
758.905	21.9
759.085	21.65
759.265	21.56
759.446	21.39
759.626	21.41
759.806	21.45
759.986	21.22
760.166	21.19
760.346	20.95
760.526	20.91
760.706	20.9
760.886	21.05
761.066	21.22
761.246	21.42
761.426	21.52
761.606	21.41
761.786	21.62
761.966	21.94
762.146	22.28
762.326	22.22
762.506	22.03
762.686	22.27
762.866	22.13
763.046	21.96
763.225	22.29
763.405	22.38
763.585	22.54
763.765	22.31
763.945	22.11
764.124	22
764.304	22.24
764.484	22.5
764.664	22.43
764.843	22.69
765.023	22.85
765.203	22.43
765.382	22.64
765.562	22.62
765.741	22.96
765.921	23.21
766.101	23.08
766.28	22.96
766.46	22.8
766.639	22.53
766.819	22.21
766.998	22.19
767.178	22.34
767.357	22
767.537	22.03
767.716	21.85
767.896	21.75
768.075	21.67
768.254	21.82
768.434	22.06
768.613	22.04
768.792	22.31
768.972	22.23
769.151	21.99
769.33	21.94
769.51	22.06
769.689	21.78
769.868	21.92
770.047	22.08
770.226	22.15
770.406	21.96
770.585	21.93
770.764	21.88
770.943	22.13
771.122	22.44
771.301	22.4
771.48	22.43
771.66	22.72
771.839	22.56
772.018	22.8
772.197	23.01
772.376	22.65
772.555	22.69
772.734	23.12
772.913	23.14
773.092	22.78
773.271	23.01
773.449	22.95
773.628	23.34
773.807	22.97
773.986	22.37
774.165	21.7
774.344	21.92
774.523	22.04
774.701	21.58
774.88	21.38
775.059	21.29
775.238	21.05
775.417	20.54
775.595	20.33
775.774	20.75
775.953	20.97
776.131	21.17
776.31	21.35
776.489	21.36
776.667	21.41
776.846	21.14
777.025	21.48
777.203	21.62
777.382	21.86
777.56	21.56
777.739	21.24
777.917	21.35
778.096	21.48
778.274	21.41
778.453	21.76
778.631	21.78
778.81	22.13
778.988	21.78
779.166	21.95
779.345	22.57
779.523	22.71
779.702	23.28
779.88	23.87
780.058	24.01
780.237	23.81
780.415	23.8
780.593	23.66
780.771	23.67
780.95	24.38
781.128	24.53
781.306	24.5
781.484	24.41
781.662	24.29
781.841	23.73
782.019	23.42
782.197	23.84
782.375	23.54
782.553	23.91
782.731	24.21
782.909	23.97
783.087	23.84
783.265	23.86
783.443	24.13
783.621	23.41
783.799	23.47
783.977	23.55
784.155	23.64
784.333	23.63
784.511	23.56
784.689	23.23
784.867	23.11
785.045	22.95
785.223	22.55
785.4	22.3
785.578	22.58
785.756	22.77
785.934	22.86
786.112	22.61
786.289	22.73
786.467	22.31
786.645	22.62
786.823	22.7
787	22.91
787.178	22.85
787.356	23.05
787.533	23.27
787.711	22.85
787.889	23.02
788.066	23.2
788.244	23.02
788.421	23.5
788.599	23.13
788.776	22.92
788.954	22.7
789.131	22.83
789.309	22.75
789.486	22.27
789.664	22.91
789.841	22.66
790.019	22.22
790.196	22.44
790.373	21.99
790.551	21.81
790.728	22.25
790.906	22.33
791.083	21.85
791.26	21.68
791.437	22.01
791.615	21.71
791.792	22.18
791.969	22.27
792.146	22.2
792.324	22.59
792.501	22.95
792.678	22.59
792.855	22.35
793.032	22.57
793.209	22.74
793.387	23.42
793.564	23.14
793.741	22.92
793.918	22.79
794.095	23
794.272	23.02
794.449	22.84
794.626	23.09
794.803	23.26
794.98	23.06
795.157	23.15
795.334	22.8
795.511	22.74
795.688	22.29
795.864	22.73
796.041	22.22
796.218	22.08
796.395	22.36
796.572	22.47
796.749	22.31
796.925	22.87
797.102	22.87
797.279	22.71
797.456	22.8
797.632	23.1
797.809	23.12
797.986	23.33
798.162	23.41
798.339	23.06
798.516	22.71
798.692	23.13
798.869	23.01
799.046	22.31
799.222	22.41
799.399	22.2
799.575	22.38
799.752	22.14
799.928	21.96
800.105	21.91
800.281	22.06
800.458	22.44
800.634	21.94
800.811	21.8
800.987	22.27
801.163	22.03
801.34	22.26
801.516	22.03
801.692	22.69
801.869	23.09
802.045	23.18
802.221	23.59
802.398	23.27
802.574	23.68
802.75	23.48
802.926	23.51
803.103	23.19
803.279	23.56
803.455	23.67
803.631	23.49
803.807	22.85
803.983	22.84
804.16	22.21
804.336	21.64
804.512	21.7
804.688	21.81
804.864	21.7
805.04	22.71
805.216	22.31
805.392	22.43
805.568	21.7
805.744	22.49
805.92	22.75
806.096	22.98
806.272	23.17
806.448	22.51
806.623	22.55
806.799	23.02
806.975	23.08
807.151	22.7
807.327	22.22
807.503	22.25
807.678	21.94
807.854	21.83
808.03	22.11
808.206	22.56
808.381	23.35
808.557	22.82
808.733	22.33
808.908	22.21
809.084	22.83
809.26	22.9
809.435	23.39
809.611	23.37
809.787	22.74
809.962	22.05
810.138	21.71
810.313	21.35
810.489	21.89
810.664	21.95
810.84	21.29
811.015	21.85
811.191	21.92
811.366	21.74
811.542	21.96
811.717	22.63
811.892	23.31
812.068	23.83
812.243	24.04
812.419	23.8
812.594	24.08
812.769	24.39
812.944	23.91
813.12	23.72
813.295	23.52
813.47	23.43
813.645	22.67
813.821	22.74
813.996	21.95
814.171	22.03
814.346	22.22
814.521	22.22
814.697	21.74
814.872	21.99
815.047	22.13
815.222	22.24
815.397	22.27
815.572	23.09
815.747	23.11
815.922	23.27
816.097	22.55
816.272	22.95
816.447	23.14
816.622	23.73
816.797	23.26
816.972	23.74
817.147	23.58
817.322	23.5
817.496	23.27
817.671	23.65
817.846	23.64
818.021	23.95
818.196	23.6
818.371	23.33
818.545	23.1
818.72	23
818.895	22.62
819.069	23
819.244	23.15
819.419	23.26
819.594	22.94
819.768	22.84
819.943	22.96
820.117	22.93
820.292	23.04
820.467	23.18
820.641	23.37
820.816	23.68
820.99	23.63
821.165	23.62
821.339	23.7
821.514	23.67
821.688	23.75
821.863	23.7
822.037	23.77
822.212	23.8
822.386	23.86
822.56	23.86
822.735	23.85
822.909	23.85
823.084	23.79
823.258	23.73
823.432	23.81
823.606	23.88
823.781	23.89
823.955	23.85
824.129	23.86
824.303	23.82
824.478	23.89
824.652	23.73
824.826	23.58
825	23.57
825.174	23.31
825.348	23.13
825.523	23.07
825.697	23.04
825.871	23.31
826.045	23.46
826.219	23.4
826.393	23.21
826.567	23.3
826.741	23.46
826.915	23.67
827.089	23.86
827.263	23.87
827.437	23.77
827.611	23.91
827.784	23.75
827.958	23.46
828.132	23.42
828.306	23.35
828.48	23.34
828.654	23.42
828.827	23.37
829.001	23.4
829.175	23.5
829.349	23.91
829.522	23.9
829.696	23.62
829.87	23.71
830.044	24.1
830.217	24.37
830.391	23.92
830.565	24
830.738	23.57
830.912	23.63
831.085	23.51
831.259	23.74
831.432	23.75
831.606	23.9
831.779	23.7
831.953	23.69
832.126	23.4
832.3	23.61
832.473	23.47
832.647	23.62
832.82	23.68
832.994	23.71
833.167	23.18
833.34	23.22
833.514	23.3
833.687	23.52
833.86	23.3
834.034	23.69
834.207	23.74
834.38	23.71
834.553	23.82
834.727	23.99
834.9	24.06
835.073	24.03
835.246	23.77
835.419	23.66
835.593	24.06
835.766	23.93
835.939	23.5
836.112	23.61
836.285	23.23
836.458	23.2
836.631	23.14
836.804	22.9
836.977	22.88
837.15	23.04
837.323	23.06
837.496	21.91
837.669	21.98
837.842	21.78
838.015	22.24
838.188	22.84
838.361	23
838.533	23.09
838.706	23.15
838.879	23.6
839.052	23.5
839.225	23.82
839.398	24.51
839.57	24.23
839.743	23.99
839.916	23.84
840.088	23.7
840.261	24.02
840.434	23.66
840.607	23.02
840.779	23.14
840.952	23.29
841.124	23.5
841.297	24.22
841.47	24.67
841.642	25.13
841.815	23.77
841.987	23.5
842.16	22.58
842.332	23.19
842.505	24.54
842.677	24.75
842.85	25.06
843.022	25.4
843.194	24.75
843.367	24.7
843.539	24.1
843.712	25.19
843.884	25.35
844.056	25.77
844.229	24.66
844.401	24.89
844.573	26.18
844.745	25.55
844.918	24.81
845.09	23.9
845.262	22.85
845.434	24.58
845.606	25.07
845.779	25.43
845.951	26.58
846.123	26.6
846.295	26.22
846.467	24.69
846.639	27.13
846.811	26.46
846.983	26.17
847.155	27.36
847.327	26.65
847.499	26.47
847.671	26.21
847.843	24.58
848.015	22.87
848.187	22.14
848.359	21.73
848.531	20.35
848.703	21.69
848.875	22.99
849.047	21.97
849.218	23.24
849.39	21.9
849.562	22.75
849.734	21.71
849.905	22.68
850.077	23.28
850.249	23.83
850.421	24.39
850.592	23.74
850.764	24.52
850.936	26.58
851.107	26.44
851.279	28.6
851.451	28.58
851.622	31.13
851.794	32.66
851.965	32.46
852.137	31.7
852.308	28.79
852.48	28.76
852.651	27.1
852.823	24.82
852.994	24.21
853.166	22.5
853.337	22.6
853.509	22.39
853.68	22.08
853.851	23.94
854.023	24.56
854.194	26.29
854.365	25.45
854.537	25.3
854.708	25.75
854.879	24.72
855.05	25.85
855.222	25.78
855.393	23.66
855.564	22.34
855.735	19.32
855.906	20.35
856.078	21.73
856.249	23.88
856.42	21.64
856.591	22.46
856.762	23.48
856.933	23.03
857.104	22.53
857.275	22.4
857.446	23.28
857.617	23.32
857.788	22.06
857.959	18.82
858.13	17.25
858.301	17.07
858.472	15.96
858.643	13.23
858.814	14.61
858.985	13.94
859.155	14.67
859.326	16.32
859.497	18.79
859.668	17.68
859.839	19.7
860.009	20.56
860.18	23.09
860.351	23.16
860.522	27.4
860.692	27.89
860.863	29.16
861.034	27.98
861.204	26.21
861.375	24.41
861.546	26.85
861.716	25.86
861.887	23.71
862.057	25.09
862.228	25.22
862.398	22.75
862.569	20.55
862.739	21
862.91	22.3
863.08	21.72
863.251	21.72
863.421	20.02
863.592	22
863.762	23.09
863.932	22.2
864.103	21.59
864.273	19.8
864.443	20.59
864.614	20.72
864.784	21.92
864.954	22.26
865.125	22.51
865.295	23.01
865.465	20.48
865.635	19.87
865.805	18.67
865.976	18.53
866.146	21.58
866.316	19.91
866.486	16.42
866.656	15.97
866.826	15.46
866.996	16.52
867.166	15.52
867.336	17.06
867.506	18.72
867.676	17.42
867.846	16.83
868.016	15.54
868.186	14.61
868.356	17.23
868.526	16.12
868.696	17.53
868.866	18.08
869.036	16.88
869.206	15.66
869.376	16.2
869.545	18.45
869.715	19.96
869.885	19.48
870.055	21.85
870.224	21.72
870.394	23.45
870.564	24.02
870.734	21.81
870.903	22.19
871.073	24.59
871.243	24.64
871.412	24.14
871.582	24.57
871.751	25.69
871.921	26.55
872.091	25.09
872.26	23.25
872.43	22.2
872.599	22.17
872.769	23.62
872.938	21.11
873.108	21.05
873.277	19.97
873.446	22.16
873.616	21.75
873.785	22.19
873.955	24.98
874.124	25.47
874.293	26.43
874.463	28.09
874.632	28.35
874.801	30.7
874.971	30.95
875.14	33.44
875.309	27.57
875.478	28.62
875.647	28.34
875.817	27.43
875.986	25.24
876.155	24.61
876.324	22.68
876.493	25.17
876.662	23.57
876.831	23.56
877	21.15
877.17	26.47
877.339	26.38
877.508	25.46
877.677	25.74
877.846	26.18
878.015	26
878.184	26.86
878.352	26.98
878.521	29.09
878.69	27.88
878.859	29.06
879.028	27.89
879.197	27.18
879.366	27.16
879.534	26.6
879.703	26.52
879.872	26.86
880.041	26.95
880.21	25.59
880.378	24.95
880.547	25.29
880.716	25.05
880.884	24.79
881.053	24.74
881.222	24.4
881.39	24.57
881.559	24.91
881.727	24.76
881.896	24.62
882.065	24.49
882.233	24.53
882.402	24.43
882.57	24.33
882.739	24.38
882.907	24.42
883.076	24.61
883.244	24.81
883.412	24.63
883.581	24.66
883.749	24.86
883.918	25.23
884.086	25.69
884.254	25.91
884.423	26.26
884.591	26.74
884.759	26.14
884.927	26.11
885.096	24.9
885.264	25.59
885.432	25.3
885.6	24.48
885.769	24.71
885.937	23.71
886.105	22.93
886.273	22.91
886.441	23.56
886.609	24.56
886.777	23.22
886.945	24.61
887.113	23.69
887.281	23.15
887.449	24.46
887.617	23.01
887.785	22.26
887.953	23.05
888.121	21.59
888.289	19.83
888.457	19.28
888.625	21.23
888.793	21.35
888.961	20.43
889.129	22.53
889.296	21.75
889.464	22.67
889.632	23.43
889.8	22.98
889.967	24.08
890.135	24.04
