Data from JASIL_3903_Reflection_1.txt Node
Date: Sat Nov 07 20:14:27 EST 2015
User: Geneva
Spectrometer: USB4E03002
Autoset integration time: false
Trigger mode: 4
Integration Time (sec): 1.000000E-1
Scans to average: 10
Electric dark correction enabled: true
Nonlinearity correction enabled: false
Boxcar width: 5
Stray light correction enabled: false
XAxis mode: Wavelengths
Stop averaging: false
Number of Pixels in Spectrum: 3648
>>>>>Begin Spectral Data<<<<<
177.575	90.64
177.794	123.92
178.014	85.14
178.233	75.7
178.452	47.76
178.672	58.88
178.891	-2058.14
179.11	203.09
179.33	122.42
179.549	105.18
179.768	98.88
179.987	84.68
180.207	106.66
180.426	93.22
180.645	101.14
180.864	106.21
181.084	119.01
181.303	118.76
181.522	129.67
181.741	143.75
181.96	141.61
182.179	145.49
182.398	168.34
182.618	150.34
182.837	153.56
183.056	139.44
183.275	132.56
183.494	109.28
183.713	93.1
183.932	92.72
184.151	91.17
184.37	97.11
184.589	92.06
184.808	82.61
185.027	90.42
185.246	93.49
185.465	93.61
185.684	87.45
185.903	109.47
186.122	128.95
186.341	125.12
186.56	127.79
186.779	141.79
186.998	138.17
187.216	142.94
187.435	123.54
187.654	113.99
187.873	123.93
188.092	133.68
188.311	104.18
188.53	98.44
188.748	84.8
188.967	83.81
189.186	75.54
189.405	78.78
189.623	76.41
189.842	82.87
190.061	88.32
190.28	79.54
190.498	72.4
190.717	79.2
190.936	74.98
191.154	80.96
191.373	80.61
191.592	84.35
191.81	84.86
192.029	78.97
192.248	79.7
192.466	72.84
192.685	70.64
192.904	72.79
193.122	65.13
193.341	67.46
193.559	67.81
193.778	71.64
193.996	58.92
194.215	60.61
194.433	60.64
194.652	58.24
194.87	57.27
195.089	65.99
195.307	67.62
195.526	78.83
195.744	75.58
195.963	77.48
196.181	71.63
196.399	78.68
196.618	79.27
196.836	85.21
197.055	86.94
197.273	86.05
197.491	87.17
197.71	85.52
197.928	78.55
198.146	83.13
198.365	75.77
198.583	68.09
198.801	70.3
199.019	62.7
199.238	57.45
199.456	59.07
199.674	62.3
199.892	56.9
200.111	66.81
200.329	66.44
200.547	56.52
200.765	67.18
200.983	88.37
201.202	82.68
201.42	91.58
201.638	92.07
201.856	84.57
202.074	82.21
202.292	80.8
202.51	74.28
202.728	84.56
202.946	83.66
203.165	87.83
203.383	87.37
203.601	87.4
203.819	87.33
204.037	91.32
204.255	91.6
204.473	85.09
204.691	85.59
204.909	88.79
205.127	82.88
205.345	90.91
205.562	94.2
205.78	87.99
205.998	86.52
206.216	82.84
206.434	76.87
206.652	79.19
206.87	87.78
207.088	81.74
207.306	73.73
207.523	75.91
207.741	81.98
207.959	75.06
208.177	73.79
208.395	75.01
208.612	69.07
208.83	68.61
209.048	67.31
209.266	62.95
209.483	67.52
209.701	75.46
209.919	70.49
210.136	62.43
210.354	63.68
210.572	63.82
210.79	68.22
211.007	70.53
211.225	66.98
211.442	68.27
211.66	69.79
211.878	71.29
212.095	59.83
212.313	57.94
212.53	54.93
212.748	50.8
212.966	47.6
213.183	46.47
213.401	50.05
213.618	60.79
213.836	62.85
214.053	65.14
214.271	70.19
214.488	70.94
214.705	66.62
214.923	67.12
215.14	70.55
215.358	77.94
215.575	76.07
215.793	73.57
216.01	76.4
216.227	77.5
216.445	77.19
216.662	74.36
216.879	80.98
217.097	89.58
217.314	87.97
217.531	85.14
217.749	79.21
217.966	77.65
218.183	79.48
218.4	67.97
218.618	62.61
218.835	60.19
219.052	56.23
219.269	52.23
219.487	46.71
219.704	48.39
219.921	43.17
220.138	40.38
220.355	39.38
220.572	38.53
220.79	43.16
221.007	43.36
221.224	41.36
221.441	39.38
221.658	40.71
221.875	40.62
222.092	39.51
222.309	41.69
222.526	39.74
222.743	41.75
222.96	39.52
223.177	36.14
223.394	33.7
223.611	34.56
223.828	36.87
224.045	36.08
224.262	35.49
224.479	32.19
224.696	33.13
224.913	33.41
225.13	30.12
225.347	29.56
225.564	27.24
225.781	26.91
225.997	26.14
226.214	24.63
226.431	21.6
226.648	20.18
226.865	19.76
227.082	17.83
227.298	16.79
227.515	16.86
227.732	16.94
227.949	16.81
228.165	16.02
228.382	15.23
228.599	14.92
228.816	15.28
229.032	15.49
229.249	15.46
229.466	15.95
229.682	16.41
229.899	16.68
230.116	16.3
230.332	16.18
230.549	17.33
230.765	18.98
230.982	19.16
231.199	19.62
231.415	19.57
231.632	20.34
231.848	20.56
232.065	19.9
232.281	19.44
232.498	19.75
232.714	20.74
232.931	20.31
233.147	18.97
233.364	18.62
233.58	18.42
233.797	19.68
234.013	19.44
234.23	18.49
234.446	18.86
234.662	18.76
234.879	17.67
235.095	16.85
235.312	17.01
235.528	17.26
235.744	18.27
235.961	18.67
236.177	16.4
236.393	15.98
236.61	17.03
236.826	16.9
237.042	17.2
237.258	18.28
237.475	19.28
237.691	18.93
237.907	18.38
238.123	16.89
238.339	16.22
238.556	17.41
238.772	17.41
238.988	16.52
239.204	16.29
239.42	15.63
239.636	15.4
239.853	14.16
240.069	13.65
240.285	13.68
240.501	13.57
240.717	13.67
240.933	13.01
241.149	12.89
241.365	12.78
241.581	12.72
241.797	12.82
242.013	12.79
242.229	13.08
242.445	13.45
242.661	13.49
242.877	13.62
243.093	13.53
243.309	13.79
243.525	13.49
243.741	13.89
243.957	13.78
244.173	13.26
244.388	12.9
244.604	12.29
244.82	11.43
245.036	10.99
245.252	10.89
245.468	10.81
245.683	10.74
245.899	10.48
246.115	10.27
246.331	10.28
246.547	10.1
246.762	10.09
246.978	10.35
247.194	10.42
247.409	10.5
247.625	10.42
247.841	10.33
248.057	10.5
248.272	10.62
248.488	10.65
248.703	10.41
248.919	11.1
249.135	11.27
249.35	10.99
249.566	11.24
249.782	11.39
249.997	11.74
250.213	11.71
250.428	11.39
250.644	12.23
250.859	12.18
251.075	12.68
251.29	12.07
251.506	11.83
251.721	11.45
251.937	11.35
252.152	11.03
252.368	10.96
252.583	11.25
252.798	11.37
253.014	11.05
253.229	10.84
253.445	10.28
253.66	11.09
253.875	11.04
254.091	11.89
254.306	11.84
254.521	12.36
254.737	12.41
254.952	11.61
255.167	11.53
255.383	11.03
255.598	11.25
255.813	11.09
256.028	10.48
256.244	10.4
256.459	9.93
256.674	9.39
256.889	8.75
257.104	8.16
257.32	8.7
257.535	8.69
257.75	8.23
257.965	8.43
258.18	8.37
258.395	8.06
258.61	7.93
258.826	7.81
259.041	8.07
259.256	8.2
259.471	8.31
259.686	8.07
259.901	8.02
260.116	8.28
260.331	7.96
260.546	8.1
260.761	8.19
260.976	8.22
261.191	8.34
261.406	8.17
261.621	8.09
261.836	8
262.05	8.02
262.265	7.87
262.48	7.49
262.695	7.78
262.91	7.87
263.125	8.49
263.34	8.67
263.555	9.11
263.769	9.26
263.984	9.47
264.199	9.55
264.414	9.61
264.629	9.6
264.843	9.82
265.058	9.98
265.273	9.38
265.488	8.8
265.702	8.78
265.917	8.58
266.132	8.56
266.346	8.4
266.561	8.32
266.776	8.5
266.99	8.39
267.205	8.7
267.42	8.61
267.634	8.67
267.849	8.71
268.063	8.91
268.278	8.97
268.492	8.96
268.707	8.9
268.922	8.89
269.136	8.73
269.351	8.75
269.565	8.44
269.78	8.22
269.994	8.31
270.209	8.3
270.423	8.1
270.637	7.81
270.852	7.59
271.066	7.64
271.281	7.61
271.495	7.57
271.709	7.66
271.924	7.63
272.138	7.84
272.353	7.8
272.567	7.68
272.781	7.62
272.996	7.85
273.21	8.11
273.424	8.12
273.638	8.06
273.853	8.24
274.067	8.18
274.281	8.16
274.495	8.19
274.71	8.27
274.924	8.48
275.138	8.49
275.352	8.3
275.566	8.22
275.781	8.3
275.995	8.52
276.209	8.52
276.423	8.52
276.637	8.52
276.851	8.03
277.065	8.09
277.279	7.85
277.493	7.9
277.707	8.2
277.921	7.9
278.135	7.61
278.349	7.3
278.563	7.12
278.777	7
278.991	7.11
279.205	7.15
279.419	6.97
279.633	7.34
279.847	7.37
280.061	7.09
280.275	6.9
280.489	7.13
280.703	7.06
280.917	7.16
281.131	7.36
281.344	7.27
281.558	7.19
281.772	7.11
281.986	6.82
282.2	6.74
282.414	6.74
282.627	7.01
282.841	6.97
283.055	7.18
283.269	6.78
283.482	6.79
283.696	6.82
283.91	6.77
284.123	6.8
284.337	6.98
284.551	6.9
284.764	6.99
284.978	6.76
285.192	6.68
285.405	6.38
285.619	6.51
285.833	6.46
286.046	6.2
286.26	6.41
286.473	6.38
286.687	6.28
286.9	6.33
287.114	6.22
287.327	6.39
287.541	6.33
287.754	6.61
287.968	6.62
288.181	6.54
288.395	6.8
288.608	6.74
288.822	6.58
289.035	6.43
289.248	6.32
289.462	6.5
289.675	6.5
289.889	6.66
290.102	6.59
290.315	6.76
290.529	6.73
290.742	6.8
290.955	6.86
291.169	7.1
291.382	7.27
291.595	7.48
291.808	7.39
292.022	7.36
292.235	7.38
292.448	7.35
292.661	7.17
292.875	6.99
293.088	6.67
293.301	6.6
293.514	6.61
293.727	6.39
293.94	6.41
294.153	6.12
294.367	6.07
294.58	5.81
294.793	6.03
295.006	6.12
295.219	6.33
295.432	6.5
295.645	6.47
295.858	6.39
296.071	6.4
296.284	6.36
296.497	6.53
296.71	6.57
296.923	6.76
297.136	6.58
297.349	6.62
297.562	6.63
297.775	6.66
297.988	6.75
298.201	6.84
298.414	7.08
298.626	7.11
298.839	7.09
299.052	7.17
299.265	7.13
299.478	7.13
299.691	7.21
299.903	7.09
300.116	7.03
300.329	6.87
300.542	6.85
300.755	6.97
300.967	6.89
301.18	6.81
301.393	6.85
301.605	6.74
301.818	6.8
302.031	6.78
302.243	6.8
302.456	6.88
302.669	7.04
302.881	7.13
303.094	6.84
303.307	6.9
303.519	7.09
303.732	7.04
303.944	7.2
304.157	7.32
304.37	7.15
304.582	7.23
304.795	7.03
305.007	7.13
305.22	7.08
305.432	7.23
305.645	7.35
305.857	7.21
306.069	7.09
306.282	7.08
306.494	7.06
306.707	7.21
306.919	7.12
307.132	6.98
307.344	6.78
307.556	6.87
307.769	6.98
307.981	7.04
308.193	7.07
308.406	7.14
308.618	7.18
308.83	7.12
309.043	6.99
309.255	7.05
309.467	7.32
309.679	7.4
309.892	7.27
310.104	6.97
310.316	6.84
310.528	6.94
310.74	6.97
310.953	6.82
311.165	6.85
311.377	6.86
311.589	6.9
311.801	6.82
312.013	6.89
312.225	7.07
312.437	7.4
312.649	7.47
312.862	7.33
313.074	7.16
313.286	7.49
313.498	7.5
313.71	7.54
313.922	7.53
314.134	7.48
314.346	7.5
314.558	7.52
314.77	7.52
314.982	7.61
315.193	7.6
315.405	7.94
315.617	7.7
315.829	7.69
316.041	7.92
316.253	7.92
316.465	8.06
316.677	8.17
316.888	8.03
317.1	7.97
317.312	7.85
317.524	8.15
317.736	8.24
317.947	8.49
318.159	8.57
318.371	8.3
318.583	8.36
318.794	8.15
319.006	8.02
319.218	8.21
319.43	8.19
319.641	8.39
319.853	8.51
320.064	8.62
320.276	8.34
320.488	8.46
320.699	8.7
320.911	8.77
321.123	9.36
321.334	9.5
321.546	9.7
321.757	9.95
321.969	9.99
322.18	9.96
322.392	9.76
322.603	9.87
322.815	9.92
323.026	9.77
323.238	9.87
323.449	9.8
323.661	9.82
323.872	9.8
324.083	9.92
324.295	10.09
324.506	10.11
324.718	10.4
324.929	10.63
325.14	10.89
325.352	11.2
325.563	11.48
325.774	11.47
325.986	11.69
326.197	11.95
326.408	12.05
326.62	12.06
326.831	12.37
327.042	12.5
327.253	12.74
327.464	12.94
327.676	13.16
327.887	13.31
328.098	13.54
328.309	13.72
328.52	13.92
328.732	14.07
328.943	14.48
329.154	14.54
329.365	14.87
329.576	15.23
329.787	15.27
329.998	15.46
330.209	15.59
330.42	15.78
330.631	15.99
330.842	16.04
331.053	16.2
331.264	16.32
331.475	16.51
331.686	16.5
331.897	16.64
332.108	16.96
332.319	16.97
332.53	17.06
332.741	17.27
332.952	17.42
333.163	17.57
333.374	17.8
333.585	17.79
333.795	17.92
334.006	18.15
334.217	18.2
334.428	18.32
334.639	18.6
334.849	18.52
335.06	18.51
335.271	18.38
335.482	18.48
335.692	18.47
335.903	18.57
336.114	18.76
336.325	18.7
336.535	18.68
336.746	18.79
336.957	18.69
337.167	18.87
337.378	19.05
337.589	19.39
337.799	19.34
338.01	19.2
338.22	19.15
338.431	18.9
338.642	18.9
338.852	18.9
339.063	18.58
339.273	18.53
339.484	18.48
339.694	18.55
339.905	18.47
340.115	18.34
340.326	18.58
340.536	18.42
340.746	18.75
340.957	18.85
341.167	18.9
341.378	19.12
341.588	19.15
341.799	19.15
342.009	19.03
342.219	18.92
342.43	19.11
342.64	18.93
342.85	19.01
343.061	18.7
343.271	18.65
343.481	18.54
343.691	18.24
343.902	18.34
344.112	18.23
344.322	18.14
344.532	18.12
344.743	18.04
344.953	17.98
345.163	17.99
345.373	17.97
345.583	17.93
345.793	17.88
346.004	18.18
346.214	18.06
346.424	18.21
346.634	18.36
346.844	18.45
347.054	18.55
347.264	18.66
347.474	18.69
347.684	18.81
347.894	18.75
348.104	18.9
348.314	18.72
348.524	18.68
348.734	18.59
348.944	18.39
349.154	18.21
349.364	17.81
349.574	17.78
349.784	17.79
349.994	17.74
350.204	17.54
350.413	17.27
350.623	17.17
350.833	17.08
351.043	16.89
351.253	16.82
351.463	16.8
351.672	17.12
351.882	17.08
352.092	17
352.302	16.98
352.511	17.1
352.721	17.16
352.931	17.14
353.141	17.27
353.35	17.43
353.56	17.43
353.77	17.46
353.979	17.38
354.189	17.38
354.399	17.29
354.608	17.16
354.818	17.11
355.027	17.03
355.237	17.07
355.447	16.96
355.656	16.96
355.866	16.94
356.075	17.01
356.285	16.91
356.494	16.9
356.704	16.89
356.913	16.93
357.123	16.93
357.332	17.02
357.542	16.98
357.751	16.92
357.96	16.95
358.17	16.93
358.379	16.82
358.589	16.9
358.798	16.74
359.007	16.82
359.217	16.87
359.426	16.88
359.635	16.76
359.845	16.74
360.054	16.73
360.263	16.63
360.472	16.66
360.682	16.67
360.891	16.49
361.1	16.57
361.309	16.49
361.519	16.36
361.728	16.41
361.937	16.43
362.146	16.4
362.355	16.3
362.564	16.18
362.774	16.16
362.983	16.08
363.192	16.22
363.401	16.28
363.61	16.2
363.819	16.19
364.028	16.12
364.237	15.97
364.446	15.95
364.655	16.05
364.864	16.07
365.073	16.08
365.282	16.02
365.491	15.9
365.7	15.74
365.909	15.88
366.118	15.85
366.327	15.78
366.536	15.81
366.745	15.77
366.954	15.87
367.162	15.88
367.371	15.83
367.58	15.79
367.789	15.85
367.998	16.02
368.207	16.01
368.415	16.11
368.624	16.1
368.833	16.15
369.042	16.17
369.25	16.04
369.459	16.11
369.668	16.05
369.877	16.11
370.085	15.97
370.294	15.77
370.503	15.58
370.711	15.53
370.92	15.53
371.129	15.38
371.337	15.21
371.546	15.13
371.754	15.09
371.963	15
372.171	14.88
372.38	14.81
372.589	14.79
372.797	14.8
373.006	14.69
373.214	14.7
373.423	14.75
373.631	14.82
373.84	14.77
374.048	14.68
374.256	14.63
374.465	14.66
374.673	14.69
374.882	14.71
375.09	14.71
375.298	14.68
375.507	14.46
375.715	14.43
375.923	14.32
376.132	14.38
376.34	14.44
376.548	14.46
376.757	14.47
376.965	14.51
377.173	14.46
377.381	14.51
377.59	14.6
377.798	14.73
378.006	14.66
378.214	14.65
378.423	14.54
378.631	14.44
378.839	14.42
379.047	14.34
379.255	14.17
379.463	14.05
379.671	13.9
379.879	13.88
380.088	13.9
380.296	13.93
380.504	13.93
380.712	13.92
380.92	13.93
381.128	13.9
381.336	13.71
381.544	13.8
381.752	13.76
381.96	13.7
382.168	13.49
382.376	13.39
382.584	13.42
382.791	13.46
382.999	13.54
383.207	13.47
383.415	13.42
383.623	13.56
383.831	13.47
384.039	13.61
384.247	13.58
384.454	13.6
384.662	13.49
384.87	13.42
385.078	13.38
385.285	13.19
385.493	13.09
385.701	13.04
385.909	12.94
386.116	13.01
386.324	12.81
386.532	12.83
386.739	12.7
386.947	12.75
387.155	12.71
387.362	12.63
387.57	12.7
387.778	12.64
387.985	12.65
388.193	12.69
388.4	12.7
388.608	12.78
388.816	12.73
389.023	12.67
389.231	12.57
389.438	12.67
389.646	12.67
389.853	12.66
390.061	12.69
390.268	12.61
390.475	12.6
390.683	12.58
390.89	12.47
391.098	12.5
391.305	12.61
391.512	12.51
391.72	12.41
391.927	12.42
392.135	12.35
392.342	12.27
392.549	12.31
392.756	12.21
392.964	12.07
393.171	12.06
393.378	12.05
393.586	11.98
393.793	12.04
394	11.98
394.207	11.96
394.414	11.97
394.622	12.04
394.829	12.05
395.036	12.14
395.243	12.09
395.45	12.06
395.657	11.99
395.864	11.97
396.072	11.91
396.279	11.96
396.486	11.87
396.693	11.73
396.9	11.71
397.107	11.6
397.314	11.56
397.521	11.62
397.728	11.6
397.935	11.65
398.142	11.57
398.349	11.61
398.556	11.59
398.763	11.57
398.97	11.67
399.177	11.6
399.383	11.59
399.59	11.48
399.797	11.46
400.004	11.35
400.211	11.31
400.418	11.38
400.625	11.36
400.831	11.26
401.038	11.22
401.245	11.15
401.452	11.14
401.658	11.07
401.865	11.02
402.072	11.09
402.279	11.22
402.485	11.14
402.692	11.05
402.899	11.01
403.105	11.01
403.312	11.08
403.519	11.13
403.725	11.14
403.932	11.23
404.138	11.24
404.345	11.12
404.552	11.07
404.758	11.19
404.965	11.18
405.171	11.16
405.378	11.17
405.584	11.15
405.791	11.03
405.997	11
406.204	10.97
406.41	11.1
406.617	11.02
406.823	11.02
407.029	10.98
407.236	11.02
407.442	11.02
407.649	11.05
407.855	10.93
408.061	10.96
408.268	10.96
408.474	10.96
408.68	10.82
408.887	10.96
409.093	10.97
409.299	10.9
409.505	10.92
409.712	10.86
409.918	10.78
410.124	10.81
410.33	10.81
410.537	10.79
410.743	10.79
410.949	10.74
411.155	10.7
411.361	10.67
411.567	10.7
411.773	10.67
411.98	10.66
412.186	10.78
412.392	10.8
412.598	10.79
412.804	10.74
413.01	10.71
413.216	10.72
413.422	10.67
413.628	10.64
413.834	10.5
414.04	10.44
414.246	10.43
414.452	10.29
414.658	10.31
414.864	10.23
415.07	10.2
415.275	10.21
415.481	10.18
415.687	10.2
415.893	10.2
416.099	10.23
416.305	10.16
416.511	10.16
416.716	10.16
416.922	10.09
417.128	10.1
417.334	10.11
417.539	10.06
417.745	10.01
417.951	9.98
418.157	9.92
418.362	9.91
418.568	9.92
418.774	9.89
418.979	9.88
419.185	9.89
419.391	9.87
419.596	9.86
419.802	9.81
420.008	9.8
420.213	9.82
420.419	9.81
420.624	9.79
420.83	9.78
421.035	9.79
421.241	9.77
421.446	9.74
421.652	9.76
421.857	9.75
422.063	9.78
422.268	9.8
422.474	9.73
422.679	9.73
422.885	9.7
423.09	9.67
423.295	9.62
423.501	9.64
423.706	9.61
423.911	9.54
424.117	9.51
424.322	9.5
424.527	9.5
424.733	9.5
424.938	9.5
425.143	9.54
425.349	9.57
425.554	9.6
425.759	9.55
425.964	9.58
426.169	9.58
426.375	9.57
426.58	9.58
426.785	9.59
426.99	9.62
427.195	9.64
427.4	9.6
427.605	9.6
427.811	9.63
428.016	9.68
428.221	9.67
428.426	9.69
428.631	9.77
428.836	9.71
429.041	9.68
429.246	9.64
429.451	9.62
429.656	9.67
429.861	9.65
430.066	9.65
430.271	9.59
430.476	9.59
430.681	9.62
430.886	9.61
431.09	9.65
431.295	9.64
431.5	9.65
431.705	9.59
431.91	9.51
432.115	9.49
432.32	9.44
432.524	9.44
432.729	9.41
432.934	9.38
433.139	9.39
433.343	9.36
433.548	9.35
433.753	9.35
433.958	9.4
434.162	9.43
434.367	9.45
434.572	9.49
434.776	9.44
434.981	9.46
435.186	9.43
435.39	9.37
435.595	9.38
435.799	9.35
436.004	9.3
436.209	9.26
436.413	9.23
436.618	9.19
436.822	9.18
437.027	9.16
437.231	9.14
437.436	9.16
437.64	9.14
437.845	9.14
438.049	9.18
438.253	9.16
438.458	9.16
438.662	9.14
438.867	9.13
439.071	9.14
439.275	9.18
439.48	9.22
439.684	9.2
439.888	9.22
440.093	9.19
440.297	9.16
440.501	9.2
440.706	9.2
440.91	9.22
441.114	9.29
441.318	9.26
441.523	9.25
441.727	9.23
441.931	9.26
442.135	9.27
442.339	9.3
442.543	9.3
442.748	9.26
442.952	9.23
443.156	9.21
443.36	9.14
443.564	9.18
443.768	9.12
443.972	9.08
444.176	9.02
444.38	8.99
444.584	8.95
444.788	8.99
444.992	8.96
445.196	8.92
445.4	8.89
445.604	8.87
445.808	8.83
446.012	8.87
446.216	8.87
446.42	8.91
446.624	8.89
446.828	8.88
447.032	8.87
447.235	8.89
447.439	8.95
447.643	9
447.847	9.04
448.051	9.05
448.254	9.01
448.458	9.01
448.662	9.01
448.866	8.98
449.069	9
449.273	9.03
449.477	9.01
449.681	8.97
449.884	8.94
450.088	8.95
450.292	8.93
450.495	8.94
450.699	9
450.902	8.98
451.106	9
451.31	8.99
451.513	8.9
451.717	8.92
451.92	8.98
452.124	8.98
452.327	8.96
452.531	8.99
452.734	8.98
452.938	8.9
453.141	8.91
453.345	8.91
453.548	8.87
453.752	8.93
453.955	8.96
454.158	8.93
454.362	8.93
454.565	8.94
454.769	8.92
454.972	8.96
455.175	8.99
455.379	9.02
455.582	8.99
455.785	9.02
455.988	8.98
456.192	8.94
456.395	8.87
456.598	8.88
456.801	8.91
457.005	8.94
457.208	8.88
457.411	8.88
457.614	8.81
457.817	8.81
458.021	8.79
458.224	8.76
458.427	8.74
458.63	8.78
458.833	8.75
459.036	8.69
459.239	8.66
459.442	8.7
459.645	8.72
459.848	8.75
460.051	8.76
460.254	8.79
460.457	8.8
460.66	8.86
460.863	8.87
461.066	8.86
461.269	8.87
461.472	8.93
461.675	8.9
461.878	8.89
462.081	8.88
462.284	8.91
462.486	8.85
462.689	8.93
462.892	8.88
463.095	8.88
463.298	8.91
463.5	8.9
463.703	8.9
463.906	8.96
464.109	8.97
464.311	8.95
464.514	8.95
464.717	9.02
464.92	9
465.122	9
465.325	9
465.528	8.99
465.73	9.04
465.933	9.03
466.135	8.9
466.338	8.88
466.541	8.85
466.743	8.84
466.946	8.85
467.148	8.84
467.351	8.87
467.553	8.86
467.756	8.92
467.958	8.86
468.161	8.81
468.363	8.87
468.566	8.85
468.768	8.87
468.971	8.89
469.173	8.87
469.375	8.83
469.578	8.72
469.78	8.67
469.983	8.63
470.185	8.66
470.387	8.63
470.59	8.72
470.792	8.72
470.994	8.74
471.196	8.71
471.399	8.72
471.601	8.73
471.803	8.78
472.005	8.82
472.208	8.86
472.41	8.9
472.612	8.92
472.814	8.92
473.016	8.94
473.218	8.96
473.421	8.91
473.623	8.93
473.825	8.96
474.027	9
474.229	9.04
474.431	8.99
474.633	8.97
474.835	8.98
475.037	8.93
475.239	8.97
475.441	8.94
475.643	9.02
475.845	8.94
476.047	8.93
476.249	8.89
476.451	8.84
476.653	8.82
476.855	8.8
477.057	8.75
477.258	8.77
477.46	8.73
477.662	8.72
477.864	8.7
478.066	8.71
478.268	8.7
478.469	8.7
478.671	8.68
478.873	8.69
479.075	8.66
479.276	8.72
479.478	8.72
479.68	8.68
479.882	8.68
480.083	8.69
480.285	8.68
480.487	8.68
480.688	8.65
480.89	8.67
481.091	8.6
481.293	8.63
481.495	8.59
481.696	8.56
481.898	8.54
482.099	8.52
482.301	8.48
482.502	8.46
482.704	8.43
482.905	8.44
483.107	8.4
483.308	8.41
483.51	8.38
483.711	8.37
483.913	8.37
484.114	8.38
484.315	8.4
484.517	8.42
484.718	8.42
484.92	8.43
485.121	8.43
485.322	8.44
485.524	8.46
485.725	8.47
485.926	8.48
486.127	8.47
486.329	8.46
486.53	8.45
486.731	8.42
486.932	8.43
487.134	8.41
487.335	8.41
487.536	8.42
487.737	8.42
487.938	8.42
488.139	8.42
488.341	8.43
488.542	8.45
488.743	8.45
488.944	8.47
489.145	8.46
489.346	8.52
489.547	8.54
489.748	8.54
489.949	8.53
490.15	8.55
490.351	8.54
490.552	8.56
490.753	8.56
490.954	8.55
491.155	8.55
491.356	8.56
491.557	8.55
491.758	8.56
491.959	8.6
492.159	8.62
492.36	8.64
492.561	8.66
492.762	8.67
492.963	8.69
493.164	8.75
493.364	8.78
493.565	8.85
493.766	8.87
493.967	8.88
494.167	8.86
494.368	8.88
494.569	8.86
494.769	8.89
494.97	8.91
495.171	8.9
495.371	8.85
495.572	8.83
495.773	8.78
495.973	8.77
496.174	8.79
496.375	8.82
496.575	8.82
496.776	8.85
496.976	8.84
497.177	8.85
497.377	8.89
497.578	8.9
497.778	8.94
497.979	8.96
498.179	8.99
498.38	8.99
498.58	8.99
498.78	9
498.981	9
499.181	9.03
499.382	9.03
499.582	8.99
499.782	9.02
499.983	9.06
500.183	9.08
500.383	9.12
500.584	9.14
500.784	9.14
500.984	9.19
501.184	9.14
501.385	9.14
501.585	9.16
501.785	9.18
501.985	9.22
502.185	9.22
502.386	9.24
502.586	9.17
502.786	9.23
502.986	9.28
503.186	9.33
503.386	9.42
503.586	9.45
503.786	9.45
503.987	9.51
504.187	9.52
504.387	9.54
504.587	9.55
504.787	9.59
504.987	9.54
505.187	9.54
505.387	9.46
505.587	9.47
505.786	9.49
505.986	9.52
506.186	9.47
506.386	9.47
506.586	9.49
506.786	9.53
506.986	9.55
507.186	9.57
507.386	9.56
507.585	9.62
507.785	9.63
507.985	9.62
508.185	9.62
508.384	9.66
508.584	9.65
508.784	9.64
508.984	9.66
509.183	9.7
509.383	9.72
509.583	9.76
509.782	9.78
509.982	9.8
510.182	9.85
510.381	9.91
510.581	9.97
510.781	10.04
510.98	10.1
511.18	10.13
511.379	10.15
511.579	10.24
511.778	10.27
511.978	10.31
512.177	10.33
512.377	10.35
512.576	10.38
512.776	10.41
512.975	10.43
513.175	10.48
513.374	10.51
513.573	10.55
513.773	10.57
513.972	10.57
514.172	10.67
514.371	10.74
514.57	10.81
514.77	10.86
514.969	10.88
515.168	10.95
515.367	10.93
515.567	10.96
515.766	11.02
515.965	11.06
516.164	11.15
516.364	11.14
516.563	11.16
516.762	11.19
516.961	11.2
517.16	11.24
517.359	11.24
517.559	11.29
517.758	11.32
517.957	11.33
518.156	11.34
518.355	11.38
518.554	11.41
518.753	11.45
518.952	11.47
519.151	11.51
519.35	11.57
519.549	11.64
519.748	11.73
519.947	11.77
520.146	11.85
520.345	11.9
520.544	11.97
520.743	11.99
520.942	12.07
521.141	12.14
521.339	12.21
521.538	12.25
521.737	12.3
521.936	12.32
522.135	12.39
522.333	12.45
522.532	12.5
522.731	12.55
522.93	12.63
523.129	12.67
523.327	12.77
523.526	12.83
523.725	12.88
523.923	12.9
524.122	12.98
524.321	13.01
524.519	13.06
524.718	13.11
524.917	13.15
525.115	13.21
525.314	13.25
525.512	13.29
525.711	13.33
525.909	13.37
526.108	13.41
526.306	13.44
526.505	13.49
526.703	13.51
526.902	13.59
527.1	13.61
527.299	13.65
527.497	13.67
527.696	13.71
527.894	13.74
528.092	13.77
528.291	13.82
528.489	13.87
528.688	13.92
528.886	13.98
529.084	14.01
529.283	14.08
529.481	14.13
529.679	14.2
529.877	14.28
530.076	14.38
530.274	14.46
530.472	14.53
530.67	14.6
530.869	14.66
531.067	14.74
531.265	14.8
531.463	14.88
531.661	14.92
531.859	14.99
532.057	15.03
532.255	15.05
532.454	15.08
532.652	15.14
532.85	15.18
533.048	15.23
533.246	15.28
533.444	15.35
533.642	15.37
533.84	15.46
534.038	15.51
534.236	15.55
534.434	15.64
534.632	15.73
534.83	15.8
535.027	15.84
535.225	15.88
535.423	15.92
535.621	15.94
535.819	15.99
536.017	16
536.215	16.02
536.412	16.1
536.61	16.15
536.808	16.18
537.006	16.2
537.203	16.29
537.401	16.38
537.599	16.45
537.797	16.49
537.994	16.52
538.192	16.63
538.39	16.68
538.587	16.71
538.785	16.71
538.983	16.77
539.18	16.84
539.378	16.87
539.575	16.87
539.773	16.91
539.97	16.93
540.168	16.98
540.366	16.99
540.563	17.04
540.761	17.08
540.958	17.13
541.155	17.14
541.353	17.18
541.55	17.21
541.748	17.25
541.945	17.28
542.143	17.34
542.34	17.38
542.537	17.41
542.735	17.46
542.932	17.5
543.129	17.54
543.327	17.61
543.524	17.64
543.721	17.69
543.919	17.76
544.116	17.81
544.313	17.91
544.51	17.95
544.708	18
544.905	18.04
545.102	18.13
545.299	18.18
545.496	18.22
545.693	18.23
545.891	18.29
546.088	18.32
546.285	18.38
546.482	18.35
546.679	18.39
546.876	18.42
547.073	18.46
547.27	18.47
547.467	18.51
547.664	18.55
547.861	18.61
548.058	18.69
548.255	18.76
548.452	18.81
548.649	18.89
548.846	18.94
549.043	18.96
549.24	18.97
549.437	18.97
549.633	18.98
549.83	19.05
550.027	19.08
550.224	19.03
550.421	19.04
550.618	18.98
550.814	19
551.011	19.02
551.208	19.05
551.405	19.09
551.601	19.11
551.798	19.11
551.995	19.12
552.191	19.14
552.388	19.17
552.585	19.18
552.781	19.25
552.978	19.28
553.175	19.3
553.371	19.37
553.568	19.4
553.764	19.46
553.961	19.49
554.157	19.5
554.354	19.5
554.55	19.51
554.747	19.55
554.943	19.61
555.14	19.6
555.336	19.66
555.533	19.67
555.729	19.7
555.926	19.74
556.122	19.76
556.318	19.78
556.515	19.83
556.711	19.85
556.907	19.85
557.104	19.87
557.3	19.87
557.496	19.87
557.693	19.91
557.889	19.94
558.085	19.92
558.281	19.98
558.478	20.04
558.674	20.06
558.87	20.09
559.066	20.14
559.262	20.15
559.459	20.19
559.655	20.2
559.851	20.22
560.047	20.27
560.243	20.3
560.439	20.33
560.635	20.32
560.831	20.37
561.027	20.4
561.223	20.45
561.419	20.49
561.615	20.47
561.811	20.51
562.007	20.52
562.203	20.53
562.399	20.5
562.595	20.53
562.791	20.57
562.987	20.51
563.183	20.55
563.379	20.57
563.575	20.59
563.771	20.68
563.966	20.67
564.162	20.67
564.358	20.69
564.554	20.72
564.75	20.7
564.945	20.7
565.141	20.78
565.337	20.74
565.533	20.76
565.728	20.74
565.924	20.69
566.12	20.68
566.315	20.7
566.511	20.69
566.707	20.72
566.902	20.78
567.098	20.81
567.293	20.81
567.489	20.86
567.684	20.87
567.88	20.91
568.076	21.01
568.271	21.1
568.467	21.09
568.662	21.13
568.858	21.14
569.053	21.11
569.248	21.09
569.444	21.1
569.639	21.09
569.835	21.07
570.03	21.06
570.225	21.05
570.421	21.09
570.616	21.18
570.812	21.18
571.007	21.19
571.202	21.26
571.397	21.28
571.593	21.31
571.788	21.35
571.983	21.38
572.178	21.39
572.374	21.44
572.569	21.4
572.764	21.38
572.959	21.41
573.154	21.37
573.35	21.31
573.545	21.34
573.74	21.35
573.935	21.37
574.13	21.39
574.325	21.42
574.52	21.39
574.715	21.47
574.91	21.45
575.105	21.43
575.3	21.51
575.495	21.56
575.69	21.62
575.885	21.62
576.08	21.67
576.275	21.65
576.47	21.67
576.665	21.69
576.86	21.61
577.055	21.65
577.25	21.68
577.444	21.69
577.639	21.73
577.834	21.67
578.029	21.72
578.224	21.66
578.418	21.68
578.613	21.66
578.808	21.69
579.003	21.77
579.197	21.8
579.392	21.74
579.587	21.77
579.781	21.72
579.976	21.78
580.171	21.76
580.365	21.82
580.56	21.83
580.755	21.84
580.949	21.91
581.144	21.88
581.338	21.87
581.533	21.94
581.727	21.9
581.922	21.93
582.116	21.89
582.311	21.87
582.505	21.86
582.7	21.88
582.894	21.95
583.089	21.87
583.283	21.9
583.478	21.94
583.672	21.94
583.866	22.03
584.061	22.1
584.255	22.18
584.449	22.23
584.644	22.26
584.838	22.29
585.032	22.31
585.226	22.37
585.421	22.39
585.615	22.38
585.809	22.42
586.003	22.36
586.198	22.37
586.392	22.35
586.586	22.36
586.78	22.4
586.974	22.47
587.168	22.39
587.363	22.44
587.557	22.42
587.751	22.43
587.945	22.44
588.139	22.56
588.333	22.63
588.527	22.6
588.721	22.6
588.915	22.6
589.109	22.54
589.303	22.61
589.497	22.56
589.691	22.56
589.885	22.61
590.079	22.59
590.273	22.48
590.466	22.36
590.66	22.37
590.854	22.38
591.048	22.4
591.242	22.42
591.436	22.42
591.629	22.44
591.823	22.46
592.017	22.44
592.211	22.49
592.404	22.49
592.598	22.54
592.792	22.6
592.986	22.59
593.179	22.56
593.373	22.58
593.567	22.6
593.76	22.63
593.954	22.66
594.147	22.65
594.341	22.62
594.535	22.6
594.728	22.61
594.922	22.61
595.115	22.65
595.309	22.64
595.502	22.63
595.696	22.64
595.889	22.65
596.083	22.65
596.276	22.7
596.47	22.72
596.663	22.8
596.856	22.85
597.05	22.82
597.243	22.83
597.437	22.9
597.63	22.91
597.823	22.95
598.017	22.9
598.21	22.91
598.403	22.87
598.596	22.92
598.79	22.92
598.983	22.91
599.176	22.9
599.369	22.91
599.563	22.88
599.756	22.94
599.949	22.97
600.142	23.05
600.335	23.05
600.528	23.09
600.722	23.05
600.915	23.14
601.108	23.13
601.301	23.22
601.494	23.22
601.687	23.21
601.88	23.17
602.073	23.07
602.266	23.04
602.459	23.04
602.652	23.03
602.845	23.04
603.038	22.96
603.231	22.97
603.424	22.93
603.617	22.92
603.809	22.88
604.002	22.91
604.195	22.99
604.388	23.02
604.581	23.04
604.774	23.05
604.966	23.03
605.159	23.07
605.352	23.09
605.545	23.2
605.737	23.25
605.93	23.36
606.123	23.4
606.316	23.4
606.508	23.43
606.701	23.45
606.894	23.35
607.086	23.44
607.279	23.46
607.471	23.47
607.664	23.4
607.857	23.44
608.049	23.44
608.242	23.4
608.434	23.36
608.627	23.33
608.819	23.32
609.012	23.44
609.204	23.47
609.397	23.49
609.589	23.49
609.782	23.56
609.974	23.53
610.166	23.55
610.359	23.63
610.551	23.67
610.743	23.77
610.936	23.87
611.128	23.89
611.32	23.88
611.513	23.9
611.705	23.98
611.897	23.95
612.09	23.95
612.282	23.92
612.474	23.86
612.666	23.95
612.858	24.01
613.051	23.99
613.243	23.99
613.435	24.03
613.627	24.02
613.819	23.94
614.011	24.09
614.203	24.14
614.395	24.2
614.588	24.17
614.78	24.09
614.972	24.05
615.164	24.04
615.356	24.12
615.548	24.02
615.74	24.08
615.932	24.1
616.124	23.91
616.315	23.83
616.507	23.74
616.699	23.69
616.891	23.68
617.083	23.69
617.275	23.68
617.467	23.57
617.659	23.61
617.85	23.54
618.042	23.59
618.234	23.67
618.426	23.75
618.618	23.87
618.809	23.95
619.001	23.96
619.193	23.93
619.384	23.92
619.576	23.97
619.768	24.01
619.959	23.98
620.151	23.96
620.343	23.91
620.534	23.92
620.726	23.89
620.917	23.86
621.109	23.82
621.301	23.86
621.492	23.91
621.684	23.93
621.875	23.83
622.067	23.9
622.258	23.87
622.45	23.94
622.641	23.94
622.832	23.92
623.024	23.95
623.215	24.01
623.407	24.03
623.598	23.87
623.789	23.87
623.981	23.94
624.172	23.95
624.363	23.98
624.555	23.97
624.746	23.93
624.937	23.92
625.129	23.93
625.32	23.88
625.511	23.86
625.702	23.93
625.893	23.94
626.085	23.93
626.276	23.86
626.467	23.84
626.658	23.82
626.849	23.86
627.04	23.88
627.231	23.91
627.422	23.9
627.614	23.84
627.805	23.87
627.996	23.84
628.187	23.94
628.378	24.01
628.569	24.01
628.76	24.05
628.951	24.05
629.142	24.03
629.332	24.03
629.523	24.09
629.714	24.15
629.905	24.19
630.096	24.21
630.287	24.19
630.478	24.16
630.669	24.16
630.859	24.07
631.05	24.07
631.241	24.12
631.432	24.15
631.623	24.18
631.813	24.18
632.004	24.11
632.195	24.06
632.385	23.93
632.576	23.99
632.767	24
632.957	24
633.148	24.02
633.339	23.99
633.529	23.94
633.72	23.8
633.91	23.78
634.101	23.73
634.292	23.78
634.482	23.85
634.673	23.9
634.863	23.92
635.054	23.98
635.244	23.92
635.435	23.96
635.625	23.98
635.815	24.03
636.006	24.04
636.196	24.13
636.387	24.08
636.577	24.1
636.767	24.05
636.958	24.04
637.148	24.06
637.338	24.06
637.529	23.99
637.719	24.05
637.909	24.11
638.099	24.1
638.29	24.09
638.48	24.28
638.67	24.31
638.86	24.39
639.05	24.39
639.241	24.32
639.431	24.35
639.621	24.36
639.811	24.32
640.001	24.33
640.191	24.3
640.381	24.25
640.571	24.18
640.761	24.09
640.951	23.96
641.141	24.03
641.331	24.04
641.521	24.08
641.711	24.08
641.901	24.07
642.091	24.07
642.281	24.12
642.471	24.14
642.661	24.15
642.851	24.33
643.041	24.46
643.231	24.39
643.42	24.39
643.61	24.4
643.8	24.39
643.99	24.47
644.18	24.46
644.369	24.55
644.559	24.6
644.749	24.57
644.939	24.48
645.128	24.42
645.318	24.42
645.508	24.4
645.697	24.42
645.887	24.5
646.076	24.45
646.266	24.46
646.456	24.43
646.645	24.43
646.835	24.4
647.024	24.38
647.214	24.36
647.403	24.4
647.593	24.41
647.782	24.48
647.972	24.46
648.161	24.42
648.351	24.47
648.54	24.4
648.73	24.29
648.919	24.34
649.108	24.28
649.298	24.33
649.487	24.34
649.677	24.38
649.866	24.31
650.055	24.32
650.244	24.38
650.434	24.39
650.623	24.46
650.812	24.6
651.002	24.56
651.191	24.62
651.38	24.66
651.569	24.58
651.758	24.65
651.947	24.81
652.137	24.76
652.326	24.71
652.515	24.73
652.704	24.71
652.893	24.66
653.082	24.78
653.271	24.84
653.46	24.78
653.649	24.89
653.838	24.84
654.027	24.78
654.216	24.81
654.405	24.82
654.594	24.76
654.783	24.81
654.972	24.82
655.161	24.74
655.35	24.69
655.539	24.61
655.728	24.63
655.916	24.65
656.105	24.6
656.294	24.7
656.483	24.76
656.672	24.76
656.86	24.69
657.049	24.67
657.238	24.69
657.427	24.71
657.615	24.74
657.804	24.74
657.993	24.7
658.181	24.66
658.37	24.6
658.559	24.53
658.747	24.49
658.936	24.48
659.125	24.54
659.313	24.52
659.502	24.51
659.69	24.48
659.879	24.46
660.067	24.48
660.256	24.48
660.444	24.44
660.633	24.47
660.821	24.5
661.01	24.59
661.198	24.63
661.387	24.64
661.575	24.61
661.763	24.67
661.952	24.73
662.14	24.78
662.328	24.76
662.517	24.76
662.705	24.78
662.893	24.85
663.082	24.95
663.27	24.81
663.458	24.94
663.646	24.97
663.834	24.97
664.023	24.93
664.211	24.92
664.399	24.95
664.587	25.01
664.775	24.94
664.963	24.87
665.152	24.73
665.34	24.78
665.528	24.66
665.716	24.74
665.904	24.77
666.092	24.75
666.28	24.65
666.468	24.67
666.656	24.61
666.844	24.69
667.032	24.72
667.22	24.73
667.408	24.72
667.596	24.87
667.784	24.77
667.971	24.76
668.159	24.79
668.347	24.87
668.535	24.87
668.723	24.97
668.911	24.95
669.098	24.95
669.286	25.01
669.474	25.04
669.662	24.93
669.849	24.99
670.037	24.96
670.225	24.87
670.413	24.76
670.6	24.73
670.788	24.62
670.976	24.67
671.163	24.66
671.351	24.71
671.538	24.71
671.726	24.77
671.913	24.78
672.101	24.78
672.289	24.79
672.476	24.84
672.664	24.93
672.851	24.94
673.039	24.89
673.226	24.93
673.413	24.76
673.601	24.79
673.788	24.68
673.976	24.67
674.163	24.72
674.35	24.88
674.538	24.92
674.725	24.9
674.912	24.93
675.1	25.03
675.287	25.07
675.474	25.09
675.662	25.04
675.849	25.13
676.036	25.05
676.223	24.98
676.411	24.93
676.598	25
676.785	25.02
676.972	25.02
677.159	24.96
677.346	24.87
677.533	24.92
677.721	24.9
677.908	24.9
678.095	24.89
678.282	24.88
678.469	24.86
678.656	24.81
678.843	24.75
679.03	24.86
679.217	24.97
679.404	25
679.591	25.02
679.778	25.06
679.964	25.07
680.151	25.16
680.338	25.22
680.525	25.26
680.712	25.29
680.899	25.32
681.086	25.22
681.272	25.11
681.459	25.11
681.646	25.07
681.833	25.12
682.02	25.12
682.206	25.2
682.393	25.18
682.58	25.21
682.766	25.2
682.953	25.32
683.14	25.33
683.326	25.4
683.513	25.54
683.7	25.54
683.886	25.53
684.073	25.51
684.259	25.46
684.446	25.59
684.632	25.56
684.819	25.51
685.005	25.34
685.192	25.32
685.378	25.3
685.565	25.23
685.751	25.25
685.938	25.15
686.124	25.22
686.31	25.1
686.497	24.97
686.683	24.97
686.87	25.02
687.056	25.16
687.242	25.15
687.429	25.14
687.615	25.25
687.801	25.32
687.987	25.43
688.174	25.29
688.36	25.32
688.546	25.49
688.732	25.56
688.918	25.51
689.105	25.56
689.291	25.57
689.477	25.65
689.663	25.58
689.849	25.44
690.035	25.4
690.221	25.53
690.407	25.63
690.593	25.52
690.779	25.37
690.965	25.47
691.151	25.33
691.337	25.33
691.523	25.38
691.709	25.43
691.895	25.58
692.081	25.65
692.267	25.72
692.453	25.7
692.639	25.88
692.825	25.87
693.011	25.75
693.196	25.72
693.382	25.8
693.568	25.62
693.754	25.6
693.94	25.51
694.125	25.55
694.311	25.48
694.497	25.44
694.682	25.27
694.868	25.41
695.054	25.55
695.239	25.58
695.425	25.57
695.611	25.67
695.796	25.55
695.982	25.53
696.168	25.48
696.353	25.4
696.539	25.45
696.724	25.38
696.91	25.35
697.095	25.32
697.281	25.36
697.466	25.34
697.652	25.27
697.837	25.4
698.023	25.32
698.208	25.39
698.393	25.44
698.579	25.48
698.764	25.48
698.949	25.46
699.135	25.4
699.32	25.3
699.505	25.39
699.691	25.43
699.876	25.3
700.061	25.47
700.246	25.38
700.432	25.39
700.617	25.25
700.802	25.27
700.987	25.32
701.172	25.4
701.358	25.43
701.543	25.46
701.728	25.54
701.913	25.58
702.098	25.54
702.283	25.53
702.468	25.45
702.653	25.61
702.838	25.77
703.023	25.75
703.208	25.67
703.393	25.81
703.578	25.69
703.763	25.69
703.948	25.78
704.133	25.86
704.318	26.08
704.503	26.16
704.688	26.2
704.873	26.02
705.057	25.95
705.242	26.05
705.427	26.03
705.612	25.9
705.797	25.98
705.981	25.85
706.166	25.86
706.351	25.54
706.536	25.49
706.72	25.42
706.905	25.52
707.09	25.74
707.274	25.71
707.459	25.79
707.644	25.9
707.828	25.92
708.013	26.03
708.197	26.07
708.382	26.21
708.567	26.22
708.751	26.21
708.936	26.05
709.12	25.95
709.305	25.88
709.489	25.77
709.673	25.9
709.858	25.76
710.042	25.63
710.227	25.57
710.411	25.68
710.596	25.6
710.78	25.53
710.964	25.74
711.149	25.85
711.333	25.98
711.517	25.95
711.702	25.98
711.886	25.95
712.07	26.08
712.254	26.12
712.438	25.94
712.623	26.07
712.807	26.12
712.991	26.03
713.175	25.95
713.359	25.8
713.544	25.91
713.728	25.76
713.912	25.75
714.096	25.72
714.28	25.72
714.464	25.82
714.648	25.67
714.832	25.76
715.016	25.72
715.2	25.71
715.384	25.85
715.568	25.77
715.752	25.81
715.936	25.81
716.12	25.91
716.304	26
716.488	25.93
716.671	26.13
716.855	26.02
717.039	26.23
717.223	26.3
717.407	26.18
717.59	26.23
717.774	26.16
717.958	26.4
718.142	26.41
718.325	26.15
718.509	26.22
718.693	26.24
718.877	26.3
719.06	26.11
719.244	26.03
719.428	26.17
719.611	26.05
719.795	26.15
719.978	26.05
720.162	25.96
720.345	26.08
720.529	26.04
720.713	26.03
720.896	26.2
721.08	26.15
721.263	26.19
721.446	26.18
721.63	26.5
721.813	26.39
721.997	26.24
722.18	26.23
722.364	26.12
722.547	26.2
722.73	26.11
722.914	25.83
723.097	26
723.28	25.93
723.464	26.09
723.647	25.93
723.83	26.08
724.013	26.24
724.197	26.35
724.38	26.51
724.563	26.53
724.746	26.55
724.929	26.85
725.112	26.99
725.296	27.2
725.479	26.92
725.662	26.94
725.845	26.92
726.028	26.85
726.211	26.7
726.394	26.59
726.577	26.41
726.76	26.47
726.943	26.23
727.126	26.1
727.309	26
727.492	26.18
727.675	26.2
727.858	26.14
728.041	26.27
728.224	26.49
728.407	26.34
728.589	26.45
728.772	26.35
728.955	26.51
729.138	26.56
729.321	26.45
729.503	26.57
729.686	26.53
729.869	26.69
730.052	26.6
730.234	26.41
730.417	26.65
730.6	26.76
730.782	26.74
730.965	26.79
731.148	26.72
731.33	26.77
731.513	26.69
731.695	26.61
731.878	26.53
732.061	26.31
732.243	26.44
732.426	26.37
732.608	26.31
732.791	26.53
732.973	26.47
733.156	26.4
733.338	26.36
733.52	26.2
733.703	26.25
733.885	26.56
734.068	26.73
734.25	26.7
734.432	26.74
734.615	26.78
734.797	26.48
734.979	26.29
735.162	26.32
735.344	26.45
735.526	26.67
735.708	26.65
735.891	26.43
736.073	26.55
736.255	26.48
736.437	26.54
736.619	26.52
736.802	26.68
736.984	26.65
737.166	26.67
737.348	26.6
737.53	26.34
737.712	26.56
737.894	26.54
738.076	26.47
738.258	26.6
738.44	26.47
738.622	26.43
738.804	26.39
738.986	26.46
739.168	26.34
739.35	26.44
739.532	26.54
739.714	26.66
739.896	26.46
740.078	26.52
740.259	26.53
740.441	26.64
740.623	26.7
740.805	26.78
740.987	26.62
741.168	26.7
741.35	26.64
741.532	26.73
741.714	26.68
741.895	27.15
742.077	27.23
742.259	26.97
742.44	26.82
742.622	26.84
742.804	26.63
742.985	26.94
743.167	27.03
743.348	27.12
743.53	26.97
743.711	26.86
743.893	26.81
744.075	26.51
744.256	26.69
744.438	26.75
744.619	26.81
744.8	27.11
744.982	27.14
745.163	26.79
745.345	26.68
745.526	26.83
745.707	26.89
745.889	26.34
746.07	26.49
746.252	26.67
746.433	26.76
746.614	26.39
746.795	25.87
746.977	26
747.158	26.45
747.339	26.58
747.52	26.6
747.702	26.29
747.883	26.49
748.064	26.62
748.245	26.32
748.426	26.19
748.607	26.46
748.788	26.77
748.97	26.57
749.151	26.42
749.332	26.32
749.513	26.08
749.694	26.32
749.875	26.34
750.056	26.21
750.237	26.23
750.418	26.39
750.599	26.46
750.78	26.73
750.96	26.71
751.141	26.7
751.322	26.64
751.503	26.94
751.684	26.98
751.865	26.86
752.046	26.84
752.226	27.07
752.407	27.01
752.588	26.93
752.769	26.87
752.949	27
753.13	27.12
753.311	26.9
753.492	26.54
753.672	26.54
753.853	27.05
754.034	27.25
754.214	27
754.395	26.82
754.575	26.92
754.756	26.83
754.937	26.63
755.117	26.75
755.298	27.32
755.478	27.46
755.659	27.43
755.839	27.08
756.02	26.91
756.2	26.79
756.381	26.69
756.561	26.86
756.741	27
756.922	27.18
757.102	27.16
757.283	26.86
757.463	27.01
757.643	27
757.823	27.22
758.004	27.44
758.184	27.8
758.364	28.41
758.545	28.15
758.725	27.99
758.905	27.99
759.085	27.84
759.265	27.92
759.446	27.7
759.626	27.64
759.806	27.36
759.986	27.22
760.166	27.2
760.346	26.8
760.526	26.7
760.706	26.81
760.886	26.68
761.066	26.71
761.246	26.58
761.426	26.83
761.606	26.72
761.786	26.71
761.966	26.53
762.146	26.57
762.326	26.7
762.506	26.73
762.686	26.73
762.866	26.78
763.046	26.63
763.225	26.75
763.405	26.48
763.585	26.31
763.765	26.41
763.945	26.44
764.124	26.36
764.304	26.35
764.484	26.35
764.664	26.3
764.843	26.26
765.023	26.46
765.203	26.32
765.382	26.34
765.562	26.76
765.741	26.69
765.921	26.69
766.101	26.72
766.28	26.74
766.46	26.98
766.639	27.17
766.819	27.3
766.998	27.34
767.178	27.38
767.357	27.65
767.537	27.53
767.716	27.52
767.896	27.61
768.075	27.79
768.254	27.67
768.434	27.68
768.613	27.65
768.792	27.47
768.972	27.66
769.151	27.47
769.33	27.2
769.51	27.55
769.689	27.64
769.868	27.94
770.047	28.08
770.226	28.2
770.406	27.87
770.585	27.57
770.764	27.68
770.943	27.16
771.122	27.2
771.301	27.82
771.48	27.74
771.66	27.8
771.839	27.37
772.018	27.03
772.197	27.22
772.376	27.42
772.555	27.72
772.734	27.77
772.913	28.04
773.092	28.41
773.271	27.98
773.449	27.85
773.628	28.16
773.807	28.57
773.986	28.57
774.165	28.13
774.344	28.28
774.523	28.14
774.701	27.84
774.88	28
775.059	27.77
775.238	28.09
775.417	28.12
775.595	27.85
775.774	27.73
775.953	27.57
776.131	27.71
776.31	27.58
776.489	27.08
776.667	27.46
776.846	26.93
777.025	27.2
777.203	26.7
777.382	26.79
777.56	26.46
777.739	26.79
777.917	27.21
778.096	27.16
778.274	27.22
778.453	27.6
778.631	27.45
778.81	27.68
778.988	27.43
779.166	27.58
779.345	27.29
779.523	27.8
779.702	27.46
779.88	27.28
780.058	27.66
780.237	27.69
780.415	27.98
780.593	27.94
780.771	28.16
780.95	28.47
781.128	28.73
781.306	29.15
781.484	29.04
781.662	29.1
781.841	29.2
782.019	28.99
782.197	29.26
782.375	28.89
782.553	29.29
782.731	29.21
782.909	28.93
783.087	29.34
783.265	29.29
783.443	28.92
783.621	29.08
783.799	29.14
783.977	29.05
784.155	28.81
784.333	29.79
784.511	29.14
784.689	29
784.867	28.84
785.045	28.42
785.223	28.25
785.4	28.39
785.578	27.94
785.756	27.73
785.934	27.87
786.112	27.98
786.289	27.27
786.467	27.72
786.645	27.62
786.823	27.9
787	27.82
787.178	27.83
787.356	27.84
787.533	28.11
787.711	28.13
787.889	28.11
788.066	27.81
788.244	28.16
788.421	28.14
788.599	28.29
788.776	28.41
788.954	28.73
789.131	28.66
789.309	28.79
789.486	29.07
789.664	29.47
789.841	29.02
790.019	28.91
790.196	28.64
790.373	28.54
790.551	28.81
790.728	28.35
790.906	28.53
791.083	28.04
791.26	27.9
791.437	27.61
791.615	27.64
791.792	27.84
791.969	28.33
792.146	27.69
792.324	28.29
792.501	28.45
792.678	28.58
792.855	27.85
793.032	28.32
793.209	28.09
793.387	28.11
793.564	28.34
793.741	28.58
793.918	28.77
794.095	28.95
794.272	28.39
794.449	28.09
794.626	28.67
794.803	29.01
794.98	29.12
795.157	29.71
795.334	29.38
795.511	28.76
795.688	28.8
795.864	28.55
796.041	28.72
796.218	29.15
796.395	29.05
796.572	28.72
796.749	28.19
796.925	27.96
797.102	27.98
797.279	28.26
797.456	28.06
797.632	27.93
797.809	27.98
797.986	28.2
798.162	28.1
798.339	27.87
798.516	28.37
798.692	28.89
798.869	28.46
799.046	27.88
799.222	28.08
799.399	28.14
799.575	27.99
799.752	28.06
799.928	28.25
800.105	27.96
800.281	28.2
800.458	27.99
800.634	28.09
800.811	28.81
800.987	28.94
801.163	28.36
801.34	28.5
801.516	28.76
801.692	28.76
801.869	28.89
802.045	29.61
802.221	29.39
802.398	29.01
802.574	29.27
802.75	29.81
802.926	30.37
803.103	30.99
803.279	30.75
803.455	30.98
803.631	30.8
803.807	31.01
803.983	30.88
804.16	31.36
804.336	31.67
804.512	31.78
804.688	31.06
804.864	30.83
805.04	31.04
805.216	31.51
805.392	31.64
805.568	31.95
805.744	31.87
805.92	31.73
806.096	32.33
806.272	32.97
806.448	33.24
806.623	33.35
806.799	33.24
806.975	33.91
807.151	33.51
807.327	32.85
807.503	32
807.678	31.07
807.854	31.1
808.03	30.4
808.206	29.32
808.381	28.53
808.557	28.67
808.733	28.36
808.908	27.17
809.084	27.62
809.26	28.29
809.435	29.27
809.611	29.72
809.787	29.23
809.962	29.52
810.138	30.43
810.313	30.98
810.489	30.85
810.664	31.18
810.84	31.32
811.015	31.62
811.191	31.42
811.366	31.69
811.542	32.12
811.717	32.24
811.892	33.13
812.068	32.98
812.243	32.74
812.419	32.98
812.594	33.05
812.769	33.39
812.944	33.42
813.12	33.68
813.295	33.01
813.47	32.47
813.645	33.33
813.821	32.68
813.996	33.06
814.171	32.94
814.346	32.8
814.521	33.07
814.697	33.25
814.872	32.79
815.047	32.76
815.222	33.29
815.397	32.83
815.572	31.92
815.747	31.32
815.922	30.82
816.097	31.49
816.272	31.44
816.447	30.97
816.622	31.16
816.797	31.07
816.972	30.76
817.147	29.99
817.322	30.19
817.496	30.02
817.671	30.83
817.846	30.24
818.021	29.75
818.196	29.84
818.371	29.89
818.545	29.2
818.72	29.58
818.895	29.63
819.069	29.58
819.244	29.93
819.419	29.51
819.594	28.78
819.768	28.86
819.943	28.32
820.117	27.96
820.292	27.65
820.467	27.48
820.641	27.08
820.816	27.14
820.99	27.04
821.165	26.79
821.339	26.84
821.514	26.87
821.688	26.76
821.863	26.58
822.037	26.5
822.212	26.48
822.386	26.43
822.56	26.46
822.735	26.41
822.909	26.53
823.084	26.61
823.258	26.7
823.432	26.65
823.606	26.71
823.781	26.95
823.955	27.1
824.129	27.11
824.303	27.28
824.478	27.22
824.652	27.3
824.826	26.99
825	26.83
825.174	26.74
825.348	26.75
825.523	26.63
825.697	26.75
825.871	26.95
826.045	27.19
826.219	27.1
826.393	27.37
826.567	27.2
826.741	27.39
826.915	27.57
827.089	27.62
827.263	27.67
827.437	27.77
827.611	27.83
827.784	27.65
827.958	27.56
828.132	27.83
828.306	27.6
828.48	27.94
828.654	28.03
828.827	28.04
829.001	28.12
829.175	28.61
829.349	29.04
829.522	29.36
829.696	29.61
829.87	30.08
830.044	30.29
830.217	31
830.391	30.9
830.565	30.99
830.738	31.63
830.912	31.73
831.085	30.82
831.259	30.95
831.432	30.92
831.606	30.79
831.779	30.22
831.953	29.67
832.126	29.41
832.3	28.99
832.473	28.85
832.647	28.23
832.82	27.92
832.994	27.88
833.167	27.58
833.34	27.13
833.514	27.28
833.687	27.42
833.86	27.76
834.034	27.66
834.207	27.69
834.38	27.84
834.553	27.92
834.727	28.3
834.9	28.47
835.073	28.67
835.246	28.91
835.419	28.68
835.593	28.45
835.766	27.78
835.939	28.7
836.112	28.23
836.285	28.3
836.458	28.95
836.631	29.29
836.804	30.02
836.977	29.54
837.15	30.29
837.323	30.53
837.496	30.56
837.669	31.44
837.842	30.4
838.015	31.72
838.188	31.52
838.361	30.54
838.533	29.59
838.706	29.55
838.879	30.07
839.052	29.11
839.225	29.21
839.398	29.8
839.57	30.09
839.743	30.48
839.916	30.13
840.088	29.88
840.261	30.55
840.434	30.8
840.607	30.17
840.779	31.22
840.952	32
841.124	31.72
841.297	32.19
841.47	32.77
841.642	32.69
841.815	33.6
841.987	34.6
842.16	34.23
842.332	34.22
842.505	35.75
842.677	35.62
842.85	34.89
843.022	36.22
843.194	36.14
843.367	36.27
843.539	35.58
843.712	35.26
843.884	34.89
844.056	36.4
844.229	37.76
844.401	37.87
844.573	35.37
844.745	37.95
844.918	35.54
845.09	34.79
845.262	33.68
845.434	34.91
845.606	34.58
845.779	35.58
845.951	34.68
846.123	32.23
846.295	31.47
846.467	33.46
846.639	32.64
846.811	33.34
846.983	33.12
847.155	33.81
847.327	33.07
847.499	32.78
847.671	30.88
847.843	30.73
848.015	33.25
848.187	33.79
848.359	32.55
848.531	32.78
848.703	32.7
848.875	33.58
849.047	32.09
849.218	33.74
849.39	35.22
849.562	36.57
849.734	36.95
849.905	37.22
850.077	37.19
850.249	39.27
850.421	37.4
850.592	38.48
850.764	37.3
850.936	38.51
851.107	36.6
851.279	36.54
851.451	36.89
851.622	35.8
851.794	35.49
851.965	34.67
852.137	32.99
852.308	35
852.48	34.53
852.651	38.08
852.823	38.65
852.994	38.78
853.166	39.14
853.337	39.11
853.509	40.36
853.68	38.65
853.851	38.63
854.023	37.3
854.194	36.52
854.365	36.88
854.537	35.3
854.708	34.17
854.879	35.89
855.05	35.73
855.222	36.44
855.393	35.74
855.564	36.78
855.735	37.08
855.906	36.49
856.078	34.82
856.249	35.92
856.42	36.04
856.591	37.74
856.762	36
856.933	35.3
857.104	34.79
857.275	34.49
857.446	34.01
857.617	34.29
857.788	37.26
857.959	40.32
858.13	41.14
858.301	41.32
858.472	38.37
858.643	41.96
858.814	42.83
858.985	43.62
859.155	44.84
859.326	44.24
859.497	45.08
859.668	44.65
859.839	46.46
860.009	47.06
860.18	46.65
860.351	47.77
860.522	45.41
860.692	43.97
860.863	44.5
861.034	44.21
861.204	46.25
861.375	45.18
861.546	45.27
861.716	41.08
861.887	40.93
862.057	41.07
862.228	39.27
862.398	40.19
862.569	41.44
862.739	41.35
862.91	41.44
863.08	41.35
863.251	41.33
863.421	41.93
863.592	41.85
863.762	41.69
863.932	42.06
864.103	43.81
864.273	43.1
864.443	42.22
864.614	40.62
864.784	40.9
864.954	40.91
865.125	40.28
865.295	40.17
865.465	39.6
865.635	38.85
865.805	39.02
865.976	39.38
866.146	38.22
866.316	38.27
866.486	38.42
866.656	38.32
866.826	36.24
866.996	34.28
867.166	33.52
867.336	34.28
867.506	33.49
867.676	33.55
867.846	33.89
868.016	35.36
868.186	35.7
868.356	34.94
868.526	34.61
868.696	35.27
868.866	36.97
869.036	39.21
869.206	39.67
869.376	39.5
869.545	38.97
869.715	41.55
869.885	40.15
870.055	39.92
870.224	41.8
870.394	42.57
870.564	43.65
870.734	43.99
870.903	42.78
871.073	41.52
871.243	41.51
871.412	43.49
871.582	42.41
871.751	42.12
871.921	43.38
872.091	42.06
872.26	42.41
872.43	39.45
872.599	41.6
872.769	40.63
872.938	42.18
873.108	41.97
873.277	38.47
873.446	35.81
873.616	35.33
873.785	35.81
873.955	34.88
874.124	33.69
874.293	35.65
874.463	34.36
874.632	36.73
874.801	35.84
874.971	38.18
875.14	41.56
875.309	41.89
875.478	43.94
875.647	43.36
875.817	44.2
875.986	42.99
876.155	43.66
876.324	44.53
876.493	43.72
876.662	44.43
876.831	41.87
877	40.71
877.17	42.12
877.339	41.67
877.508	39.19
877.677	40.86
877.846	41.67
878.015	42.95
878.184	41.25
878.352	40.66
878.521	40.74
878.69	41.24
878.859	39.93
879.028	38.64
879.197	37.65
879.366	36.28
879.534	34.48
879.703	33.52
879.872	32.41
880.041	32.08
880.21	31.38
880.378	30.09
880.547	29.16
880.716	29.31
880.884	28.86
881.053	28.77
881.222	29.04
881.39	28.74
881.559	28.81
881.727	28.61
881.896	28.12
882.065	28
882.233	28.36
882.402	28.79
882.57	28.59
882.739	28.95
882.907	28.71
883.076	28.96
883.244	28.83
883.412	29.4
883.581	29.57
883.749	30.43
883.918	30.46
884.086	30.68
884.254	30.58
884.423	31.65
884.591	31.84
884.759	32.84
884.927	33.09
885.096	34.06
885.264	34.31
885.432	34.86
885.6	33.87
885.769	33.26
885.937	34.08
886.105	35.48
886.273	36.02
886.441	34.93
886.609	34.68
886.777	34.47
886.945	34.62
887.113	35.48
887.281	35.55
887.449	36.61
887.617	40.36
887.785	38.6
887.953	37.28
888.121	34.91
888.289	35.35
888.457	35.29
888.625	35.06
888.793	35.88
888.961	35
889.129	35.88
889.296	38.09
889.464	36.93
889.632	38.87
889.8	39.28
889.967	40.13
890.135	43.88
