Data from JASIL_2908_Reflection_1.txt Node
Date: Sat Nov 07 20:23:48 EST 2015
User: Geneva
Spectrometer: USB4E03002
Autoset integration time: false
Trigger mode: 4
Integration Time (sec): 1.000000E-1
Scans to average: 10
Electric dark correction enabled: true
Nonlinearity correction enabled: false
Boxcar width: 5
Stray light correction enabled: false
XAxis mode: Wavelengths
Stop averaging: false
Number of Pixels in Spectrum: 3648
>>>>>Begin Spectral Data<<<<<
177.575	160.3
177.794	172.97
178.014	69.34
178.233	69.79
178.452	95.79
178.672	182.75
178.891	-834.88
179.11	253.45
179.33	188.91
179.549	170.94
179.768	167.25
179.987	126.34
180.207	126.49
180.426	79.97
180.645	86.33
180.864	93.85
181.084	107.05
181.303	94.05
181.522	94.05
181.741	107.71
181.96	100.63
182.179	106.6
182.398	127.58
182.618	114.82
182.837	117.88
183.056	115.11
183.275	117.54
183.494	98.42
183.713	90.51
183.932	83.47
184.151	77.14
184.37	82.29
184.589	82.2
184.808	77.31
185.027	79.04
185.246	81.37
185.465	73.77
185.684	72.16
185.903	82.06
186.122	91.52
186.341	93.66
186.56	92.22
186.779	89.67
186.998	89.83
187.216	87.13
187.435	81.88
187.654	86.05
187.873	96.1
188.092	105.2
188.311	93.38
188.53	97.01
188.748	84.21
188.967	79.85
189.186	79.12
189.405	71.54
189.623	69.21
189.842	83.39
190.061	82.58
190.28	78.1
190.498	71.18
190.717	67.46
190.936	62.25
191.154	69.57
191.373	81.05
191.592	80.29
191.81	93.4
192.029	83.83
192.248	76.51
192.466	74.67
192.685	81.25
192.904	86.05
193.122	85.76
193.341	80.39
193.559	78.45
193.778	80.82
193.996	80.18
194.215	76.4
194.433	90.73
194.652	89.26
194.87	94.96
195.089	93.92
195.307	96.1
195.526	104.94
195.744	104.87
195.963	113.16
196.181	103.77
196.399	102.57
196.618	103.02
196.836	107.14
197.055	102
197.273	109.21
197.491	112.16
197.71	104.75
197.928	104.2
198.146	106.01
198.365	101.4
198.583	94.19
198.801	103.87
199.019	95.88
199.238	90.34
199.456	97.88
199.674	93.31
199.892	82.7
200.111	104.23
200.329	99.52
200.547	96.96
200.765	97.09
200.983	101.76
201.202	88.3
201.42	102.79
201.638	94.51
201.856	84.7
202.074	78.33
202.292	80.8
202.51	72.16
202.728	76.24
202.946	79.02
203.165	80.25
203.383	86.55
203.601	85.05
203.819	74.87
204.037	77.83
204.255	88
204.473	76.2
204.691	70.19
204.909	63.87
205.127	60.33
205.345	60.15
205.562	64
205.78	56.34
205.998	56.52
206.216	57.76
206.434	59.8
206.652	58.93
206.87	65.18
207.088	68.45
207.306	69.06
207.523	66.79
207.741	68.76
207.959	68.74
208.177	71.72
208.395	69.6
208.612	65.68
208.83	60.08
209.048	60.57
209.266	56.86
209.483	55.18
209.701	61.27
209.919	64.12
210.136	55.02
210.354	55.99
210.572	57.06
210.79	63.55
211.007	70.49
211.225	66.49
211.442	61.26
211.66	67.1
211.878	68.32
212.095	107.46
212.313	100.33
212.53	107.98
212.748	101.95
212.966	93.67
213.183	88.97
213.401	85.16
213.618	97.93
213.836	100.43
214.053	97.95
214.271	92.87
214.488	54.71
214.705	55.73
214.923	55.87
215.14	54.96
215.358	55.78
215.575	55.56
215.793	54.96
216.01	50.93
216.227	54.89
216.445	58.78
216.662	57.96
216.879	59.55
217.097	59.49
217.314	58.24
217.531	60
217.749	64.31
217.966	66.99
218.183	67.02
218.4	60.64
218.618	56.3
218.835	45.84
219.052	48.64
219.269	49.44
219.487	46.14
219.704	44.3
219.921	37.81
220.138	34.49
220.355	30.69
220.572	32.6
220.79	37.18
221.007	36.43
221.224	38.23
221.441	36.43
221.658	35.13
221.875	38.77
222.092	37.38
222.309	38.9
222.526	39.86
222.743	40.33
222.96	37.4
223.177	35.32
223.394	35.65
223.611	36.32
223.828	34.67
224.045	35.57
224.262	33.9
224.479	32.7
224.696	33.35
224.913	30.68
225.13	29.07
225.347	29.69
225.564	26.59
225.781	24.66
225.997	23.61
226.214	23.69
226.431	20.26
226.648	19.08
226.865	18.27
227.082	17.75
227.298	17.34
227.515	17.7
227.732	17.05
227.949	17.59
228.165	17.35
228.382	16.99
228.599	16.89
228.816	17.37
229.032	17.51
229.249	18.05
229.466	18.67
229.682	19.32
229.899	19.31
230.116	19.99
230.332	19.63
230.549	20.35
230.765	21.55
230.982	20.23
231.199	20.75
231.415	21.25
231.632	21.22
231.848	20.61
232.065	19.92
232.281	19.14
232.498	17.74
232.714	18.5
232.931	19.12
233.147	18.42
233.364	18.86
233.58	18.87
233.797	18.85
234.013	19.13
234.23	18.09
234.446	17.02
234.662	17.29
234.879	17.22
235.095	17.27
235.312	17.05
235.528	17.75
235.744	18.51
235.961	18.91
236.177	17.84
236.393	17.2
236.61	18.38
236.826	20.1
237.042	20.23
237.258	20.12
237.475	20.06
237.691	19.85
237.907	18.04
238.123	17.94
238.339	16.59
238.556	16.95
238.772	17.37
238.988	16.8
239.204	16.14
239.42	16.09
239.636	16.39
239.853	15.72
240.069	15.46
240.285	15.83
240.501	15.17
240.717	15.34
240.933	15.18
241.149	14.47
241.365	14.14
241.581	14.19
241.797	13.84
242.013	13.65
242.229	13.83
242.445	13.4
242.661	13.05
242.877	13.25
243.093	13.06
243.309	12.99
243.525	13.13
243.741	13.38
243.957	12.93
244.173	12.98
244.388	12.63
244.604	12.23
244.82	12.21
245.036	11.95
245.252	11.83
245.468	11.84
245.683	11.93
245.899	11.72
246.115	11.53
246.331	11.37
246.547	11.15
246.762	11.21
246.978	11.3
247.194	11.25
247.409	11.46
247.625	11.6
247.841	11.38
248.057	11.38
248.272	11.42
248.488	11.25
248.703	11.41
248.919	11.84
249.135	11.84
249.35	11.5
249.566	11.6
249.782	11.54
249.997	11.12
250.213	11.22
250.428	10.66
250.644	11.22
250.859	11.48
251.075	11.73
251.29	11.23
251.506	11.34
251.721	11.4
251.937	11.52
252.152	11.2
252.368	11.18
252.583	11.37
252.798	11.59
253.014	11.38
253.229	11.05
253.445	10.29
253.66	10.67
253.875	10.36
254.091	10.15
254.306	9.7
254.521	9.9
254.737	9.96
254.952	9.18
255.167	9.1
255.383	8.56
255.598	8.94
255.813	8.95
256.028	9.32
256.244	9.26
256.459	9.43
256.674	9.1
256.889	8.31
257.104	8.14
257.32	8.61
257.535	8.73
257.75	8.78
257.965	8.88
258.18	8.92
258.395	8.48
258.61	8.33
258.826	8.23
259.041	8.33
259.256	8.62
259.471	8.61
259.686	8.46
259.901	8.31
260.116	8.3
260.331	8
260.546	8.2
260.761	8.31
260.976	8.64
261.191	8.69
261.406	8.73
261.621	8.62
261.836	8.8
262.05	8.66
262.265	8.68
262.48	8.58
262.695	8.45
262.91	8.18
263.125	8.62
263.34	8.5
263.555	9.02
263.769	9.09
263.984	9.35
264.199	9.16
264.414	9.51
264.629	9.63
264.843	9.96
265.058	10.51
265.273	10.03
265.488	9.48
265.702	9.16
265.917	8.92
266.132	8.86
266.346	8.63
266.561	8.83
266.776	8.9
266.99	8.63
267.205	8.7
267.42	8.58
267.634	8.77
267.849	9.07
268.063	9.41
268.278	9.49
268.492	9.36
268.707	9.22
268.922	8.88
269.136	8.78
269.351	8.75
269.565	8.41
269.78	8.32
269.994	8.02
270.209	7.98
270.423	7.91
270.637	7.57
270.852	7.61
271.066	7.73
271.281	7.97
271.495	8.13
271.709	8.26
271.924	8.37
272.138	8.31
272.353	8.82
272.567	8.71
272.781	8.8
272.996	8.95
273.21	8.9
273.424	8.9
273.638	8.82
273.853	8.6
274.067	8.65
274.281	8.65
274.495	8.86
274.71	8.62
274.924	8.66
275.138	8.51
275.352	8.38
275.566	8.62
275.781	8.76
275.995	8.73
276.209	8.89
276.423	8.68
276.637	8.45
276.851	8.13
277.065	8.04
277.279	8
277.493	7.99
277.707	8.38
277.921	8.26
278.135	7.74
278.349	7.61
278.563	7.2
278.777	7.24
278.991	7.52
279.205	7.77
279.419	7.69
279.633	7.8
279.847	7.72
280.061	7.45
280.275	7.25
280.489	7.57
280.703	7.71
280.917	7.82
281.131	7.87
281.344	7.82
281.558	7.51
281.772	7.6
281.986	7.43
282.2	7.48
282.414	7.49
282.627	7.5
282.841	7.55
283.055	7.65
283.269	7.64
283.482	7.65
283.696	7.46
283.91	7.55
284.123	7.52
284.337	7.64
284.551	7.35
284.764	7.64
284.978	7.63
285.192	7.52
285.405	7.31
285.619	7.27
285.833	7.44
286.046	7.45
286.26	7.57
286.473	7.36
286.687	7.24
286.9	7.49
287.114	7.33
287.327	7.44
287.541	7.41
287.754	7.48
287.968	7.58
288.181	7.48
288.395	7.6
288.608	7.55
288.822	7.66
289.035	7.55
289.248	7.38
289.462	7.41
289.675	7.34
289.889	7.46
290.102	7.41
290.315	7.36
290.529	7.3
290.742	7.22
290.955	7.34
291.169	7.41
291.382	7.51
291.595	7.78
291.808	7.67
292.022	7.58
292.235	7.69
292.448	7.77
292.661	7.85
292.875	7.52
293.088	7.51
293.301	7.39
293.514	7.4
293.727	7.27
293.94	7.24
294.153	6.98
294.367	7
294.58	6.74
294.793	6.73
295.006	6.7
295.219	7.06
295.432	6.96
295.645	6.95
295.858	6.91
296.071	6.98
296.284	6.82
296.497	6.98
296.71	6.93
296.923	7.21
297.136	7.12
297.349	7.3
297.562	7.14
297.775	7.19
297.988	7.29
298.201	7.38
298.414	7.48
298.626	7.57
298.839	7.52
299.052	7.68
299.265	7.62
299.478	7.54
299.691	7.38
299.903	7.37
300.116	7.57
300.329	7.34
300.542	7.32
300.755	7.43
300.967	7.42
301.18	7.42
301.393	7.46
301.605	7.22
301.818	7.5
302.031	7.73
302.243	7.82
302.456	7.84
302.669	7.95
302.881	8.04
303.094	7.87
303.307	7.7
303.519	7.71
303.732	7.66
303.944	7.8
304.157	7.86
304.37	7.54
304.582	7.54
304.795	7.37
305.007	7.56
305.22	7.62
305.432	7.6
305.645	7.76
305.857	7.77
306.069	7.51
306.282	7.48
306.494	7.31
306.707	7.58
306.919	7.5
307.132	7.55
307.344	7.37
307.556	7.32
307.769	7.49
307.981	7.6
308.193	7.57
308.406	7.78
308.618	7.69
308.83	7.58
309.043	7.49
309.255	7.59
309.467	7.56
309.679	7.74
309.892	7.68
310.104	7.46
310.316	7.44
310.528	7.55
310.74	7.53
310.953	7.66
311.165	7.72
311.377	7.58
311.589	7.6
311.801	7.75
312.013	7.66
312.225	7.84
312.437	8.09
312.649	8.17
312.862	7.99
313.074	7.87
313.286	7.86
313.498	7.92
313.71	8.09
313.922	8.13
314.134	7.96
314.346	7.96
314.558	7.87
314.77	7.98
314.982	8.13
315.193	8.15
315.405	8.48
315.617	8.32
315.829	8.31
316.041	8.35
316.253	8.24
316.465	8.26
316.677	8.24
316.888	8.19
317.1	8.1
317.312	7.91
317.524	8.14
317.736	8.2
317.947	8.57
318.159	8.85
318.371	8.67
318.583	8.78
318.794	8.83
319.006	8.76
319.218	8.85
319.43	8.67
319.641	8.89
319.853	8.95
320.064	8.87
320.276	8.65
320.488	8.49
320.699	8.57
320.911	8.53
321.123	8.81
321.334	8.83
321.546	8.89
321.757	8.99
321.969	8.76
322.18	8.76
322.392	8.75
322.603	8.62
322.815	8.73
323.026	8.59
323.238	8.41
323.449	8.2
323.661	8.29
323.872	8.22
324.083	8.2
324.295	8.4
324.506	8.35
324.718	8.34
324.929	8.51
325.14	8.66
325.352	8.89
325.563	9.31
325.774	9.35
325.986	9.41
326.197	9.45
326.408	9.78
326.62	9.61
326.831	9.67
327.042	9.75
327.253	9.79
327.464	9.72
327.676	9.8
327.887	9.63
328.098	9.78
328.309	9.76
328.52	9.84
328.732	9.68
328.943	9.94
329.154	9.93
329.365	10.27
329.576	10.27
329.787	10.14
329.998	10.24
330.209	10.31
330.42	10.3
330.631	10.3
330.842	10.34
331.053	10.38
331.264	10.25
331.475	10.35
331.686	10.09
331.897	10.22
332.108	10.37
332.319	10.11
332.53	10.07
332.741	10.02
332.952	10.2
333.163	10.13
333.374	10.27
333.585	10.31
333.795	10.39
334.006	10.56
334.217	10.48
334.428	10.49
334.639	10.75
334.849	10.78
335.06	10.82
335.271	10.6
335.482	10.72
335.692	10.61
335.903	10.55
336.114	10.58
336.325	10.43
336.535	10.48
336.746	10.58
336.957	10.48
337.167	10.43
337.378	10.47
337.589	10.53
337.799	10.44
338.01	10.4
338.22	10.49
338.431	10.24
338.642	10.39
338.852	10.34
339.063	10.09
339.273	10.04
339.484	9.88
339.694	9.98
339.905	10
340.115	10.02
340.326	10.06
340.536	9.87
340.746	10.06
340.957	9.95
341.167	9.99
341.378	10.16
341.588	10.2
341.799	10.26
342.009	10.1
342.219	10.11
342.43	10.09
342.64	10.05
342.85	10.03
343.061	9.85
343.271	9.94
343.481	9.89
343.691	9.66
343.902	9.56
344.112	9.62
344.322	9.7
344.532	9.77
344.743	9.71
344.953	9.59
345.163	9.58
345.373	9.6
345.583	9.52
345.793	9.38
346.004	9.55
346.214	9.62
346.424	9.58
346.634	9.53
346.844	9.54
347.054	9.64
347.264	9.85
347.474	10.1
347.684	10.16
347.894	10.11
348.104	10.15
348.314	10.1
348.524	10
348.734	10
348.944	9.99
349.154	9.87
349.364	9.73
349.574	9.57
349.784	9.46
349.994	9.44
350.204	9.29
350.413	9.25
350.623	9.25
350.833	9.25
351.043	9.11
351.253	8.99
351.463	8.99
351.672	9.03
351.882	8.99
352.092	8.89
352.302	8.9
352.511	9.09
352.721	9.15
352.931	9.03
353.141	9.13
353.35	9.25
353.56	9.25
353.77	9.2
353.979	9.2
354.189	9.17
354.399	9.09
354.608	8.91
354.818	8.76
355.027	8.75
355.237	8.8
355.447	8.66
355.656	8.61
355.866	8.59
356.075	8.52
356.285	8.56
356.494	8.49
356.704	8.56
356.913	8.61
357.123	8.63
357.332	8.55
357.542	8.55
357.751	8.51
357.96	8.62
358.17	8.49
358.379	8.6
358.589	8.51
358.798	8.54
359.007	8.52
359.217	8.52
359.426	8.52
359.635	8.55
359.845	8.54
360.054	8.6
360.263	8.49
360.472	8.6
360.682	8.5
360.891	8.44
361.1	8.48
361.309	8.41
361.519	8.35
361.728	8.34
361.937	8.41
362.146	8.41
362.355	8.31
362.564	8.26
362.774	8.24
362.983	8.22
363.192	8.36
363.401	8.41
363.61	8.49
363.819	8.52
364.028	8.45
364.237	8.24
364.446	8.16
364.655	8.22
364.864	8.25
365.073	8.23
365.282	8.24
365.491	8.07
365.7	8.01
365.909	8.05
366.118	8.04
366.327	8.02
366.536	8.15
366.745	8.22
366.954	8.3
367.162	8.33
367.371	8.3
367.58	8.34
367.789	8.38
367.998	8.38
368.207	8.3
368.415	8.4
368.624	8.47
368.833	8.37
369.042	8.42
369.25	8.41
369.459	8.42
369.668	8.34
369.877	8.24
370.085	8.15
370.294	8.12
370.503	8.09
370.711	8.02
370.92	7.93
371.129	7.99
371.337	7.84
371.546	7.69
371.754	7.71
371.963	7.79
372.171	7.82
372.38	7.88
372.589	7.86
372.797	7.83
373.006	7.76
373.214	7.84
373.423	7.75
373.631	7.75
373.84	7.78
374.048	7.72
374.256	7.57
374.465	7.64
374.673	7.62
374.882	7.58
375.09	7.66
375.298	7.68
375.507	7.51
375.715	7.46
375.923	7.37
376.132	7.43
376.34	7.4
376.548	7.47
376.757	7.45
376.965	7.44
377.173	7.45
377.381	7.47
377.59	7.51
377.798	7.65
378.006	7.66
378.214	7.7
378.423	7.67
378.631	7.66
378.839	7.65
379.047	7.56
379.255	7.48
379.463	7.44
379.671	7.23
379.879	7.18
380.088	7.24
380.296	7.19
380.504	7.24
380.712	7.18
380.92	7.2
381.128	7.27
381.336	7.16
381.544	7.18
381.752	7.22
381.96	7.28
382.168	7.21
382.376	7.13
382.584	7.24
382.791	7.23
382.999	7.31
383.207	7.35
383.415	7.42
383.623	7.44
383.831	7.49
384.039	7.44
384.247	7.46
384.454	7.55
384.662	7.51
384.87	7.53
385.078	7.53
385.285	7.36
385.493	7.3
385.701	7.14
385.909	7.15
386.116	7.15
386.324	7.07
386.532	7.03
386.739	6.96
386.947	6.92
387.155	6.86
387.362	6.87
387.57	7
387.778	6.95
387.985	7.01
388.193	7.07
388.4	7.15
388.608	7.24
388.816	7.18
389.023	7.07
389.231	7.12
389.438	7.14
389.646	6.96
389.853	6.86
390.061	6.84
390.268	6.84
390.475	6.81
390.683	6.75
390.89	6.73
391.098	6.79
391.305	6.87
391.512	6.85
391.72	6.79
391.927	6.92
392.135	6.96
392.342	6.92
392.549	6.9
392.756	6.88
392.964	6.76
393.171	6.78
393.378	6.79
393.586	6.69
393.793	6.6
394	6.61
394.207	6.6
394.414	6.59
394.622	6.66
394.829	6.61
395.036	6.64
395.243	6.67
395.45	6.61
395.657	6.6
395.864	6.75
396.072	6.85
396.279	6.86
396.486	6.78
396.693	6.78
396.9	6.75
397.107	6.76
397.314	6.73
397.521	6.7
397.728	6.73
397.935	6.77
398.142	6.6
398.349	6.53
398.556	6.46
398.763	6.49
398.97	6.46
399.177	6.46
399.383	6.43
399.59	6.36
399.797	6.37
400.004	6.32
400.211	6.37
400.418	6.4
400.625	6.41
400.831	6.45
401.038	6.45
401.245	6.49
401.452	6.49
401.658	6.45
401.865	6.42
402.072	6.33
402.279	6.37
402.485	6.16
402.692	6.14
402.899	6.12
403.105	6.08
403.312	6.05
403.519	6.03
403.725	5.99
403.932	6.05
404.138	6.08
404.345	6.11
404.552	6.02
404.758	6.1
404.965	6.16
405.171	6.14
405.378	6.12
405.584	6.16
405.791	6.04
405.997	6.03
406.204	6
406.41	6.03
406.617	6.09
406.823	6.17
407.029	6.21
407.236	6.18
407.442	6.25
407.649	6.34
407.855	6.28
408.061	6.43
408.268	6.48
408.474	6.38
408.68	6.32
408.887	6.35
409.093	6.3
409.299	6.25
409.505	6.26
409.712	6.15
409.918	6.07
410.124	6.06
410.33	5.97
410.537	5.89
410.743	5.95
410.949	5.96
411.155	5.94
411.361	5.95
411.567	5.96
411.773	5.93
411.98	5.99
412.186	6.03
412.392	6.1
412.598	6.08
412.804	6.05
413.01	6.04
413.216	6.03
413.422	6.08
413.628	6.07
413.834	6.01
414.04	6
414.246	5.96
414.452	5.88
414.658	5.86
414.864	5.83
415.07	5.85
415.275	5.9
415.481	5.86
415.687	5.79
415.893	5.75
416.099	5.79
416.305	5.7
416.511	5.7
416.716	5.68
416.922	5.6
417.128	5.61
417.334	5.59
417.539	5.57
417.745	5.53
417.951	5.49
418.157	5.51
418.362	5.44
418.568	5.49
418.774	5.45
418.979	5.46
419.185	5.49
419.391	5.49
419.596	5.51
419.802	5.46
420.008	5.47
420.213	5.56
420.419	5.53
420.624	5.52
420.83	5.52
421.035	5.56
421.241	5.54
421.446	5.49
421.652	5.46
421.857	5.45
422.063	5.41
422.268	5.36
422.474	5.24
422.679	5.23
422.885	5.25
423.09	5.18
423.295	5.15
423.501	5.17
423.706	5.17
423.911	5.16
424.117	5.12
424.322	5.2
424.527	5.26
424.733	5.25
424.938	5.27
425.143	5.28
425.349	5.32
425.554	5.35
425.759	5.31
425.964	5.35
426.169	5.37
426.375	5.37
426.58	5.32
426.785	5.3
426.99	5.35
427.195	5.31
427.4	5.29
427.605	5.31
427.811	5.31
428.016	5.36
428.221	5.35
428.426	5.37
428.631	5.36
428.836	5.37
429.041	5.42
429.246	5.4
429.451	5.46
429.656	5.53
429.861	5.46
430.066	5.44
430.271	5.43
430.476	5.39
430.681	5.37
430.886	5.4
431.09	5.41
431.295	5.35
431.5	5.31
431.705	5.22
431.91	5.17
432.115	5.2
432.32	5.16
432.524	5.12
432.729	5.12
432.934	5.11
433.139	5.13
433.343	5.11
433.548	5.16
433.753	5.21
433.958	5.27
434.162	5.27
434.367	5.25
434.572	5.26
434.776	5.29
434.981	5.26
435.186	5.33
435.39	5.28
435.595	5.28
435.799	5.19
436.004	5.19
436.209	5.11
436.413	5.1
436.618	5.1
436.822	5.11
437.027	5.12
437.231	5.14
437.436	5.08
437.64	5.1
437.845	5.11
438.049	5.16
438.253	5.11
438.458	5.15
438.662	5.16
438.867	5.14
439.071	5.17
439.275	5.12
439.48	5.14
439.684	5.11
439.888	5.1
440.093	5.1
440.297	5.05
440.501	5.08
440.706	5.06
440.91	5.06
441.114	5.1
441.318	5.08
441.523	5.12
441.727	5.07
441.931	5.11
442.135	5.12
442.339	5.1
442.543	5.16
442.748	5.13
442.952	5.12
443.156	5.11
443.36	5.08
443.564	5.09
443.768	5
443.972	5.04
444.176	5.03
444.38	5.01
444.584	4.98
444.788	4.95
444.992	4.92
445.196	4.93
445.4	4.87
445.604	4.84
445.808	4.8
446.012	4.82
446.216	4.79
446.42	4.8
446.624	4.81
446.828	4.83
447.032	4.85
447.235	4.89
447.439	4.88
447.643	4.95
447.847	5.01
448.051	5.05
448.254	5.08
448.458	5.16
448.662	5.14
448.866	5.11
449.069	5.04
449.273	5.08
449.477	5.06
449.681	5.06
449.884	5.02
450.088	4.97
450.292	4.9
450.495	4.85
450.699	4.84
450.902	4.84
451.106	4.82
451.31	4.92
451.513	4.84
451.717	4.81
451.92	4.85
452.124	4.87
452.327	4.89
452.531	4.94
452.734	4.98
452.938	4.94
453.141	4.99
453.345	5.03
453.548	4.98
453.752	5
453.955	5.05
454.158	5.02
454.362	4.97
454.565	4.99
454.769	4.99
454.972	5
455.175	4.99
455.379	4.92
455.582	4.9
455.785	4.88
455.988	4.84
456.192	4.81
456.395	4.77
456.598	4.82
456.801	4.78
457.005	4.75
457.208	4.73
457.411	4.71
457.614	4.68
457.817	4.67
458.021	4.66
458.224	4.68
458.427	4.68
458.63	4.67
458.833	4.68
459.036	4.63
459.239	4.66
459.442	4.65
459.645	4.66
459.848	4.72
460.051	4.75
460.254	4.81
460.457	4.79
460.66	4.83
460.863	4.87
461.066	4.82
461.269	4.91
461.472	4.93
461.675	4.94
461.878	4.94
462.081	4.94
462.284	4.91
462.486	4.86
462.689	4.92
462.892	4.89
463.095	4.86
463.298	4.9
463.5	4.85
463.703	4.79
463.906	4.82
464.109	4.89
464.311	4.85
464.514	4.92
464.717	4.95
464.92	4.93
465.122	4.92
465.325	4.98
465.528	4.97
465.73	4.98
465.933	5.01
466.135	4.92
466.338	4.87
466.541	4.88
466.743	4.8
466.946	4.78
467.148	4.81
467.351	4.86
467.553	4.8
467.756	4.8
467.958	4.8
468.161	4.76
468.363	4.8
468.566	4.79
468.768	4.78
468.971	4.87
469.173	4.87
469.375	4.84
469.578	4.72
469.78	4.7
469.983	4.73
470.185	4.76
470.387	4.78
470.59	4.83
470.792	4.87
470.994	4.88
471.196	4.82
471.399	4.82
471.601	4.81
471.803	4.87
472.005	4.89
472.208	4.91
472.41	4.9
472.612	4.87
472.814	4.87
473.016	4.89
473.218	4.92
473.421	4.91
473.623	4.92
473.825	4.94
474.027	4.95
474.229	4.95
474.431	4.91
474.633	4.9
474.835	4.96
475.037	4.92
475.239	4.85
475.441	4.81
475.643	4.9
475.845	4.85
476.047	4.84
476.249	4.86
476.451	4.84
476.653	4.81
476.855	4.8
477.057	4.75
477.258	4.74
477.46	4.77
477.662	4.79
477.864	4.73
478.066	4.73
478.268	4.75
478.469	4.73
478.671	4.72
478.873	4.74
479.075	4.73
479.276	4.73
479.478	4.77
479.68	4.71
479.882	4.7
480.083	4.68
480.285	4.68
480.487	4.65
480.688	4.64
480.89	4.65
481.091	4.62
481.293	4.64
481.495	4.63
481.696	4.61
481.898	4.6
482.099	4.55
482.301	4.52
482.502	4.48
482.704	4.45
482.905	4.44
483.107	4.42
483.308	4.42
483.51	4.4
483.711	4.39
483.913	4.4
484.114	4.4
484.315	4.43
484.517	4.45
484.718	4.47
484.92	4.49
485.121	4.51
485.322	4.49
485.524	4.51
485.725	4.48
485.926	4.5
486.127	4.46
486.329	4.46
486.53	4.44
486.731	4.42
486.932	4.43
487.134	4.43
487.335	4.42
487.536	4.44
487.737	4.43
487.938	4.47
488.139	4.47
488.341	4.5
488.542	4.51
488.743	4.52
488.944	4.56
489.145	4.55
489.346	4.57
489.547	4.6
489.748	4.59
489.949	4.6
490.15	4.59
490.351	4.56
490.552	4.57
490.753	4.56
490.954	4.54
491.155	4.51
491.356	4.52
491.557	4.51
491.758	4.51
491.959	4.53
492.159	4.54
492.36	4.55
492.561	4.58
492.762	4.6
492.963	4.6
493.164	4.67
493.364	4.7
493.565	4.74
493.766	4.78
493.967	4.79
494.167	4.83
494.368	4.83
494.569	4.8
494.769	4.81
494.97	4.82
495.171	4.84
495.371	4.81
495.572	4.81
495.773	4.8
495.973	4.78
496.174	4.76
496.375	4.74
496.575	4.74
496.776	4.76
496.976	4.78
497.177	4.75
497.377	4.78
497.578	4.79
497.778	4.81
497.979	4.8
498.179	4.83
498.38	4.87
498.58	4.88
498.78	4.91
498.981	4.94
499.181	4.98
499.382	5.02
499.582	5
499.782	5.03
499.983	5.08
500.183	5.13
500.383	5.15
500.584	5.2
500.784	5.21
500.984	5.25
501.184	5.23
501.385	5.19
501.585	5.21
501.785	5.22
501.985	5.25
502.185	5.25
502.386	5.24
502.586	5.24
502.786	5.22
502.986	5.24
503.186	5.28
503.386	5.33
503.586	5.39
503.786	5.39
503.987	5.44
504.187	5.47
504.387	5.44
504.587	5.46
504.787	5.47
504.987	5.49
505.187	5.52
505.387	5.51
505.587	5.53
505.786	5.52
505.986	5.56
506.186	5.54
506.386	5.53
506.586	5.55
506.786	5.56
506.986	5.57
507.186	5.56
507.386	5.56
507.585	5.54
507.785	5.53
507.985	5.53
508.185	5.53
508.384	5.55
508.584	5.55
508.784	5.57
508.984	5.6
509.183	5.64
509.383	5.67
509.583	5.66
509.782	5.7
509.982	5.73
510.182	5.75
510.381	5.76
510.581	5.8
510.781	5.85
510.98	5.9
511.18	5.92
511.379	5.91
511.579	5.98
511.778	6.01
511.978	6.06
512.177	6.1
512.377	6.16
512.576	6.22
512.776	6.26
512.975	6.31
513.175	6.3
513.374	6.37
513.573	6.44
513.773	6.46
513.972	6.5
514.172	6.55
514.371	6.61
514.57	6.67
514.77	6.71
514.969	6.74
515.168	6.74
515.367	6.8
515.567	6.79
515.766	6.79
515.965	6.82
516.164	6.83
516.364	6.83
516.563	6.82
516.762	6.8
516.961	6.84
517.16	6.85
517.359	6.87
517.559	6.87
517.758	6.91
517.957	6.92
518.156	6.94
518.355	6.97
518.554	7.01
518.753	7.04
518.952	7.06
519.151	7.08
519.35	7.14
519.549	7.19
519.748	7.24
519.947	7.27
520.146	7.34
520.345	7.35
520.544	7.41
520.743	7.45
520.942	7.49
521.141	7.55
521.339	7.6
521.538	7.64
521.737	7.65
521.936	7.66
522.135	7.71
522.333	7.74
522.532	7.78
522.731	7.78
522.93	7.8
523.129	7.85
523.327	7.9
523.526	7.91
523.725	7.91
523.923	7.96
524.122	8
524.321	8.01
524.519	8.04
524.718	8.12
524.917	8.16
525.115	8.19
525.314	8.21
525.512	8.22
525.711	8.25
525.909	8.32
526.108	8.34
526.306	8.37
526.505	8.41
526.703	8.43
526.902	8.43
527.1	8.45
527.299	8.47
527.497	8.48
527.696	8.49
527.894	8.51
528.092	8.5
528.291	8.56
528.489	8.57
528.688	8.61
528.886	8.65
529.084	8.69
529.283	8.74
529.481	8.79
529.679	8.86
529.877	8.93
530.076	9
530.274	9.08
530.472	9.12
530.67	9.19
530.869	9.22
531.067	9.27
531.265	9.29
531.463	9.32
531.661	9.33
531.859	9.36
532.057	9.38
532.255	9.38
532.454	9.38
532.652	9.41
532.85	9.42
533.048	9.47
533.246	9.51
533.444	9.55
533.642	9.59
533.84	9.63
534.038	9.69
534.236	9.73
534.434	9.79
534.632	9.85
534.83	9.89
535.027	9.94
535.225	9.95
535.423	10.01
535.621	10.07
535.819	10.1
536.017	10.13
536.215	10.11
536.412	10.14
536.61	10.17
536.808	10.21
537.006	10.24
537.203	10.26
537.401	10.33
537.599	10.36
537.797	10.35
537.994	10.41
538.192	10.43
538.39	10.53
538.587	10.56
538.785	10.59
538.983	10.61
539.18	10.66
539.378	10.67
539.575	10.69
539.773	10.68
539.97	10.69
540.168	10.71
540.366	10.73
540.563	10.75
540.761	10.78
540.958	10.79
541.155	10.79
541.353	10.81
541.55	10.87
541.748	10.9
541.945	10.93
542.143	10.97
542.34	11.02
542.537	11.06
542.735	11.1
542.932	11.14
543.129	11.2
543.327	11.27
543.524	11.34
543.721	11.35
543.919	11.37
544.116	11.44
544.313	11.5
544.51	11.48
544.708	11.53
544.905	11.57
545.102	11.63
545.299	11.68
545.496	11.69
545.693	11.7
545.891	11.76
546.088	11.8
546.285	11.83
546.482	11.84
546.679	11.89
546.876	11.92
547.073	11.98
547.27	11.99
547.467	12.02
547.664	12.09
547.861	12.11
548.058	12.15
548.255	12.22
548.452	12.25
548.649	12.35
548.846	12.44
549.043	12.51
549.24	12.49
549.437	12.52
549.633	12.49
549.83	12.52
550.027	12.58
550.224	12.58
550.421	12.58
550.618	12.56
550.814	12.5
551.011	12.51
551.208	12.53
551.405	12.55
551.601	12.56
551.798	12.65
551.995	12.63
552.191	12.64
552.388	12.62
552.585	12.66
552.781	12.67
552.978	12.78
553.175	12.84
553.371	12.88
553.568	12.94
553.764	13.02
553.961	13.06
554.157	13.13
554.354	13.17
554.55	13.27
554.747	13.3
554.943	13.42
555.14	13.44
555.336	13.45
555.533	13.49
555.729	13.53
555.926	13.54
556.122	13.57
556.318	13.58
556.515	13.61
556.711	13.6
556.907	13.59
557.104	13.62
557.3	13.6
557.496	13.6
557.693	13.58
557.889	13.57
558.085	13.57
558.281	13.65
558.478	13.72
558.674	13.73
558.87	13.81
559.066	13.82
559.262	13.78
559.459	13.81
559.655	13.83
559.851	13.84
560.047	13.92
560.243	13.92
560.439	13.89
560.635	13.87
560.831	13.93
561.027	13.93
561.223	13.96
561.419	13.97
561.615	14.02
561.811	14.09
562.007	14.13
562.203	14.12
562.399	14.15
562.595	14.16
562.791	14.2
562.987	14.16
563.183	14.18
563.379	14.18
563.575	14.24
563.771	14.24
563.966	14.21
564.162	14.26
564.358	14.29
564.554	14.27
564.75	14.23
564.945	14.25
565.141	14.31
565.337	14.29
565.533	14.33
565.728	14.3
565.924	14.27
566.12	14.25
566.315	14.24
566.511	14.21
566.707	14.25
566.902	14.31
567.098	14.33
567.293	14.33
567.489	14.38
567.684	14.44
567.88	14.49
568.076	14.57
568.271	14.65
568.467	14.66
568.662	14.69
568.858	14.76
569.053	14.76
569.248	14.74
569.444	14.75
569.639	14.73
569.835	14.71
570.03	14.78
570.225	14.76
570.421	14.78
570.616	14.82
570.812	14.84
571.007	14.8
571.202	14.8
571.397	14.81
571.593	14.81
571.788	14.84
571.983	14.83
572.178	14.78
572.374	14.86
572.569	14.84
572.764	14.83
572.959	14.81
573.154	14.81
573.35	14.84
573.545	14.89
573.74	14.93
573.935	14.95
574.13	14.97
574.325	14.95
574.52	14.95
574.715	14.94
574.91	14.94
575.105	15.03
575.3	15.08
575.495	15.1
575.69	15.08
575.885	15.15
576.08	15.21
576.275	15.23
576.47	15.29
576.665	15.28
576.86	15.3
577.055	15.29
577.25	15.19
577.444	15.19
577.639	15.26
577.834	15.23
578.029	15.23
578.224	15.15
578.418	15.21
578.613	15.19
578.808	15.15
579.003	15.17
579.197	15.23
579.392	15.29
579.587	15.33
579.781	15.28
579.976	15.39
580.171	15.36
580.365	15.39
580.56	15.39
580.755	15.41
580.949	15.46
581.144	15.46
581.338	15.45
581.533	15.52
581.727	15.5
581.922	15.47
582.116	15.44
582.311	15.42
582.505	15.39
582.7	15.38
582.894	15.42
583.089	15.41
583.283	15.45
583.478	15.46
583.672	15.46
583.866	15.47
584.061	15.53
584.255	15.48
584.449	15.55
584.644	15.59
584.838	15.66
585.032	15.65
585.226	15.65
585.421	15.67
585.615	15.65
585.809	15.65
586.003	15.7
586.198	15.72
586.392	15.81
586.586	15.82
586.78	15.81
586.974	15.8
587.168	15.81
587.363	15.83
587.557	15.79
587.751	15.79
587.945	15.77
588.139	15.84
588.333	15.85
588.527	15.86
588.721	15.9
588.915	15.96
589.109	15.9
589.303	15.95
589.497	15.94
589.691	15.98
589.885	16.02
590.079	16.04
590.273	15.99
590.466	15.97
590.66	15.95
590.854	15.88
591.048	15.87
591.242	15.87
591.436	15.82
591.629	15.82
591.823	15.81
592.017	15.85
592.211	15.81
592.404	15.77
592.598	15.75
592.792	15.72
592.986	15.72
593.179	15.71
593.373	15.72
593.567	15.7
593.76	15.78
593.954	15.85
594.147	15.85
594.341	15.83
594.535	15.87
594.728	15.86
594.922	15.9
595.115	15.92
595.309	15.87
595.502	15.92
595.696	15.97
595.889	15.98
596.083	15.91
596.276	15.85
596.47	15.89
596.663	15.89
596.856	15.91
597.05	15.9
597.243	15.89
597.437	15.99
597.63	15.99
597.823	16.01
598.017	15.94
598.21	15.99
598.403	16.01
598.596	16.04
598.79	16.09
598.983	16.11
599.176	16.15
599.369	16.17
599.563	16.14
599.756	16.15
599.949	16.19
600.142	16.15
600.335	16.09
600.528	16.22
600.722	16.31
600.915	16.32
601.108	16.28
601.301	16.26
601.494	16.26
601.687	16.23
601.88	16.22
602.073	16.11
602.266	16.14
602.459	16.19
602.652	16.11
602.845	16.1
603.038	16.01
603.231	16.06
603.424	16
603.617	16
603.809	16
604.002	15.98
604.195	16.06
604.388	16.1
604.581	16.12
604.774	16.1
604.966	16.02
605.159	16.06
605.352	16
605.545	16.13
605.737	16.13
605.93	16.18
606.123	16.23
606.316	16.26
606.508	16.29
606.701	16.35
606.894	16.42
607.086	16.5
607.279	16.56
607.471	16.55
607.664	16.47
607.857	16.52
608.049	16.55
608.242	16.57
608.434	16.54
608.627	16.53
608.819	16.53
609.012	16.5
609.204	16.56
609.397	16.6
609.589	16.7
609.782	16.82
609.974	16.83
610.166	16.88
610.359	16.92
610.551	16.94
610.743	16.96
610.936	17.03
611.128	17.05
611.32	17.05
611.513	17.03
611.705	16.97
611.897	16.92
612.09	16.92
612.282	16.84
612.474	16.85
612.666	16.87
612.858	16.86
613.051	16.77
613.243	16.78
613.435	16.76
613.627	16.77
613.819	16.81
614.011	17
614.203	17
614.395	17.01
614.588	16.99
614.78	17.04
614.972	17.06
615.164	17.07
615.356	17.03
615.548	17.04
615.74	17.07
615.932	16.94
616.124	16.76
616.315	16.78
616.507	16.8
616.699	16.79
616.891	16.67
617.083	16.71
617.275	16.73
617.467	16.76
617.659	16.79
617.85	16.74
618.042	16.87
618.234	16.85
618.426	16.88
618.618	16.92
618.809	16.88
619.001	16.92
619.193	16.95
619.384	16.96
619.576	16.97
619.768	16.87
619.959	16.9
620.151	16.92
620.343	17.05
620.534	17.04
620.726	17
620.917	17.01
621.109	17.04
621.301	17.01
621.492	17.01
621.684	17.1
621.875	17.13
622.067	17.07
622.258	17.07
622.45	17.02
622.641	17
622.832	17.05
623.024	17.03
623.215	17.06
623.407	16.98
623.598	16.95
623.789	16.85
623.981	16.85
624.172	16.9
624.363	16.91
624.555	16.88
624.746	16.84
624.937	16.81
625.129	16.83
625.32	16.79
625.511	16.86
625.702	16.84
625.893	16.88
626.085	16.92
626.276	16.92
626.467	16.85
626.658	16.88
626.849	16.91
627.04	16.95
627.231	16.98
627.422	16.91
627.614	16.84
627.805	16.88
627.996	16.9
628.187	16.89
628.378	16.83
628.569	16.88
628.76	16.97
628.951	17.01
629.142	16.96
629.332	16.97
629.523	17.11
629.714	17.17
629.905	17.24
630.096	17.13
630.287	17.17
630.478	17.27
630.669	17.32
630.859	17.16
631.05	17.07
631.241	17.11
631.432	17.11
631.623	17.07
631.813	17.11
632.004	17.01
632.195	17.07
632.385	17.07
632.576	17.09
632.767	17.06
632.957	17.12
633.148	17.22
633.339	17.23
633.529	17.21
633.72	17.18
633.91	17.11
634.101	17.08
634.292	17.07
634.482	17.08
634.673	17.04
634.863	17.03
635.054	17.03
635.244	16.94
635.435	16.91
635.625	16.81
635.815	16.77
636.006	16.76
636.196	16.88
636.387	16.89
636.577	16.94
636.767	16.97
636.958	17.07
637.148	17.07
637.338	17.12
637.529	17.09
637.719	17.26
637.909	17.37
638.099	17.45
638.29	17.41
638.48	17.52
638.67	17.42
638.86	17.43
639.05	17.36
639.241	17.35
639.431	17.33
639.621	17.31
639.811	17.27
640.001	17.31
640.191	17.23
640.381	17.23
640.571	17.08
640.761	17.07
640.951	17.04
641.141	17.06
641.331	17.08
641.521	17.15
641.711	17.26
641.901	17.21
642.091	17.14
642.281	17.15
642.471	17.16
642.661	17.26
642.851	17.39
643.041	17.4
643.231	17.32
643.42	17.34
643.61	17.39
643.8	17.35
643.99	17.36
644.18	17.29
644.369	17.35
644.559	17.39
644.749	17.43
644.939	17.28
645.128	17.28
645.318	17.31
645.508	17.24
645.697	17.23
645.887	17.24
646.076	17.32
646.266	17.39
646.456	17.44
646.645	17.45
646.835	17.39
647.024	17.37
647.214	17.37
647.403	17.38
647.593	17.38
647.782	17.36
647.972	17.42
648.161	17.41
648.351	17.49
648.54	17.43
648.73	17.27
648.919	17.28
649.108	17.27
649.298	17.3
649.487	17.4
649.677	17.37
649.866	17.33
650.055	17.28
650.244	17.18
650.434	17.16
650.623	17.15
650.812	17.27
651.002	17.24
651.191	17.35
651.38	17.35
651.569	17.29
651.758	17.3
651.947	17.38
652.137	17.37
652.326	17.44
652.515	17.41
652.704	17.5
652.893	17.47
653.082	17.57
653.271	17.62
653.46	17.64
653.649	17.69
653.838	17.73
654.027	17.66
654.216	17.67
654.405	17.68
654.594	17.67
654.783	17.6
654.972	17.58
655.161	17.61
655.35	17.54
655.539	17.51
655.728	17.46
655.916	17.46
656.105	17.48
656.294	17.58
656.483	17.61
656.672	17.62
656.86	17.53
657.049	17.62
657.238	17.59
657.427	17.57
657.615	17.53
657.804	17.47
657.993	17.42
658.181	17.39
658.37	17.41
658.559	17.42
658.747	17.45
658.936	17.58
659.125	17.58
659.313	17.53
659.502	17.48
659.69	17.52
659.879	17.58
660.067	17.71
660.256	17.66
660.444	17.59
660.633	17.57
660.821	17.57
661.01	17.57
661.198	17.6
661.387	17.68
661.575	17.79
661.763	17.83
661.952	17.83
662.14	17.71
662.328	17.76
662.517	17.73
662.705	17.7
662.893	17.71
663.082	17.76
663.27	17.72
663.458	17.71
663.646	17.7
663.834	17.77
664.023	17.82
664.211	17.93
664.399	17.97
664.587	18.01
664.775	17.84
664.963	17.84
665.152	17.81
665.34	17.82
665.528	17.81
665.716	17.81
665.904	17.71
666.092	17.73
666.28	17.61
666.468	17.61
666.656	17.51
666.844	17.72
667.032	17.7
667.22	17.69
667.408	17.66
667.596	17.76
667.784	17.7
667.971	17.68
668.159	17.7
668.347	17.81
668.535	17.78
668.723	17.81
668.911	17.73
669.098	17.75
669.286	17.81
669.474	17.76
669.662	17.65
669.849	17.74
670.037	17.76
670.225	17.73
670.413	17.74
670.6	17.81
670.788	17.81
670.976	17.88
671.163	17.8
671.351	17.71
671.538	17.69
671.726	17.8
671.913	17.69
672.101	17.79
672.289	17.74
672.476	17.68
672.664	17.57
672.851	17.57
673.039	17.65
673.226	17.72
673.413	17.62
673.601	17.67
673.788	17.53
673.976	17.66
674.163	17.57
674.35	17.64
674.538	17.58
674.725	17.73
674.912	17.74
675.1	17.73
675.287	17.75
675.474	17.79
675.662	17.87
675.849	17.93
676.036	17.84
676.223	17.89
676.411	17.75
676.598	17.88
676.785	17.85
676.972	17.93
677.159	17.85
677.346	17.83
677.533	17.89
677.721	17.87
677.908	17.88
678.095	17.89
678.282	17.87
678.469	17.99
678.656	18
678.843	17.98
679.03	18.09
679.217	18.15
679.404	18.11
679.591	18.09
679.778	18.1
679.964	18.11
680.151	18.28
680.338	18.26
680.525	18.24
680.712	18.2
680.899	18.21
681.086	18.08
681.272	18.09
681.459	18.11
681.646	18.16
681.833	18.13
682.02	18.07
682.206	17.95
682.393	17.92
682.58	17.92
682.766	18.03
682.953	18.06
683.14	18.14
683.326	18.15
683.513	18.25
683.7	18.31
683.886	18.27
684.073	18.25
684.259	18.27
684.446	18.37
684.632	18.42
684.819	18.31
685.005	18.23
685.192	18.22
685.378	18.22
685.565	18.19
685.751	17.97
685.938	17.93
686.124	18.15
686.31	18.19
686.497	18.07
686.683	18.07
686.87	18.1
687.056	18.19
687.242	18.17
687.429	18.14
687.615	18.01
687.801	18.22
687.987	18.38
688.174	18.3
688.36	18.25
688.546	18.35
688.732	18.33
688.918	18.14
689.105	18.27
689.291	18.2
689.477	18.31
689.663	18.54
689.849	18.49
690.035	18.46
690.221	18.55
690.407	18.6
690.593	18.55
690.779	18.51
690.965	18.71
691.151	18.59
691.337	18.72
691.523	18.76
691.709	18.69
691.895	18.72
692.081	18.74
692.267	18.58
692.453	18.46
692.639	18.52
692.825	18.47
693.011	18.45
693.196	18.48
693.382	18.36
693.568	18.2
693.754	18.28
693.94	18.23
694.125	18.12
694.311	18.08
694.497	18.13
694.682	18.11
694.868	18.23
695.054	18.3
695.239	18.23
695.425	18.27
695.611	18.29
695.796	18.11
695.982	18.14
696.168	18.17
696.353	18.25
696.539	18.33
696.724	18.24
696.91	18.27
697.095	18.25
697.281	18.24
697.466	18.25
697.652	18.31
697.837	18.37
698.023	18.36
698.208	18.4
698.393	18.42
698.579	18.32
698.764	18.28
698.949	18.21
699.135	18.2
699.32	18.18
699.505	18.15
699.691	18.08
699.876	18
700.061	18.07
700.246	18.01
700.432	17.9
700.617	17.9
700.802	18.11
700.987	18.24
701.172	18.02
701.358	17.98
701.543	18.14
701.728	18.1
701.913	18.27
702.098	18.28
702.283	18.35
702.468	18.31
702.653	18.51
702.838	18.54
703.023	18.44
703.208	18.65
703.393	18.71
703.578	18.67
703.763	18.74
703.948	18.69
704.133	18.66
704.318	18.66
704.503	18.86
704.688	18.88
704.873	18.59
705.057	18.63
705.242	18.55
705.427	18.49
705.612	18.41
705.797	18.7
705.981	18.7
706.166	18.78
706.351	18.67
706.536	18.61
706.72	18.62
706.905	18.77
707.09	18.72
707.274	18.93
707.459	19.13
707.644	19.24
707.828	18.93
708.013	18.89
708.197	18.92
708.382	19.17
708.567	19.19
708.751	19.12
708.936	18.94
709.12	19.03
709.305	18.88
709.489	18.68
709.673	18.7
709.858	18.8
710.042	18.92
710.227	18.89
710.411	18.87
710.596	18.82
710.78	18.96
710.964	19.03
711.149	19.01
711.333	19.07
711.517	19.12
711.702	19.06
711.886	18.97
712.07	18.8
712.254	18.82
712.438	18.65
712.623	18.65
712.807	18.5
712.991	18.67
713.175	18.76
713.359	18.85
713.544	18.81
713.728	18.76
713.912	18.95
714.096	19.04
714.28	19.03
714.464	19.07
714.648	19.19
714.832	19.23
715.016	19.23
715.2	19.01
715.384	18.95
715.568	18.97
715.752	18.94
715.936	18.83
716.12	18.82
716.304	18.74
716.488	18.71
716.671	18.75
716.855	18.8
717.039	18.83
717.223	18.97
717.407	18.97
717.59	19.02
717.774	19.08
717.958	19.08
718.142	19.05
718.325	19.01
718.509	19.11
718.693	19.05
718.877	18.84
719.06	18.66
719.244	18.56
719.428	18.61
719.611	18.78
719.795	18.83
719.978	18.74
720.162	18.7
720.345	18.75
720.529	18.94
720.713	18.97
720.896	18.99
721.08	19.09
721.263	19.2
721.446	19.31
721.63	19.22
721.813	19.08
721.997	19.14
722.18	19.18
722.364	19.22
722.547	18.98
722.73	18.81
722.914	18.89
723.097	19.03
723.28	19.03
723.464	18.99
723.647	18.98
723.83	19.17
724.013	19.21
724.197	19.46
724.38	19.6
724.563	19.84
724.746	19.97
724.929	20.14
725.112	20.05
725.296	20.12
725.479	19.86
725.662	19.95
725.845	20.07
726.028	19.92
726.211	19.65
726.394	19.55
726.577	19.18
726.76	19
726.943	18.88
727.126	18.76
727.309	18.67
727.492	19
727.675	18.85
727.858	18.58
728.041	18.93
728.224	19.03
728.407	18.9
728.589	19.1
728.772	19.2
728.955	19.23
729.138	19.33
729.321	19.25
729.503	19.25
729.686	19.46
729.869	19.56
730.052	19.4
730.234	19.36
730.417	19.34
730.6	19.32
730.782	19.38
730.965	19.37
731.148	19.44
731.33	19.6
731.513	19.49
731.695	19.25
731.878	19.27
732.061	19.16
732.243	19.23
732.426	19.26
732.608	19.3
732.791	19.33
732.973	19.24
733.156	19.23
733.338	19.1
733.52	19.1
733.703	19.26
733.885	19.22
734.068	19.31
734.25	19.5
734.432	19.45
734.615	19.22
734.797	19.1
734.979	19.02
735.162	18.98
735.344	19.2
735.526	19.28
735.708	19.11
735.891	19.01
736.073	18.89
736.255	18.6
736.437	18.6
736.619	18.71
736.802	19.03
736.984	19.23
737.166	19.31
737.348	19.2
737.53	19.1
737.712	19.14
737.894	19.26
738.076	19.64
738.258	19.8
738.44	20.15
738.622	20.35
738.804	20.12
738.986	20.2
739.168	20.04
739.35	20.07
739.532	20.22
739.714	20.49
739.896	20.59
740.078	20.5
740.259	20.38
740.441	20.43
740.623	20.26
740.805	20.55
740.987	20.46
741.168	20.16
741.35	20.01
741.532	19.97
741.714	19.94
741.895	20
742.077	19.92
742.259	19.81
742.44	19.43
742.622	19.6
742.804	19.1
742.985	18.96
743.167	19.13
743.348	19.33
743.53	19.23
743.711	19.14
743.893	19.06
744.075	18.89
744.256	19.18
744.438	19.22
744.619	19.26
744.8	19.51
744.982	19.73
745.163	19.72
745.345	19.75
745.526	19.92
745.707	19.98
745.889	19.76
746.07	19.95
746.252	20.1
746.433	20.35
746.614	20.03
746.795	19.57
746.977	19.64
747.158	20.27
747.339	20.38
747.52	20.35
747.702	20.17
747.883	20.39
748.064	20.44
748.245	20.11
748.426	19.86
748.607	20.17
748.788	20.6
748.97	20.5
749.151	19.99
749.332	19.76
749.513	19.73
749.694	19.98
749.875	20.09
750.056	19.99
750.237	20.06
750.418	20.11
750.599	20
750.78	20.1
750.96	20.09
751.141	20.33
751.322	20.41
751.503	20.31
751.684	20.17
751.865	19.99
752.046	19.74
752.226	19.64
752.407	19.92
752.588	20.14
752.769	20.27
752.949	20.07
753.13	20.2
753.311	20.44
753.492	20.46
753.672	20.68
753.853	21.05
754.034	21.2
754.214	21.27
754.395	20.87
754.575	20.67
754.756	20.52
754.937	20.74
755.117	20.71
755.298	20.56
755.478	20.29
755.659	20.03
755.839	19.78
756.02	20.02
756.2	20.09
756.381	19.98
756.561	19.88
756.741	19.86
756.922	19.86
757.102	19.86
757.283	19.83
757.463	20.24
757.643	20.26
757.823	19.92
758.004	19.73
758.184	19.85
758.364	20.27
758.545	20.31
758.725	20.38
758.905	20.09
759.085	20.04
759.265	20.09
759.446	19.9
759.626	19.96
759.806	20.08
759.986	20.25
760.166	19.98
760.346	19.99
760.526	19.99
760.706	20.06
760.886	20.17
761.066	19.82
761.246	19.57
761.426	19.75
761.606	19.44
761.786	19.27
761.966	19.25
762.146	19.38
762.326	19.32
762.506	19.37
762.686	19.28
762.866	19.51
763.046	19.55
763.225	19.63
763.405	19.5
763.585	19.71
763.765	19.93
763.945	19.83
764.124	19.75
764.304	19.71
764.484	19.6
764.664	19.47
764.843	19.35
765.023	19.4
765.203	19.45
765.382	19.38
765.562	19.33
765.741	19.19
765.921	19.25
766.101	19.37
766.28	19.64
766.46	19.92
766.639	20.21
766.819	20.33
766.998	20.63
767.178	20.29
767.357	20.53
767.537	20.49
767.716	20.76
767.896	20.79
768.075	20.82
768.254	20.46
768.434	20.37
768.613	20.51
768.792	20.32
768.972	20.53
769.151	20.94
769.33	20.59
769.51	21.11
769.689	21.2
769.868	21.33
770.047	21.58
770.226	21.65
770.406	21.82
770.585	21.67
770.764	21.67
770.943	21.55
771.122	21.07
771.301	21.78
771.48	21.3
771.66	21.32
771.839	21.17
772.018	20.74
772.197	20.75
772.376	20.74
772.555	20.79
772.734	20.66
772.913	20.38
773.092	20.74
773.271	20.22
773.449	20.37
773.628	20.81
773.807	20.61
773.986	20.47
774.165	20.26
774.344	20.12
774.523	19.65
774.701	19.67
774.88	19.86
775.059	19.8
775.238	20.26
775.417	20.34
775.595	19.87
775.774	19.76
775.953	20.13
776.131	20.3
776.31	19.93
776.489	19.78
776.667	19.95
776.846	19.47
777.025	19.27
777.203	18.77
777.382	18.61
777.56	18.03
777.739	18.53
777.917	18.43
778.096	18.29
778.274	18.96
778.453	19.69
778.631	19.99
778.81	19.86
778.988	20.14
779.166	20.22
779.345	20.28
779.523	20.93
779.702	21.06
779.88	21.4
780.058	22.03
780.237	21.63
780.415	21.32
780.593	20.84
780.771	21.69
780.95	22.32
781.128	22.57
781.306	22.47
781.484	22.48
781.662	21.6
781.841	21.41
782.019	20.82
782.197	21.09
782.375	21.12
782.553	21.3
782.731	21.15
782.909	20.61
783.087	20.93
783.265	21.57
783.443	20.99
783.621	21.94
783.799	22.05
783.977	22.31
784.155	22.23
784.333	22.3
784.511	22.15
784.689	21.93
784.867	22.26
785.045	21.88
785.223	21.11
785.4	21.2
785.578	20.81
785.756	20.25
785.934	20.3
786.112	20.78
786.289	20.67
786.467	20.84
786.645	20.37
786.823	20.13
787	20.18
787.178	20.13
787.356	20.51
787.533	20.79
787.711	20.93
787.889	20.73
788.066	20.35
788.244	20.61
788.421	20.99
788.599	21.27
788.776	21.28
788.954	21.17
789.131	21.58
789.309	21.42
789.486	21.24
789.664	21.47
789.841	21.64
790.019	21.53
790.196	21.08
790.373	20.03
790.551	20.42
790.728	20.31
790.906	21.03
791.083	21.08
791.26	21.37
791.437	21.48
791.615	21.72
791.792	21.85
791.969	21.49
792.146	21.36
792.324	22.43
792.501	22.49
792.678	22.36
792.855	21.37
793.032	21
793.209	20.51
793.387	20.54
793.564	20.77
793.741	20.65
793.918	21.34
794.095	21.84
794.272	21.16
794.449	20.72
794.626	20.94
794.803	21.49
794.98	21.86
795.157	21.91
795.334	21.59
795.511	21.38
795.688	21.31
795.864	20.82
796.041	20.83
796.218	21.27
796.395	21.34
796.572	21.55
796.749	21.29
796.925	20.83
797.102	21.11
797.279	21.48
797.456	21.05
797.632	21.29
797.809	21.86
797.986	21.96
798.162	21.73
798.339	22.23
798.516	22.54
798.692	22.64
798.869	22.8
799.046	22.76
799.222	23.14
799.399	23.49
799.575	23.52
799.752	23.62
799.928	23.65
800.105	24.04
800.281	23.39
800.458	23.02
800.634	22.94
800.811	23.21
800.987	23.12
801.163	22.92
801.34	23.07
801.516	23.13
801.692	22.89
801.869	23.22
802.045	23.06
802.221	22.75
802.398	22.61
802.574	22.73
802.75	22.81
802.926	23.17
803.103	22.88
803.279	22.47
803.455	22.4
803.631	22.32
803.807	21.9
803.983	22.28
804.16	23.13
804.336	23.4
804.512	22.64
804.688	22.72
804.864	22.51
805.04	22.38
805.216	22.72
805.392	23.01
805.568	22.5
805.744	22.41
805.92	22.74
806.096	22.85
806.272	22.77
806.448	24.31
806.623	23.63
806.799	23.54
806.975	23.77
807.151	23.82
807.327	22.77
807.503	23.11
807.678	23.38
807.854	23.23
808.03	23.04
808.206	22.96
808.381	22.14
808.557	22.31
808.733	22.03
808.908	21.61
809.084	21.34
809.26	22.02
809.435	22.33
809.611	22.17
809.787	21.3
809.962	21.83
810.138	21.56
810.313	21.86
810.489	21.53
810.664	21.85
810.84	21.61
811.015	22.02
811.191	21.86
811.366	22.53
811.542	23.19
811.717	23.5
811.892	24.16
812.068	24.13
812.243	23.86
812.419	24.36
812.594	24.42
812.769	24.93
812.944	24.63
813.12	24.91
813.295	23.91
813.47	22.64
813.645	23.18
813.821	22.31
813.996	22.92
814.171	22.83
814.346	23.36
814.521	23.17
814.697	23.66
814.872	23.67
815.047	23.52
815.222	24.55
815.397	24.63
815.572	24.45
815.747	24.2
815.922	23.97
816.097	24.48
816.272	24.37
816.447	24.11
816.622	24.05
816.797	23.9
816.972	23.81
817.147	23.15
817.322	23.4
817.496	23.28
817.671	23.78
817.846	23.79
818.021	23.36
818.196	22.97
818.371	23.17
818.545	22.67
818.72	23.02
818.895	23.32
819.069	22.4
819.244	22.74
819.419	22.61
819.594	22.1
819.768	21.82
819.943	21.75
820.117	21.58
820.292	21.4
820.467	21.46
820.641	21.27
820.816	21.12
820.99	21.3
821.165	20.98
821.339	20.91
821.514	21
821.688	20.94
821.863	20.79
822.037	20.6
822.212	20.56
822.386	20.52
822.56	20.54
822.735	20.57
822.909	20.48
823.084	20.53
823.258	20.41
823.432	20.24
823.606	20.35
823.781	20.55
823.955	20.8
824.129	20.89
824.303	20.89
824.478	20.75
824.652	20.57
824.826	20.44
825	20.49
825.174	20.71
825.348	20.6
825.523	20.4
825.697	20.38
825.871	20.49
826.045	20.75
826.219	20.81
826.393	20.76
826.567	20.76
826.741	21.15
826.915	20.9
827.089	21.02
827.263	21.16
827.437	21.04
827.611	21.04
827.784	20.95
827.958	20.88
828.132	20.7
828.306	21.01
828.48	21.3
828.654	21.43
828.827	22.01
829.001	21.92
829.175	21.89
829.349	22.79
829.522	22.55
829.696	23.28
829.87	23.84
830.044	24.62
830.217	24.54
830.391	24.68
830.565	24.07
830.738	24.17
830.912	23.8
831.085	24.07
831.259	23.69
831.432	24.06
831.606	23.38
831.779	22.4
831.953	21.8
832.126	22
832.3	21.72
832.473	21.93
832.647	21.71
832.82	21.74
832.994	21.59
833.167	21.55
833.34	21.43
833.514	21.41
833.687	21.53
833.86	21.74
834.034	21.48
834.207	21.27
834.38	21.3
834.553	21.86
834.727	22.11
834.9	22.18
835.073	22.35
835.246	22.61
835.419	22.83
835.593	22.74
835.766	22.96
835.939	23.54
836.112	23.88
836.285	23.83
836.458	23.42
836.631	23.39
836.804	24.31
836.977	23.66
837.15	23.19
837.323	23.14
837.496	23.48
837.669	22.39
837.842	22.44
838.015	22.37
838.188	22.09
838.361	21.61
838.533	21.21
838.706	21.53
838.879	22.2
839.052	22.59
839.225	23.08
839.398	23.31
839.57	24.39
839.743	24.11
839.916	24.56
840.088	24.85
840.261	25.39
840.434	26.21
840.607	25.21
840.779	25.68
840.952	25.26
841.124	24.51
841.297	25.41
841.47	25.29
841.642	25.3
841.815	25.4
841.987	25.78
842.16	25.19
842.332	24.55
842.505	25.76
842.677	25.57
842.85	25.77
843.022	27.1
843.194	27
843.367	27.45
843.539	26.96
843.712	27.65
843.884	27.75
844.056	29.7
844.229	31.01
844.401	30.06
844.573	30.39
844.745	32.24
844.918	30.67
845.09	30.19
845.262	28.63
845.434	29.57
845.606	29.62
845.779	30.33
845.951	29.31
846.123	28.4
846.295	27.53
846.467	27.06
846.639	25.99
846.811	26.99
846.983	25.96
847.155	28.63
847.327	28.94
847.499	28.97
847.671	27.85
847.843	26.99
848.015	26.42
848.187	27.53
848.359	27.3
848.531	28.22
848.703	27.55
848.875	28.15
849.047	26.01
849.218	27.35
849.39	25.2
849.562	25.85
849.734	25.44
849.905	26.67
850.077	26.19
850.249	26.35
850.421	25.15
850.592	24.68
850.764	25.15
850.936	26.72
851.107	23.72
851.279	24.9
851.451	26.72
851.622	28.24
851.794	26.95
851.965	28.24
852.137	28.53
852.308	28.91
852.48	30.14
852.651	29.97
852.823	30.1
852.994	31.16
853.166	34.23
853.337	34.22
853.509	33.16
853.68	34.68
853.851	33.59
854.023	31.49
854.194	31.55
854.365	31.2
854.537	30.55
854.708	28.15
854.879	28.98
855.05	27.36
855.222	27.39
855.393	28.09
855.564	27.28
855.735	25.73
855.906	28.02
856.078	28
856.249	29.79
856.42	29.81
856.591	32.48
856.762	31.66
856.933	31.34
857.104	31.04
857.275	31.76
857.446	31.44
857.617	32.46
857.788	30.87
857.959	32.18
858.13	31.55
858.301	32.89
858.472	30.73
858.643	33.05
858.814	32.57
858.985	32.81
859.155	31.37
859.326	32.44
859.497	34.06
859.668	34.76
859.839	36.43
860.009	36.06
860.18	34.54
860.351	34.53
860.522	33.11
860.692	32.36
860.863	31.71
861.034	32.35
861.204	32.51
861.375	33.28
861.546	34.3
861.716	31.89
861.887	34.43
862.057	35.85
862.228	36.08
862.398	33.92
862.569	34.49
862.739	35.02
862.91	35.11
863.08	35.15
863.251	34.43
863.421	33.39
863.592	33.69
863.762	31.14
863.932	29.85
864.103	30.74
864.273	31.96
864.443	31.68
864.614	30.76
864.784	31.11
864.954	30.86
865.125	32.09
865.295	33.8
865.465	32.43
865.635	31.96
865.805	33.61
865.976	32.76
866.146	35.65
866.316	37.14
866.486	35.12
866.656	34.54
866.826	33.65
866.996	32.37
867.166	31.8
867.336	32.61
867.506	31.84
867.676	32.51
867.846	32.69
868.016	30.99
868.186	28.69
868.356	31.58
868.526	30.81
868.696	34.02
868.866	33.88
869.036	31.37
869.206	30.32
869.376	30.9
869.545	29.05
869.715	28.81
869.885	29.12
870.055	30.94
870.224	30.58
870.394	33.04
870.564	32.25
870.734	31.89
870.903	34.5
871.073	34.12
871.243	35.78
871.412	36.92
871.582	37.17
871.751	37.63
871.921	38.02
872.091	36.24
872.26	34.84
872.43	31.42
872.599	32.09
872.769	31.92
872.938	35.67
873.108	34.45
873.277	32.67
873.446	32.69
873.616	29.86
873.785	30.73
873.955	32.3
874.124	33.38
874.293	34.77
874.463	35.49
874.632	34.63
874.801	32.84
874.971	33.9
875.14	34.35
875.309	33.33
875.478	33.76
875.647	30.57
875.817	29.36
875.986	27.27
876.155	27.69
876.324	27.1
876.493	29.43
876.662	29.58
876.831	27.49
877	28.32
877.17	29.99
877.339	30.77
877.508	33.9
877.677	34.63
877.846	33.91
878.015	35.45
878.184	34.93
878.352	32.38
878.521	31.87
878.69	33.75
878.859	32.87
879.028	31.23
879.197	31.53
879.366	28.43
879.534	27.13
879.703	26.67
879.872	25.16
880.041	25.25
880.21	24.45
880.378	23.25
880.547	22.3
880.716	21.86
880.884	21.87
881.053	21.28
881.222	21.68
881.39	21.92
881.559	22.34
881.727	22.66
881.896	22.7
882.065	22.86
882.233	23.17
882.402	23.59
882.57	23.77
882.739	23.53
882.907	23.9
883.076	23.78
883.244	23.6
883.412	23.59
883.581	23.3
883.749	23.25
883.918	23.28
884.086	23.7
884.254	23.43
884.423	24.35
884.591	25.43
884.759	25.48
884.927	25.93
885.096	26.59
885.264	26.81
885.432	27.82
885.6	27.15
885.769	26.88
885.937	27.53
886.105	27.56
886.273	26.94
886.441	26
886.609	26.26
886.777	26.09
886.945	26.84
887.113	27.61
887.281	25.96
887.449	27.05
887.617	29.32
887.785	28.33
887.953	28.75
888.121	27.73
888.289	27.14
888.457	27.02
888.625	27.6
888.793	27.42
888.961	26.44
889.129	28.87
889.296	30.99
889.464	30.21
889.632	30.65
889.8	30.74
889.967	31.81
890.135	36.06
