Data from JASIL_3025_Reflection_02.txt Node
Date: Mon Nov 09 10:52:39 EST 2015
User: Geneva
Spectrometer: USB4E03002
Autoset integration time: false
Trigger mode: 4
Integration Time (sec): 1.000000E-1
Scans to average: 10
Electric dark correction enabled: false
Nonlinearity correction enabled: false
Boxcar width: 5
Stray light correction enabled: false
XAxis mode: Wavelengths
Stop averaging: false
Number of Pixels in Spectrum: 3648
>>>>>Begin Spectral Data<<<<<
177.575	-3.05
177.794	-45.49
178.014	-19.73
178.233	-54.37
178.452	-123.19
178.672	-473.68
178.891	-1252.17
179.11	792.68
179.33	3436.36
179.549	312.18
179.768	255.82
179.987	740.28
180.207	-828.33
180.426	-785.07
180.645	-123.88
180.864	-39.57
181.084	-67.94
181.303	-39.58
181.522	-30.39
181.741	-24.27
181.96	-53.62
182.179	53.73
182.398	-21.3
182.618	-38.02
182.837	-113.59
183.056	-537.89
183.275	434.07
183.494	-511.11
183.713	-1437.5
183.932	-679.79
184.151	-2206.06
184.37	-333.51
184.589	-5522.22
184.808	408.59
185.027	297.73
185.246	188.69
185.465	110.78
185.684	312.14
185.903	150
186.122	185.34
186.341	184.48
186.56	212.29
186.779	683.67
186.998	-191.21
187.216	-58.4
187.435	-201.04
187.654	-98.27
187.873	-70.31
188.092	-42.48
188.311	-8.27
188.53	-37.18
188.748	-58.92
188.967	-222.45
189.186	482.8
189.405	271.35
189.623	431.78
189.842	588.89
190.061	-10080
190.28	-303.19
190.498	-303.81
190.717	-136.19
190.936	-122.99
191.154	-2.55
191.373	26.63
191.592	63.64
191.81	14.41
192.029	-58.73
192.248	-19.48
192.466	-11.06
192.685	-50.74
192.904	-695.65
193.122	246.38
193.341	-1820
193.559	1691.67
193.778	123.86
193.996	169.64
194.215	-60.64
194.433	-36.7
194.652	-21.52
194.87	33.96
195.089	61.77
195.307	120
195.526	219.75
195.744	210.24
195.963	315.44
196.181	-1317.02
196.399	-442.77
196.618	-490.51
196.836	-245.66
197.055	-261.21
197.273	-264.56
197.491	-316.5
197.71	-224.91
197.928	-164.63
198.146	-176.73
198.365	-217.84
198.583	-5300
198.801	210.62
199.019	232.05
199.238	174.35
199.456	291.43
199.674	390.23
199.892	434.26
200.111	444
200.329	491.07
200.547	-2708.33
200.765	427.27
200.983	-150.33
201.202	-198.21
201.42	-63.84
201.638	8.29
201.856	-2.96
202.074	36.36
202.292	6.35
202.51	-170.83
202.728	-4075
202.946	153.03
203.165	-773.68
203.383	534.62
203.601	959.09
203.819	-352.33
204.037	-362.5
204.255	-213
204.473	-182.71
204.691	-403.92
204.909	1523.81
205.127	-1142.42
205.345	-739.22
205.562	757.41
205.78	-518
205.998	-244.93
206.216	-102.83
206.434	-116.85
206.652	928.57
206.87	522.03
207.088	218.18
207.306	126.11
207.523	99.24
207.741	157.14
207.959	95.5
208.177	51.99
208.395	121.17
208.612	107.24
208.83	133.94
209.048	147.99
209.266	141.91
209.483	116.39
209.701	-855.17
209.919	13600
210.136	460
210.354	3325
210.572	-1114.89
210.79	-1347.22
211.007	502.92
211.225	322.81
211.442	1286.84
211.66	-366.39
211.878	-450
212.095	-773.58
212.313	-11033.33
212.53	-322.13
212.748	-114.69
212.966	-824.39
213.183	-13250
213.401	10.62
213.618	23.95
213.836	38.65
214.053	94.37
214.271	-12.08
214.488	54.33
214.705	-36.03
214.923	32.82
215.14	-47.24
215.358	0
215.575	2.84
215.793	-172.73
216.01	-1058.33
216.227	-698.15
216.445	248.82
216.662	486.73
216.879	256.98
217.097	301.88
217.314	636.29
217.531	1220.69
217.749	-290.7
217.966	-390.77
218.183	-112.08
218.4	-82.22
218.618	-94.48
218.835	-60.07
219.052	-47.89
219.269	-100.88
219.487	-81.72
219.704	-80.11
219.921	-106.9
220.138	-183.33
220.355	-208.63
220.572	-15166.67
220.79	566.67
221.007	396.32
221.224	582.29
221.441	330.2
221.658	-88.15
221.875	-59.33
222.092	-9.8
222.309	15.17
222.526	9.95
222.743	-27.41
222.96	-66.18
223.177	-39.63
223.394	-32.91
223.611	-47.36
223.828	-56.97
224.045	-65.22
224.262	-67.83
224.479	-73.28
224.696	-61.02
224.913	-57.01
225.13	-31.08
225.347	-11.5
225.564	-27.94
225.781	-25.71
225.997	-5.59
226.214	-4.64
226.431	5.4
226.648	1.66
226.865	-2
227.082	-3.32
227.298	1.14
227.515	-3.66
227.732	-2.89
227.949	2.5
228.165	3.49
228.382	-1.13
228.599	3.89
228.816	-6.44
229.032	-9.72
229.249	-19.24
229.466	-27.46
229.682	-39.58
229.899	-37.13
230.116	-40.8
230.332	-45.16
230.549	-57.41
230.765	-60.39
230.982	-62.85
231.199	-46.55
231.415	-35.4
231.632	-31.72
231.848	-19.33
232.065	-2.59
232.281	-16.45
232.498	-26.52
232.714	-24.55
232.931	-12.09
233.147	-20.27
233.364	-31.68
233.58	-52.92
233.797	-63.47
234.013	-57.92
234.23	-64.77
234.446	-62.79
234.662	-50.52
234.879	-45.54
235.095	-36.18
235.312	-40.92
235.528	-44.88
235.744	-32.19
235.961	-26.5
236.177	-35.88
236.393	-30.74
236.61	-36.7
236.826	-40.14
237.042	-35.97
237.258	-26.56
237.475	-31.54
237.691	-33.88
237.907	-29.62
238.123	-32.42
238.339	-29.12
238.556	-13.11
238.772	-11.54
238.988	-13.85
239.204	-11.45
239.42	-7.29
239.636	-14.73
239.853	-13.58
240.069	-12.66
240.285	-14.15
240.501	-11.1
240.717	-6.08
240.933	-7.04
241.149	-6.54
241.365	-6.1
241.581	-8.3
241.797	-9.13
242.013	-5.28
242.229	-8.77
242.445	-9.28
242.661	-5.15
242.877	-6.84
243.093	-10.47
243.309	-11.78
243.525	-21.18
243.741	-4.56
243.957	-3.76
244.173	-5.02
244.388	-3.69
244.604	3.04
244.82	4.59
245.036	4.95
245.252	4.37
245.468	2.69
245.683	2.9
245.899	4.78
246.115	0.76
246.331	1.65
246.547	2.62
246.762	1.35
246.978	0.24
247.194	-1.58
247.409	-1.41
247.625	-3.5
247.841	-0.35
248.057	-3.52
248.272	-3.04
248.488	-4.48
248.703	-5.14
248.919	-6.65
249.135	-3.07
249.35	-4.87
249.566	-2.64
249.782	-10.29
249.997	-7.35
250.213	-7.21
250.428	-0.93
250.644	-2.47
250.859	-1.54
251.075	0
251.29	-2.19
251.506	-0.91
251.721	-0.36
251.937	-2.29
252.152	4.95
252.368	4.39
252.583	3.42
252.798	1.63
253.014	5.8
253.229	12.53
253.445	3.18
253.66	4.21
253.875	-7.49
254.091	-11.83
254.306	-10.04
254.521	-9.52
254.737	-16.62
254.952	-10.47
255.167	-10.65
255.383	-18.86
255.598	-24.87
255.813	-19.09
256.028	-20.68
256.244	-10.83
256.459	-9.66
256.674	-8.52
256.889	-12.19
257.104	-5.77
257.32	-6.85
257.535	-7.93
257.75	-4.42
257.965	-2.04
258.18	-0.67
258.395	1.41
258.61	1.03
258.826	1.62
259.041	1.16
259.256	0.95
259.471	-1.4
259.686	-3.04
259.901	-2.53
260.116	-5.05
260.331	-5.48
260.546	-6.16
260.761	-7.53
260.976	-9.84
261.191	-12.39
261.406	-11.73
261.621	-7.4
261.836	-3.72
262.05	-2.25
262.265	-1.15
262.48	-0.8
262.695	-1.81
262.91	-1.2
263.125	-2.82
263.34	-6.17
263.555	-6.1
263.769	-8.3
263.984	-8.52
264.199	-6.55
264.414	-7.19
264.629	-9.39
264.843	-10.52
265.058	-12.43
265.273	-13.09
265.488	-9.51
265.702	-7.88
265.917	-6.15
266.132	-2.97
266.346	-4.23
266.561	-4.65
266.776	-4.3
266.99	-4.6
267.205	-1.93
267.42	0.04
267.634	0.74
267.849	-0.74
268.063	-0.69
268.278	-1.92
268.492	-2.39
268.707	-2.04
268.922	-1.24
269.136	0.82
269.351	3.52
269.565	3.59
269.78	0.88
269.994	-0.82
270.209	-1.46
270.423	-0.92
270.637	-0.61
270.852	-0.79
271.066	-1.94
271.281	-2.06
271.495	-1.74
271.709	-3.46
271.924	-5.04
272.138	-4.28
272.353	-2.98
272.567	-2.21
272.781	-2.97
272.996	-3
273.21	-5.27
273.424	-2.56
273.638	-7.23
273.853	-6.77
274.067	-6.54
274.281	-5.96
274.495	-5.51
274.71	-7.27
274.924	-8.12
275.138	-5.44
275.352	-6.85
275.566	-4.67
275.781	-7.54
275.995	-1.64
276.209	-8.09
276.423	-8.8
276.637	-6
276.851	-5.76
277.065	-4.12
277.279	-4.45
277.493	-5.12
277.707	-4.16
277.921	-3.03
278.135	-3.26
278.349	-2.78
278.563	-4.33
278.777	-2.21
278.991	-2.35
279.205	-0.83
279.419	-2.07
279.633	-1.4
279.847	-1.83
280.061	-2.8
280.275	-6.45
280.489	-3.61
280.703	-6.79
280.917	-3.52
281.131	-5.86
281.344	-9.22
281.558	-9.67
281.772	-9.08
281.986	-9.71
282.2	-11.48
282.414	-9.11
282.627	-6.33
282.841	-11.93
283.055	-10.1
283.269	-9.69
283.482	-8.85
283.696	-6.59
283.91	-4.88
284.123	-4.56
284.337	-2.92
284.551	-2.17
284.764	-2.64
284.978	-4.11
285.192	0.78
285.405	-0.16
285.619	-0.06
285.833	0.42
286.046	-0.43
286.26	-3.99
286.473	-4.79
286.687	-6.05
286.9	-5.37
287.114	-5.41
287.327	-4.46
287.541	-7.17
287.754	-5.33
287.968	-1.84
288.181	-1.21
288.395	-0.41
288.608	0.87
288.822	0.37
289.035	0.15
289.248	-1.02
289.462	0.41
289.675	0.47
289.889	-0.4
290.102	-1.56
290.315	-4.11
290.529	-6.14
290.742	-5.35
290.955	-6.72
291.169	-6.6
291.382	-6.78
291.595	-5.88
291.808	-7.21
292.022	-9.35
292.235	-9.57
292.448	-9.34
292.661	-8.69
292.875	-5.57
293.088	-8.4
293.301	-3.76
293.514	-3.13
293.727	-1.05
293.94	-0.87
294.153	-2.67
294.367	0.01
294.58	-0.81
294.793	0.49
295.006	0.12
295.219	-1.15
295.432	-0.4
295.645	-1.46
295.858	-1.43
296.071	-2.46
296.284	-4.26
296.497	-2.59
296.71	-4.93
296.923	-4.44
297.136	-6.36
297.349	-7.37
297.562	-8.18
297.775	-7.8
297.988	-8.58
298.201	-9.78
298.414	-12.17
298.626	-8.16
298.839	-7.26
299.052	-5.48
299.265	-4.44
299.478	-3.18
299.691	-2.42
299.903	-0.9
300.116	1.09
300.329	-0.25
300.542	1.82
300.755	2.46
300.967	1.44
301.18	-1.66
301.393	0.57
301.605	-0.68
301.818	-0.87
302.031	0.21
302.243	0.06
302.456	-1.57
302.669	-0.93
302.881	-2.22
303.094	-1.57
303.307	-3.06
303.519	-1.67
303.732	-8.24
303.944	-8.04
304.157	-7.27
304.37	-9.62
304.582	-12.09
304.795	-13.43
305.007	-13.83
305.22	-11.2
305.432	-11.56
305.645	-10.07
305.857	-11.39
306.069	-7.39
306.282	-6.2
306.494	-6.22
306.707	-5.01
306.919	-3.21
307.132	-4.17
307.344	-4.1
307.556	-4.61
307.769	-4.38
307.981	-3.22
308.193	-0.94
308.406	0.55
308.618	-1.18
308.83	-1.96
309.043	-3.66
309.255	-1.71
309.467	-0.79
309.679	-0.58
309.892	-2.39
310.104	-1.68
310.316	-1.93
310.528	-4.92
310.74	-4.31
310.953	-1.79
311.165	-0.74
311.377	2.35
311.589	-0.47
311.801	1.72
312.013	1.98
312.225	2.92
312.437	1.68
312.649	-1.59
312.862	-1.3
313.074	-4.3
313.286	-5.67
313.498	-5.15
313.71	-6.17
313.922	-5.01
314.134	-8.17
314.346	-7.48
314.558	-8.42
314.77	-8.04
314.982	-6.21
315.193	-2.82
315.405	-0.63
315.617	-0.42
315.829	2.62
316.041	5.82
316.253	6.98
316.465	7.64
316.677	6.08
316.888	7.15
317.1	10.89
317.312	8.59
317.524	8.85
317.736	9.1
317.947	9.22
318.159	7.68
318.371	3.59
318.583	3.48
318.794	3.71
319.006	5.42
319.218	7.18
319.43	3.99
319.641	6.66
319.853	4.28
320.064	3.81
320.276	4.26
320.488	3.43
320.699	6.48
320.911	7.12
321.123	8.52
321.334	4.59
321.546	3.14
321.757	6.79
321.969	8.74
322.18	10.5
322.392	9.92
322.603	8.32
322.815	6.3
323.026	4.6
323.238	6.46
323.449	4.97
323.661	7.75
323.872	8.04
324.083	7.02
324.295	6.22
324.506	5.83
324.718	6.88
324.929	8.16
325.14	8.06
325.352	8.91
325.563	5.9
325.774	10.5
325.986	11.04
326.197	10.66
326.408	10.61
326.62	12.42
326.831	11.21
327.042	11.65
327.253	13.49
327.464	16.89
327.676	19.45
327.887	21.52
328.098	18.41
328.309	16.45
328.52	19.9
328.732	20.78
328.943	20.46
329.154	24.43
329.365	24.97
329.576	24.09
329.787	23.58
329.998	19.62
330.209	19.9
330.42	21.3
330.631	24.79
330.842	23.29
331.053	24.23
331.264	25.72
331.475	24.18
331.686	26.2
331.897	25.62
332.108	23.86
332.319	28.7
332.53	28.16
332.741	27.45
332.952	27.99
333.163	24.49
333.374	22.07
333.585	23.92
333.795	26.4
334.006	22.39
334.217	23.97
334.428	23.81
334.639	18.96
334.849	19.32
335.06	18.4
335.271	18.91
335.482	20.95
335.692	21.12
335.903	18.12
336.114	17.27
336.325	20.21
336.535	20.36
336.746	20.57
336.957	19.97
337.167	20.67
337.378	22.08
337.589	21.4
337.799	21.92
338.01	21.92
338.22	24.06
338.431	22.25
338.642	19.42
338.852	17.25
339.063	16.5
339.273	19.54
339.484	17.53
339.694	17.91
339.905	16.91
340.115	16.62
340.326	16.37
340.536	15.08
340.746	14.65
340.957	14.81
341.167	17.5
341.378	20.68
341.588	20.26
341.799	21.83
342.009	20.19
342.219	19.72
342.43	21.9
342.64	23.07
342.85	23.52
343.061	25.36
343.271	27.24
343.481	25.38
343.691	21.39
343.902	21.42
344.112	21.08
344.322	21.4
344.532	21.8
344.743	20.58
344.953	20.08
345.163	19.07
345.373	18.96
345.583	19.46
345.793	18.78
346.004	21
346.214	22.58
346.424	21.7
346.634	20.96
346.844	22.22
347.054	22.11
347.264	22.22
347.474	22.12
347.684	21.69
347.894	20.53
348.104	20.82
348.314	20.12
348.524	17.09
348.734	18.28
348.944	19.28
349.154	20.7
349.364	22.02
349.574	22.87
349.784	22.41
349.994	21.79
350.204	22.62
350.413	24.49
350.623	24.76
350.833	26.09
351.043	26.22
351.253	26.29
351.463	22.72
351.672	20.32
351.882	19.5
352.092	20.36
352.302	21.07
352.511	20.23
352.721	19.89
352.931	19.77
353.141	19.6
353.35	19.22
353.56	20.01
353.77	20.52
353.979	20.68
354.189	20.33
354.399	21.36
354.608	23.26
354.818	23.05
355.027	20.34
355.237	20.29
355.447	20.9
355.656	20.19
355.866	20.05
356.075	20.47
356.285	20.33
356.494	22.07
356.704	21.68
356.913	19.14
357.123	20.34
357.332	22.35
357.542	23.17
357.751	21.32
357.96	21.69
358.17	21.97
358.379	21.55
358.589	22.43
358.798	20.4
359.007	20.06
359.217	21.07
359.426	22.32
359.635	21.72
359.845	22.39
360.054	23.94
360.263	24.5
360.472	24.03
360.682	24.45
360.891	24.01
361.1	25.08
361.309	25.59
361.519	24.14
361.728	22.28
361.937	23.07
362.146	21.9
362.355	22.29
362.564	22.64
362.774	24.31
362.983	24.51
363.192	25.09
363.401	24.22
363.61	23.46
363.819	24.82
364.028	24
364.237	24.23
364.446	24.4
364.655	22.66
364.864	23.3
365.073	21.16
365.282	20.06
365.491	20.84
365.7	22.5
365.909	23.41
366.118	23.91
366.327	25.59
366.536	26.99
366.745	26.83
366.954	28
367.162	26.98
367.371	27.97
367.58	28.59
367.789	27.94
367.998	26.4
368.207	25.87
368.415	25.34
368.624	24.79
368.833	24.35
369.042	24.48
369.25	23.61
369.459	22.77
369.668	21.08
369.877	19.51
370.085	18.97
370.294	19.27
370.503	18.05
370.711	18.43
370.92	17.68
371.129	15
371.337	13.82
371.546	14.8
371.754	15.86
371.963	16.45
372.171	18.77
372.38	18.63
372.589	18.76
372.797	18.98
373.006	18.06
373.214	18.32
373.423	20.03
373.631	23.74
373.84	23.06
374.048	23.18
374.256	24.13
374.465	24.01
374.673	23.84
374.882	25.06
375.09	26.32
375.298	26.39
375.507	26.61
375.715	25.67
375.923	22.8
376.132	22.49
376.34	21.5
376.548	20.6
376.757	20.75
376.965	20.5
377.173	18.53
377.381	18.28
377.59	18.55
377.798	18.42
378.006	19.22
378.214	19.83
378.423	21.1
378.631	22.63
378.839	22.97
379.047	22.95
379.255	23.14
379.463	23.05
379.671	22.4
379.879	21.98
380.088	22.35
380.296	21.86
380.504	20.96
380.712	19.89
380.92	18.16
381.128	17.76
381.336	16.84
381.544	19.02
381.752	18.33
381.96	18.19
382.168	19.11
382.376	19.83
382.584	19.65
382.791	20.66
382.999	19.98
383.207	20.99
383.415	20.49
383.623	19.33
383.831	17.06
384.039	19.16
384.247	20.06
384.454	17.35
384.662	16.14
384.87	16.86
385.078	16.63
385.285	17.12
385.493	16.89
385.701	17.4
385.909	19.35
386.116	20.06
386.324	19.83
386.532	18.33
386.739	20.56
386.947	20.93
387.155	21.91
387.362	20.87
387.57	21.67
387.778	21.26
387.985	21.69
388.193	20.98
388.4	21.44
388.608	21.52
388.816	22.1
389.023	22.39
389.231	22.78
389.438	20.71
389.646	20.97
389.853	20.73
390.061	21.41
390.268	21.11
390.475	21.23
390.683	20.74
390.89	20.06
391.098	20.09
391.305	20.12
391.512	20.41
391.72	21.44
391.927	21.61
392.135	20.69
392.342	20.87
392.549	20.54
392.756	20.34
392.964	20.89
393.171	21.28
393.378	21.37
393.586	21.26
393.793	19.8
394	19.74
394.207	20.8
394.414	21.58
394.622	21.74
394.829	21.91
395.036	22.59
395.243	22.46
395.45	22.63
395.657	22.59
395.864	22.31
396.072	22.26
396.279	21.4
396.486	20.57
396.693	20.71
396.9	20.2
397.107	20.93
397.314	20.39
397.521	19.87
397.728	19.54
397.935	18.74
398.142	19.63
398.349	20.91
398.556	20.69
398.763	19.95
398.97	19.05
399.177	19.48
399.383	19.87
399.59	19.01
399.797	19.41
400.004	20
400.211	20.54
400.418	19.23
400.625	18.31
400.831	18.8
401.038	19.57
401.245	20.43
401.452	19.89
401.658	19.05
401.865	19.5
402.072	19.75
402.279	19.39
402.485	19.15
402.692	20.89
402.899	20.39
403.105	20.38
403.312	20.47
403.519	21
403.725	21.18
403.932	21.58
404.138	22.57
404.345	21.62
404.552	21.27
404.758	21.28
404.965	19.18
405.171	20.21
405.378	20.3
405.584	19.74
405.791	18.78
405.997	17.84
406.204	17.74
406.41	17.51
406.617	18.07
406.823	18.33
407.029	19.13
407.236	20.19
407.442	19.7
407.649	19.44
407.855	20.88
408.061	20.88
408.268	22
408.474	21.08
408.68	20.7
408.887	20.98
409.093	20.46
409.299	19.3
409.505	19.35
409.712	19.05
409.918	19.86
410.124	18.99
410.33	18.72
410.537	18.92
410.743	19.23
410.949	19.14
411.155	18.82
411.361	19.17
411.567	19.12
411.773	19.14
411.98	19.59
412.186	19.02
412.392	18.54
412.598	18.85
412.804	18.04
413.01	18.99
413.216	19.64
413.422	19.56
413.628	19.87
413.834	20.59
414.04	20.54
414.246	20.23
414.452	19.69
414.658	20.73
414.864	22.15
415.07	21.9
415.275	20.77
415.481	20.35
415.687	20.49
415.893	19.75
416.099	20.68
416.305	19.83
416.511	20.4
416.716	20.99
416.922	19.92
417.128	18.78
417.334	18.55
417.539	18.75
417.745	18.7
417.951	18.37
418.157	19.11
418.362	18.14
418.568	18.23
418.774	17.82
418.979	17.38
419.185	18.55
419.391	18.62
419.596	19.11
419.802	19.05
420.008	18.92
420.213	19.46
420.419	19.06
420.624	19.69
420.83	19.78
421.035	19.9
421.241	20.51
421.446	19.8
421.652	19.9
421.857	19.81
422.063	19.77
422.268	19.85
422.474	19.35
422.679	19.12
422.885	18.92
423.09	19.17
423.295	19.06
423.501	18.77
423.706	19.01
423.911	19.13
424.117	18.9
424.322	18.93
424.527	18.69
424.733	19.11
424.938	19.76
425.143	19.82
425.349	20.09
425.554	20.04
425.759	19.88
425.964	19.59
426.169	19.45
426.375	19.13
426.58	19.61
426.785	19.55
426.99	18.7
427.195	18.47
427.4	18.12
427.605	17.85
427.811	17.98
428.016	17.55
428.221	17.5
428.426	16.67
428.631	16.83
428.836	16.3
429.041	16.17
429.246	16.57
429.451	16.59
429.656	16.2
429.861	16.12
430.066	15.88
430.271	16.55
430.476	17.46
430.681	17.96
430.886	18.3
431.09	18.28
431.295	18.47
431.5	18.65
431.705	18.3
431.91	18.25
432.115	18.18
432.32	17.51
432.524	17.57
432.729	16.04
432.934	16.43
433.139	16.62
433.343	16.48
433.548	16.41
433.753	16.45
433.958	16.67
434.162	16.71
434.367	16.84
434.572	17.53
434.776	17.85
434.981	18.5
435.186	17.53
435.39	17.32
435.595	17.51
435.799	17.33
436.004	17.4
436.209	17.46
436.413	17.83
436.618	17.68
436.822	17.93
437.027	17.06
437.231	17.28
437.436	17.62
437.64	17.93
437.845	18.18
438.049	18.14
438.253	17.78
438.458	17.7
438.662	17.4
438.867	17.08
439.071	16.86
439.275	17.09
439.48	16.53
439.684	16.52
439.888	15.99
440.093	15.83
440.297	15.81
440.501	15.81
440.706	15.4
440.91	15.28
441.114	15.32
441.318	15.22
441.523	15.17
441.727	15.13
441.931	15.17
442.135	15.17
442.339	15.08
442.543	15.36
442.748	15.5
442.952	15.95
443.156	15.85
443.36	16.06
443.564	16.23
443.768	16.6
443.972	17.1
444.176	16.57
444.38	17.17
444.584	17.39
444.788	17.26
444.992	17.24
445.196	17.22
445.4	17.42
445.604	16.93
445.808	16.83
446.012	16.7
446.216	16.59
446.42	16.85
446.624	16.28
446.828	15.65
447.032	15.87
447.235	16.05
447.439	15.35
447.643	15.91
447.847	16.54
448.051	17.19
448.254	16.54
448.458	16.31
448.662	17.2
448.866	17.49
449.069	17.83
449.273	17.54
449.477	17.5
449.681	18.28
449.884	17.67
450.088	17.64
450.292	17.39
450.495	18.17
450.699	18.22
450.902	17.32
451.106	16.88
451.31	16.93
451.513	16.8
451.717	16.98
451.92	16.71
452.124	16.29
452.327	15.82
452.531	15.79
452.734	15.26
452.938	15.5
453.141	15.64
453.345	16.01
453.548	15.81
453.752	15.9
453.955	15.51
454.158	15.65
454.362	15.73
454.565	16.23
454.769	15.31
454.972	15.69
455.175	15.52
455.379	15.29
455.582	15.1
455.785	15.14
455.988	14.79
456.192	14.73
456.395	15.06
456.598	15.7
456.801	14.91
457.005	15.36
457.208	15.09
457.411	15.66
457.614	15.89
457.817	16.17
458.021	16.24
458.224	16.46
458.427	16.77
458.63	16.94
458.833	16.47
459.036	16.94
459.239	16.76
459.442	16.82
459.645	16.6
459.848	16.9
460.051	16.77
460.254	16.91
460.457	17.06
460.66	16.68
460.863	15.82
461.066	16.3
461.269	16.52
461.472	16.83
461.675	16.76
461.878	16.11
462.081	15.58
462.284	15.26
462.486	14.93
462.689	14.34
462.892	14.62
463.095	15.39
463.298	14.86
463.5	14.26
463.703	14.18
463.906	14.59
464.109	14.55
464.311	14.31
464.514	14.47
464.717	14.54
464.92	15.31
465.122	14.85
465.325	15.08
465.528	15.82
465.73	15.73
465.933	16.01
466.135	15.68
466.338	15.78
466.541	15.83
466.743	15.51
466.946	15.34
467.148	15.04
467.351	15.47
467.553	15.23
467.756	14.09
467.958	14.6
468.161	14.11
468.363	14.86
468.566	15.5
468.768	15.89
468.971	16.54
469.173	16.98
469.375	17.26
469.578	17.14
469.78	16.97
469.983	17.9
470.185	18.24
470.387	18.62
470.59	18.26
470.792	17.8
470.994	18.11
471.196	17.82
471.399	17.77
471.601	17.77
471.803	17.51
472.005	17.15
472.208	16.74
472.41	16.46
472.612	15.85
472.814	15.39
473.016	16.78
473.218	16.11
473.421	15.91
473.623	15.94
473.825	15.94
474.027	16.12
474.229	15.73
474.431	15.69
474.633	15.72
474.835	16.14
475.037	16
475.239	14.97
475.441	14.9
475.643	14.39
475.845	14.2
476.047	13.64
476.249	13.85
476.451	14.34
476.653	14.52
476.855	14.25
477.057	14.11
477.258	14
477.46	14.02
477.662	14.26
477.864	15.15
478.066	15.51
478.268	15.62
478.469	15.21
478.671	15.39
478.873	15.33
479.075	15.42
479.276	15.95
479.478	16.36
479.68	16.38
479.882	16.31
480.083	16.02
480.285	16.08
480.487	16.07
480.688	16.04
480.89	15.57
481.091	15.29
481.293	15.39
481.495	15.19
481.696	15.15
481.898	15.2
482.099	15.17
482.301	15.17
482.502	14.98
482.704	14.99
482.905	15.1
483.107	15.13
483.308	15.2
483.51	15.11
483.711	15.21
483.913	15.27
484.114	15.14
484.315	15.11
484.517	15.26
484.718	15.17
484.92	15.15
485.121	14.99
485.322	15.04
485.524	15.05
485.725	15.07
485.926	15
486.127	14.76
486.329	14.55
486.53	14.75
486.731	14.66
486.932	14.96
487.134	14.89
487.335	14.69
487.536	14.89
487.737	14.78
487.938	14.74
488.139	14.48
488.341	14.44
488.542	14.66
488.743	14.57
488.944	14.65
489.145	14.34
489.346	14.44
489.547	14.76
489.748	14.72
489.949	14.95
490.15	15.08
490.351	15.31
490.552	15.35
490.753	15.38
490.954	15.2
491.155	14.99
491.356	14.88
491.557	15.04
491.758	15.01
491.959	14.74
492.159	14.67
492.36	14.55
492.561	14.45
492.762	14.63
492.963	14.72
493.164	14.7
493.364	14.51
493.565	14.49
493.766	14.51
493.967	14.69
494.167	15.08
494.368	15.13
494.569	14.83
494.769	14.99
494.97	14.93
495.171	15.32
495.371	15.89
495.572	16.39
495.773	16.78
495.973	16.36
496.174	16.15
496.375	15.94
496.575	15.88
496.776	16.31
496.976	16.04
497.177	16.14
497.377	15.96
497.578	15.28
497.778	15.44
497.979	15.12
498.179	15.65
498.38	16.17
498.58	16.42
498.78	16.78
498.981	16.51
499.181	16.36
499.382	16.1
499.582	15.69
499.782	16.11
499.983	15.35
500.183	15.46
500.383	15.28
500.584	15.08
500.784	15.05
500.984	14.8
501.184	14.74
501.385	15.38
501.585	15.76
501.785	15.77
501.985	15.92
502.185	16.39
502.386	17.34
502.586	17.66
502.786	17.44
502.986	17.68
503.186	17.85
503.386	18.3
503.586	17.83
503.786	17.69
503.987	18.17
504.187	17.68
504.387	17.97
504.587	17.61
504.787	17.25
504.987	17.52
505.187	17.62
505.387	17.52
505.587	17.47
505.786	17.89
505.986	18.31
506.186	18.42
506.386	18.48
506.586	18.02
506.786	17.99
506.986	18.1
507.186	18.57
507.386	18.71
507.585	18.83
507.785	18.81
507.985	19.21
508.185	18.99
508.384	18.85
508.584	19.27
508.784	19.64
508.984	19.68
509.183	19.9
509.383	19.55
509.583	19.3
509.782	19.26
509.982	19.61
510.182	19.05
510.381	19.03
510.581	19.13
510.781	19.1
510.98	19.49
511.18	19.29
511.379	18.88
511.579	18.98
511.778	18.84
511.978	19.24
512.177	19.13
512.377	19.29
512.576	20.09
512.776	19.93
512.975	20.3
513.175	20.1
513.374	20.3
513.573	20.88
513.773	20.47
513.972	20.9
514.172	20.58
514.371	20.11
514.57	20.29
514.77	19.49
514.969	19.48
515.168	19.26
515.367	19.27
515.567	19.13
515.766	18.8
515.965	19.46
516.164	19.52
516.364	19.61
516.563	20.15
516.762	20.19
516.961	20.06
517.16	20.05
517.359	19.88
517.559	19.72
517.758	19.67
517.957	19.66
518.156	19.52
518.355	19.3
518.554	19.22
518.753	19.12
518.952	18.79
519.151	18.84
519.35	19.1
519.549	19.4
519.748	19.81
519.947	19.9
520.146	19.78
520.345	19.8
520.544	19.96
520.743	19.71
520.942	19.59
521.141	19.97
521.339	20.28
521.538	20.55
521.737	21.15
521.936	20.86
522.135	21.31
522.333	21.87
522.532	21.65
522.731	21.4
522.93	21.71
523.129	21.56
523.327	21.58
523.526	21.67
523.725	21.17
523.923	20.39
524.122	20.62
524.321	20.54
524.519	20.59
524.718	20.63
524.917	20.73
525.115	20.77
525.314	20.85
525.512	20.68
525.711	20.72
525.909	20.84
526.108	21.15
526.306	20.97
526.505	20.99
526.703	20.89
526.902	20.79
527.1	21.01
527.299	21.1
527.497	21.18
527.696	21.3
527.894	21.22
528.092	21.36
528.291	21.35
528.489	21.57
528.688	21.52
528.886	21.54
529.084	21.87
529.283	21.72
529.481	21.77
529.679	21.7
529.877	21.84
530.076	21.91
530.274	22.08
530.472	21.98
530.67	21.78
530.869	21.65
531.067	21.86
531.265	21.86
531.463	21.88
531.661	22.07
531.859	22.17
532.057	22.05
532.255	22.12
532.454	22.03
532.652	22.03
532.85	22.13
533.048	22.42
533.246	22.36
533.444	22.15
533.642	22.27
533.84	22.08
534.038	21.85
534.236	21.65
534.434	21.85
534.632	21.9
534.83	22.09
535.027	22.17
535.225	21.93
535.423	22.17
535.621	22.26
535.819	22.44
536.017	22.4
536.215	22.93
536.412	23.61
536.61	23.64
536.808	23.92
537.006	23.86
537.203	23.62
537.401	23.63
537.599	23.68
537.797	23.84
537.994	23.71
538.192	23.48
538.39	23.35
538.587	23.07
538.785	22.97
538.983	22.7
539.18	22.63
539.378	22.97
539.575	23.22
539.773	22.92
539.97	22.76
540.168	22.8
540.366	22.89
540.563	23
540.761	23.17
540.958	23.12
541.155	23.05
541.353	23.33
541.55	23.11
541.748	23.11
541.945	23.33
542.143	23.56
542.34	23.84
542.537	24.03
542.735	23.98
542.932	23.65
543.129	23.94
543.327	24.15
543.524	23.68
543.721	23.9
543.919	23.98
544.116	23.69
544.313	23.46
544.51	23.38
544.708	23.44
544.905	23.15
545.102	22.71
545.299	22.41
545.496	22.19
545.693	22.39
545.891	21.86
546.088	21.52
546.285	21.63
546.482	21.88
546.679	21.66
546.876	21.81
547.073	22.26
547.27	22.87
547.467	22.94
547.664	23.37
547.861	23.7
548.058	24.57
548.255	24.93
548.452	24.92
548.649	24.64
548.846	24.75
549.043	25.15
549.24	24.96
549.437	25.07
549.633	24.8
549.83	24.25
550.027	24.32
550.224	24.33
550.421	24.6
550.618	24.64
550.814	25.12
551.011	25.45
551.208	25
551.405	24.78
551.601	24.38
551.798	24.96
551.995	24.97
552.191	24.99
552.388	24.7
552.585	24.07
552.781	24.46
552.978	24.34
553.175	23.59
553.371	23.43
553.568	23.39
553.764	23.74
553.961	23.6
554.157	24.27
554.354	24.67
554.55	24.79
554.747	25.4
554.943	25.56
555.14	25.41
555.336	26.42
555.533	26.51
555.729	27.18
555.926	27.71
556.122	28.18
556.318	28.1
556.515	27.85
556.711	28.52
556.907	28.89
557.104	28.84
557.3	29.56
557.496	29.18
557.693	29.66
557.889	29.58
558.085	29.64
558.281	29.12
558.478	29.63
558.674	29.56
558.87	29.13
559.066	29.06
559.262	29.2
559.459	29.3
559.655	29.12
559.851	28.71
560.047	29.22
560.243	29.17
560.439	29.5
560.635	28.89
560.831	29.58
561.027	29.99
561.223	30.09
561.419	29.97
561.615	29.37
561.811	28.96
562.007	28.99
562.203	28.92
562.399	28.93
562.595	28.75
562.791	28.87
562.987	28.06
563.183	28.28
563.379	28.68
563.575	28.47
563.771	28.71
563.966	29.52
564.162	29.56
564.358	28.99
564.554	28.81
564.75	29.1
564.945	29.64
565.141	29.72
565.337	29.63
565.533	28.83
565.728	29.28
565.924	29.14
566.12	28.86
566.315	29.03
566.511	29.61
566.707	29.76
566.902	29.75
567.098	29.13
567.293	29.57
567.489	30.24
567.684	31.02
567.88	30.76
568.076	31.15
568.271	31.72
568.467	31.78
568.662	31.24
568.858	31.14
569.053	31.51
569.248	32.06
569.444	32.14
569.639	32.03
569.835	31.75
570.03	32.03
570.225	32.08
570.421	31.7
570.616	31.83
570.812	32.24
571.007	32.64
571.202	32.62
571.397	32.66
571.593	32.91
571.788	32.59
571.983	32.37
572.178	32.89
572.374	33.1
572.569	33.64
572.764	34.45
572.959	34.66
573.154	34.74
573.35	34.97
573.545	34.79
573.74	35.02
573.935	35.29
574.13	35.93
574.325	35.63
574.52	35.92
574.715	36.05
574.91	35.8
575.105	35.61
575.3	35.4
575.495	35.17
575.69	35.75
575.885	35.46
576.08	34.69
576.275	34.51
576.47	34.62
576.665	34.25
576.86	34.23
577.055	34.04
577.25	34.05
577.444	34.23
577.639	34.47
577.834	34.08
578.029	34.38
578.224	34.85
578.418	35.08
578.613	35.31
578.808	35.89
579.003	35.87
579.197	36.07
579.392	36.69
579.587	37.38
579.781	37.27
579.976	37.53
580.171	36.67
580.365	36.78
580.56	37.19
580.755	36.91
580.949	37.4
581.144	37.18
581.338	37.29
581.533	38.08
581.727	38.21
581.922	38.73
582.116	37.9
582.311	39.23
582.505	39.93
582.7	40.04
582.894	40.19
583.089	39.81
583.283	39.61
583.478	39.45
583.672	38.52
583.866	38.47
584.061	38.89
584.255	40.1
584.449	40.28
584.644	39.79
584.838	39.84
585.032	40.13
585.226	40.97
585.421	41.2
585.615	41.69
585.809	42.13
586.003	41.79
586.198	41.25
586.392	41.55
586.586	39.62
586.78	39.25
586.974	39.14
587.168	39.3
587.363	38.32
587.557	39.01
587.751	38.45
587.945	38.27
588.139	39.31
588.333	38.92
588.527	38.22
588.721	39.11
588.915	40
589.109	40.39
589.303	40.18
589.497	39.8
589.691	39.65
589.885	39.83
590.079	40.43
590.273	39.49
590.466	40.45
590.66	40.7
590.854	41.11
591.048	41.37
591.242	41.05
591.436	41.17
591.629	41.13
591.823	41.52
592.017	42.18
592.211	41.7
592.404	41.98
592.598	41.32
592.792	41.19
592.986	41.55
593.179	40.64
593.373	40.9
593.567	41.25
593.76	42.21
593.954	41.3
594.147	40.88
594.341	41.33
594.535	41.52
594.728	41.87
594.922	42.5
595.115	42.6
595.309	42.81
595.502	42.83
595.696	42.23
595.889	42.22
596.083	42.83
596.276	42.36
596.47	42.32
596.663	42.45
596.856	42.45
597.05	42.53
597.243	42.1
597.437	42.82
597.63	43.39
597.823	43.17
598.017	42.85
598.21	42.77
598.403	43.51
598.596	43.11
598.79	43.05
598.983	42.71
599.176	41.72
599.369	42.69
599.563	42.25
599.756	41.81
599.949	42.16
600.142	42.39
600.335	41.85
600.528	41.79
600.722	42.3
600.915	41.74
601.108	41.8
601.301	42.96
601.494	42.7
601.687	43.14
601.88	43.23
602.073	43.14
602.266	43.53
602.459	43.84
602.652	43.52
602.845	42.81
603.038	43.13
603.231	43.06
603.424	42.83
603.617	42.14
603.809	42.04
604.002	42.06
604.195	42.65
604.388	41.97
604.581	42.46
604.774	42.93
604.966	43.59
605.159	43.82
605.352	43.62
605.545	43.45
605.737	44.92
605.93	44.53
606.123	44.74
606.316	45.11
606.508	45.85
606.701	44.61
606.894	45.48
607.086	45.76
607.279	45.29
607.471	45.91
607.664	45.85
607.857	45.05
608.049	45.47
608.242	45.02
608.434	44.84
608.627	44.26
608.819	45.98
609.012	45.83
609.204	44.44
609.397	44.39
609.589	44.62
609.782	44.28
609.974	44.37
610.166	44.56
610.359	44.73
610.551	44.16
610.743	44.16
610.936	43.14
611.128	42.52
611.32	43.89
611.513	43.92
611.705	44.03
611.897	44.27
612.09	44.27
612.282	44.65
612.474	44.58
612.666	44.54
612.858	45.79
613.051	46.08
613.243	45.31
613.435	45.2
613.627	45.23
613.819	45.22
614.011	45.01
614.203	43.98
614.395	42.29
614.588	42.3
614.78	43.13
614.972	42.77
615.164	42.68
615.356	43
615.548	43.36
615.74	43.54
615.932	42.94
616.124	44.11
616.315	43.76
616.507	45.23
616.699	45.51
616.891	45.71
617.083	45.1
617.275	44.4
617.467	43.63
617.659	43.14
617.85	44.33
618.042	45.35
618.234	44.62
618.426	46.25
618.618	45.96
618.809	46.07
619.001	45.35
619.193	45.81
619.384	46.3
619.576	46.47
619.768	46.71
619.959	45.87
620.151	45.19
620.343	45.79
620.534	45.86
620.726	46.21
620.917	46.07
621.109	46.62
621.301	46.03
621.492	46.21
621.684	48.18
621.875	48.9
622.067	48.25
622.258	48.15
622.45	47.57
622.641	47.39
622.832	47.67
623.024	47.98
623.215	48.06
623.407	48.32
623.598	48.59
623.789	47.75
623.981	46.7
624.172	47
624.363	46.97
624.555	46.97
624.746	46.32
624.937	45.89
625.129	45.33
625.32	44.03
625.511	43.78
625.702	43.1
625.893	42.25
626.085	42.92
626.276	42.64
626.467	42.85
626.658	43.19
626.849	43.22
627.04	43.11
627.231	43.29
627.422	43.98
627.614	44.07
627.805	44.41
627.996	45.3
628.187	44.44
628.378	45.09
628.569	44.78
628.76	44.71
628.951	45.02
629.142	44.94
629.332	44.51
629.523	45.25
629.714	45.81
629.905	45.86
630.096	45.38
630.287	46.57
630.478	46.11
630.669	46.56
630.859	46.09
631.05	45.8
631.241	46.39
631.432	46.29
631.623	46.31
631.813	45.74
632.004	46.2
632.195	46.21
632.385	45.62
632.576	45.9
632.767	46.06
632.957	45.79
633.148	45.65
633.339	45.21
633.529	46.08
633.72	45.03
633.91	45.8
634.101	45.09
634.292	45.1
634.482	44.78
634.673	43.87
634.863	44.38
635.054	45.26
635.244	45.77
635.435	46.15
635.625	45.58
635.815	45.98
636.006	45.11
636.196	45.23
636.387	45.24
636.577	45.51
636.767	46.56
636.958	46.44
637.148	47.01
637.338	46.32
637.529	46.23
637.719	46.38
637.909	47.25
638.099	47.67
638.29	46.88
638.48	46.73
638.67	47.05
638.86	46.35
639.05	45.91
639.241	45.22
639.431	45.66
639.621	44.82
639.811	44.71
640.001	43.93
640.191	44.71
640.381	45.76
640.571	46.09
640.761	45.94
640.951	46.32
641.141	46.45
641.331	47.19
641.521	47.12
641.711	47.28
641.901	46.73
642.091	46.88
642.281	45.86
642.471	45.19
642.661	45.14
642.851	45.17
643.041	44.43
643.231	44.73
643.42	43.87
643.61	44.68
643.8	44.53
643.99	44.77
644.18	44.85
644.369	43.88
644.559	44.69
644.749	44.32
644.939	44.61
645.128	45.76
645.318	44.65
645.508	44.9
645.697	44.35
645.887	43.71
646.076	44.12
646.266	43.88
646.456	44.06
646.645	44.04
646.835	43.97
647.024	43.13
647.214	41.59
647.403	41.4
647.593	41.97
647.782	40.92
647.972	41.23
648.161	41.64
648.351	41.58
648.54	42.41
648.73	42.57
648.919	43.18
649.108	43.29
649.298	44.45
649.487	44.86
649.677	43.67
649.866	44.86
650.055	45.48
650.244	44.96
650.434	44.5
650.623	45.08
650.812	44.04
651.002	44.2
651.191	43.77
651.38	44.67
651.569	44.61
651.758	44.69
651.947	45.02
652.137	43.73
652.326	44.73
652.515	45.79
652.704	45.06
652.893	45.67
653.082	45.01
653.271	46.5
653.46	46.26
653.649	46.6
653.838	46.85
654.027	46.62
654.216	46.83
654.405	46.44
654.594	46.22
654.783	46.14
654.972	45.94
655.161	47.12
655.35	45.93
655.539	46.17
655.728	46.57
655.916	45.29
656.105	44.45
656.294	45.11
656.483	44.5
656.672	44.54
656.86	44.9
657.049	45.14
657.238	44.96
657.427	44.93
657.615	44.68
657.804	44.27
657.993	45.35
658.181	45.82
658.37	45.66
658.559	46.03
658.747	45.62
658.936	45.29
659.125	44.87
659.313	44.47
659.502	45.7
659.69	46
659.879	44.75
660.067	44.56
660.256	44.26
660.444	43.79
660.633	43.85
660.821	43.81
661.01	44.42
661.198	44.65
661.387	44.85
661.575	43.98
661.763	42.55
661.952	42.58
662.14	42.17
662.328	43.51
662.517	44.48
662.705	43.91
662.893	44.01
663.082	44.11
663.27	43.44
663.458	43.38
663.646	43.3
663.834	44.4
664.023	45.02
664.211	45.55
664.399	44.37
664.587	44.54
664.775	44.59
664.963	44.21
665.152	43.03
665.34	43.61
665.528	42.66
665.716	42.26
665.904	42.16
666.092	44.11
666.28	43.77
666.468	44.27
666.656	44.2
666.844	44.16
667.032	45.21
667.22	45.8
667.408	46.24
667.596	47.27
667.784	47.17
667.971	46.24
668.159	44.79
668.347	44.97
668.535	44.85
668.723	45.52
668.911	45.3
669.098	43.95
669.286	43.6
669.474	43.58
669.662	43.36
669.849	42.84
670.037	43.79
670.225	43.27
670.413	42.85
670.6	42.65
670.788	40.39
670.976	39.56
671.163	41.36
671.351	41.79
671.538	41.9
671.726	40.23
671.913	42.15
672.101	42.23
672.289	42.45
672.476	43.12
672.664	42.72
672.851	44.73
673.039	44.52
673.226	44.65
673.413	44
673.601	44.34
673.788	46.65
673.976	44.5
674.163	45.49
674.35	47.04
674.538	46
674.725	47.67
674.912	46.76
675.1	47.98
675.287	47.4
675.474	47.3
675.662	46.85
675.849	45.85
676.036	46.46
676.223	45.36
676.411	45.21
676.598	45.27
676.785	44.59
676.972	45.01
677.159	44.87
677.346	44.61
677.533	45.27
677.721	44.97
677.908	45.27
678.095	45.93
678.282	45.54
678.469	45.19
678.656	45.94
678.843	44.77
679.03	43.72
679.217	43.98
679.404	42.92
679.591	42.51
679.778	43.18
679.964	42.7
680.151	42.46
680.338	42.7
680.525	42.15
680.712	42.73
680.899	43.77
681.086	45.15
681.272	44.63
681.459	45.56
681.646	47.33
681.833	46.07
682.02	46.62
682.206	46.94
682.393	47.39
682.58	47.22
682.766	46.54
682.953	45.66
683.14	44.95
683.326	45.53
683.513	45.9
683.7	43.54
683.886	44.01
684.073	43.06
684.259	41.7
684.446	40.92
684.632	42.25
684.819	41.61
685.005	41.3
685.192	40.3
685.378	39.54
685.565	40.52
685.751	41.69
685.938	41.82
686.124	43.06
686.31	44.41
686.497	44.7
686.683	44.84
686.87	45.46
687.056	46.53
687.242	46.97
687.429	45.83
687.615	44.12
687.801	44.34
687.987	44.5
688.174	43.63
688.36	43.16
688.546	43.77
688.732	42.89
688.918	42.53
689.105	42.34
689.291	41.85
689.477	41.25
689.663	42.54
689.849	41
690.035	39.58
690.221	39.18
690.407	39.64
690.593	38.55
690.779	39
690.965	38.97
691.151	39.07
691.337	40.39
691.523	40.43
691.709	39.04
691.895	39.67
692.081	41.43
692.267	42.32
692.453	41.23
692.639	42.4
692.825	40.32
693.011	41.03
693.196	42.05
693.382	42
693.568	42.74
693.754	43.25
693.94	44.56
694.125	43.43
694.311	43.55
694.497	44.99
694.682	43.95
694.868	45.64
695.054	45.84
695.239	42.11
695.425	41.74
695.611	42.99
695.796	42.74
695.982	41.39
696.168	40.89
696.353	39.6
696.539	39.76
696.724	39.53
696.91	38
697.095	37.25
697.281	38.62
697.466	39.12
697.652	39.15
697.837	40.19
698.023	40.86
698.208	41.1
698.393	42.26
698.579	41.77
698.764	42.33
698.949	43.09
699.135	42.53
699.32	42.88
699.505	42.58
699.691	40.8
699.876	40.14
700.061	39.18
700.246	41.08
700.432	41.3
700.617	41.34
700.802	41.53
700.987	41.28
701.172	43.76
701.358	43.15
701.543	44.7
701.728	46.73
701.913	46.01
702.098	46.68
702.283	45.23
702.468	44.47
702.653	46.8
702.838	46.07
703.023	46.16
703.208	46.73
703.393	47.9
703.578	45.31
703.763	46.13
703.948	45.5
704.133	47.23
704.318	51.38
704.503	51.52
704.688	48.69
704.873	48.94
705.057	49.62
705.242	46.55
705.427	48.09
705.612	50.12
705.797	49.54
705.981	49.86
706.166	50.22
706.351	47.69
706.536	46.31
706.72	47.42
706.905	45.82
707.09	46.19
707.274	46.11
707.459	44.58
707.644	43.45
707.828	44.23
708.013	46.49
708.197	45.09
708.382	46.21
708.567	48.87
708.751	48.34
708.936	50.07
709.12	51.24
709.305	52.4
709.489	51.09
709.673	53.92
709.858	52.7
710.042	53.26
710.227	52.91
710.411	49.66
710.596	49.83
710.78	48.29
710.964	48.72
711.149	47.58
711.333	45.18
711.517	47.87
711.702	46.14
711.886	48.68
712.07	48.2
712.254	48.25
712.438	50.67
712.623	48.14
712.807	49.83
712.991	49.68
713.175	49.01
713.359	51.88
713.544	49.72
713.728	50.35
713.912	48.11
714.096	45.65
714.28	45.26
714.464	44.08
714.648	45.75
714.832	44.56
715.016	43.59
715.2	44.33
715.384	43.02
715.568	44.77
715.752	44.75
715.936	45.31
716.12	45.59
716.304	45.8
716.488	45.7
716.671	44.01
716.855	43.97
717.039	43.68
717.223	43.06
717.407	41.85
717.59	38.83
717.774	36.36
717.958	36.26
718.142	37.72
718.325	33.68
718.509	31.31
718.693	32.49
718.877	34.53
719.06	34.33
719.244	35.19
719.428	37.7
719.611	38.51
719.795	39.61
719.978	38.68
720.162	36.41
720.345	40.69
720.529	41.43
720.713	41.02
720.896	37.06
721.08	37.76
721.263	36
721.446	33.35
721.63	34.06
721.813	30.4
721.997	30.4
722.18	31.24
722.364	30.84
722.547	34.16
722.73	32.78
722.914	35.18
723.097	33.29
723.28	35.19
723.464	36.38
723.647	38.33
723.83	41.3
724.013	43.46
724.197	45.03
724.38	42.78
724.563	38.28
724.746	40.39
724.929	39.18
725.112	41.04
725.296	39.27
725.479	38.58
725.662	35.86
725.845	35.93
726.028	32.75
726.211	31.25
726.394	34.83
726.577	36.3
726.76	36.5
726.943	37.87
727.126	38.53
727.309	41.4
727.492	42.94
727.675	44.02
727.858	43.35
728.041	43.27
728.224	44.01
728.407	40.77
728.589	43.58
728.772	43.93
728.955	43.9
729.138	44.32
729.321	40.95
729.503	42.3
729.686	42.21
729.869	44.02
730.052	46.82
730.234	48.92
730.417	51.62
730.6	49.42
730.782	47.94
730.965	47.64
731.148	45.74
731.33	47.49
731.513	47.83
731.695	47.86
731.878	46.7
732.061	46.71
732.243	44.79
732.426	45.23
732.608	44.09
732.791	44.94
732.973	46.09
733.156	46.91
733.338	45.56
733.52	43.72
733.703	44.09
733.885	45.86
734.068	46.15
734.25	49.59
734.432	47.32
734.615	49.34
734.797	50.76
734.979	49.07
735.162	52.17
735.344	53.14
735.526	54.48
735.708	54.45
735.891	55.68
736.073	54.68
736.255	50.21
736.437	51.38
736.619	51.39
736.802	51.48
736.984	55.78
737.166	53
737.348	55.82
737.53	55.54
737.712	57.22
737.894	55.45
738.076	57.03
738.258	59.56
738.44	61.25
738.622	62.09
738.804	59.9
738.986	56.08
739.168	57.28
739.35	54.58
739.532	56.93
739.714	55.02
739.896	54.28
740.078	53.38
740.259	51.96
740.441	53.06
740.623	55.41
740.805	56.67
740.987	58.62
741.168	59.04
741.35	61.33
741.532	58.5
741.714	58.58
741.895	60.25
742.077	63.25
742.259	66.87
742.44	66.78
742.622	65.76
742.804	66.95
742.985	67.46
743.167	69.74
743.348	67.82
743.53	65.76
743.711	68.3
743.893	68.12
744.075	65.53
744.256	63.02
744.438	58.66
744.619	57.87
744.8	57.88
744.982	54.16
745.163	51.77
745.345	48.45
745.526	56.56
745.707	55.9
745.889	55.91
746.07	54.81
746.252	56.72
746.433	56.35
746.614	54.84
746.795	55.63
746.977	56.74
747.158	57.26
747.339	62.37
747.52	56
747.702	58.27
747.883	59.12
748.064	61.64
748.245	57.52
748.426	61.33
748.607	61.18
748.788	60.79
748.97	62.91
749.151	67.68
749.332	68.73
749.513	71.41
749.694	71.19
749.875	68.88
750.056	70.03
750.237	69.35
750.418	69.82
750.599	65.89
750.78	66.42
750.96	66.23
751.141	58.74
751.322	54.42
751.503	53.57
751.684	49.17
751.865	51.96
752.046	51
752.226	53.89
752.407	52.25
752.588	52.99
752.769	50.48
752.949	47.31
753.13	46.27
753.311	50.64
753.492	48.03
753.672	51.08
753.853	48.45
754.034	48.23
754.214	47.78
754.395	53.1
754.575	57.93
754.756	57.79
754.937	63.39
755.117	66.73
755.298	63.34
755.478	64.81
755.659	63.04
755.839	63.29
756.02	63.6
756.2	63.44
756.381	55.74
756.561	51
756.741	53.47
756.922	49.47
757.102	45.68
757.283	46.99
757.463	47.11
757.643	40.34
757.823	37.65
758.004	35.38
758.184	34.06
758.364	33.47
758.545	36.98
758.725	33.54
758.905	31.32
759.085	34.77
759.265	32.99
759.446	29.81
759.626	40.47
759.806	35.01
759.986	32.66
760.166	33.48
760.346	36.42
760.526	34.01
760.706	34.99
760.886	34.15
761.066	29.56
761.246	28.9
761.426	29.89
761.606	29.45
761.786	33.76
761.966	34.03
762.146	33.06
762.326	31.49
762.506	31.42
762.686	28.61
762.866	29.32
763.046	31.78
763.225	33.48
763.405	33.82
763.585	33.31
763.765	32.94
763.945	34.97
764.124	34.62
764.304	39.47
764.484	41.69
764.664	46.32
764.843	47.82
765.023	48.97
765.203	53.12
765.382	53.76
765.562	52.2
765.741	56.35
765.921	56.14
766.101	61.49
766.28	61.52
766.46	61.54
766.639	58.14
766.819	58.36
766.998	61.96
767.178	57.77
767.357	59.82
767.537	61.3
767.716	60.16
767.896	55.71
768.075	54.78
768.254	53.03
768.434	49.13
768.613	53.28
768.792	57.1
768.972	58.58
769.151	59.38
769.33	63.02
769.51	64.35
769.689	67.71
769.868	72.83
770.047	70.82
770.226	71.23
770.406	74.55
770.585	77.01
770.764	76.61
770.943	75.01
771.122	70.52
771.301	68.32
771.48	71.03
771.66	63.53
771.839	67.57
772.018	67.82
772.197	67.56
772.376	69.85
772.555	62.76
772.734	61.87
772.913	60.99
773.092	64.17
773.271	70.43
773.449	62.83
773.628	71.85
773.807	70.86
773.986	74.16
774.165	78.06
774.344	84.67
774.523	90.39
774.701	85.21
774.88	80.45
775.059	84.82
775.238	77.51
775.417	81.72
775.595	77.86
775.774	74.43
775.953	70.07
776.131	68.81
776.31	61.76
776.489	61.88
776.667	65.07
776.846	64.03
777.025	65.1
777.203	65.85
777.382	61.63
777.56	67.94
777.739	69.12
777.917	69.4
778.096	70.67
778.274	79.21
778.453	74.39
778.631	72.99
778.81	79.42
778.988	73.55
779.166	72.23
779.345	72.04
779.523	62.6
779.702	61.05
779.88	67.5
780.058	71.31
780.237	64.59
780.415	69.1
780.593	64.54
780.771	65.65
780.95	60.35
781.128	61.71
781.306	65.97
781.484	75.26
781.662	82.52
781.841	78.64
782.019	71
782.197	67.27
782.375	69.53
782.553	78.5
782.731	81.98
782.909	96.75
783.087	88.99
783.265	77.88
783.443	68.94
783.621	55.56
783.799	54.18
783.977	58.82
784.155	67.96
784.333	59.82
784.511	57.9
784.689	58.03
784.867	59.68
785.045	63.86
785.223	63.58
785.4	59.75
785.578	64.83
785.756	73.28
785.934	71.27
786.112	65.5
786.289	72.34
786.467	70.33
786.645	66.93
786.823	67.34
787	63.67
787.178	63.73
787.356	67.46
787.533	58.9
787.711	49.38
787.889	49.52
788.066	53.88
788.244	52.71
788.421	49.81
788.599	49.66
788.776	43.43
788.954	53.04
789.131	58.77
789.309	58.83
789.486	69.49
789.664	69.41
789.841	74.1
790.019	80.07
790.196	74.95
790.373	82.03
790.551	85.32
790.728	80.21
790.906	63.53
791.083	75.3
791.26	60.52
791.437	45.53
791.615	51.89
791.792	41.21
791.969	42.22
792.146	40.42
792.324	31.88
792.501	26.47
792.678	44.42
792.855	46.6
793.032	38.36
793.209	49.32
793.387	52.13
793.564	52.87
793.741	59.69
793.918	57.23
794.095	64.63
794.272	64.82
794.449	63.08
794.626	60.82
794.803	62.54
794.98	59.66
795.157	59.67
795.334	62.54
795.511	62.88
795.688	60.86
795.864	65.06
796.041	64.36
796.218	52.94
796.395	49.04
796.572	49.77
796.749	52.05
796.925	52.05
797.102	48.69
797.279	54.63
797.456	49.38
797.632	47.54
797.809	44.22
797.986	46.13
798.162	50.46
798.339	52.89
798.516	50
798.692	50.49
798.869	51.13
799.046	53.34
799.222	50.14
799.399	54.3
799.575	59.07
799.752	57.91
799.928	56.16
800.105	62.21
800.281	64.89
800.458	70.36
800.634	76.86
800.811	81.08
800.987	86.02
801.163	83.44
801.34	81.59
801.516	66.3
801.692	58.42
801.869	59.33
802.045	59.58
802.221	60.8
802.398	60.16
802.574	53.5
802.75	50.79
802.926	44.22
803.103	43.01
803.279	49.56
803.455	54.69
803.631	48.79
803.807	53.49
803.983	54.99
804.16	57.28
804.336	57.03
804.512	58.72
804.688	59.27
804.864	58.5
805.04	60.08
805.216	59.04
805.392	60.75
805.568	83.71
805.744	66.82
805.92	60.05
806.096	58.01
806.272	57.14
806.448	47.48
806.623	46.22
806.799	53.19
806.975	55.26
807.151	49.76
807.327	50.67
807.503	35.1
807.678	36.97
807.854	31.51
808.03	29.22
808.206	19.96
808.381	30.74
808.557	35.18
808.733	22.11
808.908	29.03
809.084	26.07
809.26	25.79
809.435	39.94
809.611	33.51
809.787	45.12
809.962	42.23
810.138	43.86
810.313	21.76
810.489	9.74
810.664	13.2
810.84	-4.19
811.015	13.16
811.191	9.03
811.366	-10
811.542	8.46
811.717	15.22
811.892	13.56
812.068	21.1
812.243	35.69
812.419	60.33
812.594	39.19
812.769	48.33
812.944	24.74
813.12	23.25
813.295	43.54
813.47	34.69
813.645	5.55
813.821	15.3
813.996	23.54
814.171	30.96
814.346	38.19
814.521	43.35
814.697	43.43
814.872	44.82
815.047	50.73
815.222	33.19
815.397	48.89
815.572	67.47
815.747	63.96
815.922	64.35
816.097	59.32
816.272	54.04
816.447	52.24
816.622	45.44
816.797	39.99
816.972	34.55
817.147	35.64
817.322	28.71
817.496	18.68
817.671	12.88
817.846	10.5
818.021	17.78
818.196	9.48
818.371	18.72
818.545	17.14
818.72	17.02
818.895	19.44
819.069	20.84
819.244	18.36
819.419	23.75
819.594	21.61
819.768	28.13
819.943	25.46
820.117	27.58
820.292	24.25
820.467	27.16
820.641	28.17
820.816	28.07
820.99	27.55
821.165	28.45
821.339	29.44
821.514	31.18
821.688	28.76
821.863	29.89
822.037	29.62
822.212	30.71
822.386	30.9
822.56	31.92
822.735	34.1
822.909	35.65
823.084	37.94
823.258	35.13
823.432	33.5
823.606	37.76
823.781	39.2
823.955	40.36
824.129	40.78
824.303	40.97
824.478	42.6
824.652	41.84
824.826	40.93
825	39.02
825.174	39.47
825.348	38.4
825.523	37.43
825.697	33.38
825.871	32.65
826.045	33.09
826.219	34.08
826.393	32.42
826.567	29.53
826.741	27.79
826.915	26.7
827.089	29.45
827.263	33.45
827.437	33.05
827.611	35.55
827.784	41.38
827.958	39.32
828.132	36.77
828.306	38.28
828.48	44.81
828.654	57.11
828.827	56.56
829.001	59.87
829.175	58.77
829.349	55.43
829.522	66.56
829.696	57.11
829.87	60.4
830.044	54.13
830.217	51.48
830.391	43.5
830.565	17.59
830.738	20.06
830.912	17.42
831.085	19.53
831.259	7.28
831.432	-6.21
831.606	1.91
831.779	-3.26
831.953	9.21
832.126	16.71
832.3	22.28
832.473	28.02
832.647	30.63
832.82	29.49
832.994	29.9
833.167	33.53
833.34	32.74
833.514	32.14
833.687	40.48
833.86	41.7
834.034	36.5
834.207	34.35
834.38	36.95
834.553	37.95
834.727	40.43
834.9	37.43
835.073	41.89
835.246	32.84
835.419	29.43
835.593	11.38
835.766	2.71
835.939	-10.53
836.112	-8.06
836.285	-44.27
836.458	-33.77
836.631	-29.58
836.804	-1.1
836.977	-22.04
837.15	22.87
837.323	20.78
837.496	31.96
837.669	47.57
837.842	44.86
838.015	43.32
838.188	56.82
838.361	65.38
838.533	65.18
838.706	57.22
838.879	68.76
839.052	55.71
839.225	51.81
839.398	56.73
839.57	45.39
839.743	51.65
839.916	41.61
840.088	33.39
840.261	30.84
840.434	24.66
840.607	35.33
840.779	35.59
840.952	43.74
841.124	53.13
841.297	55.8
841.47	55.06
841.642	64.86
841.815	102.38
841.987	99.56
842.16	143.25
842.332	122.06
842.505	97.9
842.677	79.17
842.85	76.06
843.022	68.45
843.194	49.41
843.367	73.09
843.539	53.36
843.712	60.98
843.884	57.77
844.056	33.23
844.229	26.87
844.401	3.39
844.573	4.59
844.745	-19.38
844.918	-120.58
845.09	-39.55
845.262	-30.7
845.434	-54.04
845.606	-142.86
845.779	220.45
845.951	325
846.123	-547.06
846.295	606.12
846.467	-810.53
846.639	-1626.09
846.811	704.55
846.983	248.21
847.155	528.75
847.327	430.19
847.499	132.7
847.671	120.06
847.843	160
848.015	121.74
848.187	103.27
848.359	62.56
848.531	42.91
848.703	39
848.875	20.38
849.047	-212.5
849.218	-87.5
849.39	-195.06
849.562	5140
849.734	-928.57
849.905	5071.43
850.077	-385.14
850.249	-138.57
850.421	385.71
850.592	228.46
850.764	52.21
850.936	61.2
851.107	35.93
851.279	59.58
851.451	13.4
851.622	-34.08
851.794	-4.44
851.965	-48.47
852.137	9.94
852.308	466.67
852.48	104.63
852.651	-2.62
852.823	-35.71
852.994	-633.33
853.166	-850
853.337	525
853.509	-75.88
853.68	-7500
853.851	-347.78
854.023	-224.48
854.194	-184.75
854.365	-29.72
854.537	83.61
854.708	59.39
854.879	-32.14
855.05	-5.81
855.222	73.87
855.393	155.13
855.564	88.7
855.735	98.5
855.906	140.23
856.078	141.67
856.249	118.03
856.42	67.52
856.591	53.25
856.762	-968.42
856.933	-392.31
857.104	76
857.275	675
857.446	67.69
857.617	-633.33
857.788	-800
857.959	1.71
858.13	-295.92
858.301	-38.37
858.472	-26.11
858.643	-40.22
858.814	-76.22
858.985	-74.3
859.155	-250
859.326	-543.56
859.497	-208.15
859.668	-266.14
859.839	-500.89
860.009	-341.67
860.18	-232.74
860.351	-109.4
860.522	-4.42
860.692	32.5
860.863	41.5
861.034	44.44
861.204	61.14
861.375	168.99
861.546	114.13
861.716	131.97
861.887	167.29
862.057	514.71
862.228	659.52
862.398	18.73
862.569	270.59
862.739	402.27
862.91	88.04
863.08	-1557.14
863.251	666.67
863.421	328
863.592	3950
863.762	409.09
863.932	-434.15
864.103	597.78
864.273	-309.47
864.443	-197.62
864.614	-62.07
864.784	-54.3
864.954	54.32
865.125	18.91
865.295	38.87
865.465	48.25
865.635	28.26
865.805	-17.37
865.976	18.08
866.146	38.86
866.316	42.52
866.486	38.25
866.656	34.92
866.826	22.48
866.996	30.28
867.166	26.58
867.336	34.75
867.506	38.84
867.676	39.56
867.846	33.18
868.016	20.48
868.186	36.6
868.356	-18.07
868.526	-147.47
868.696	1535.29
868.866	353.73
869.036	629.63
869.206	-621.62
869.376	496.3
869.545	-532
869.715	-133.33
869.885	-11.76
870.055	49.57
870.224	20.69
870.394	161.39
870.564	320.93
870.734	310.71
870.903	145.37
871.073	195.77
871.243	186.02
871.412	138.07
871.582	103.26
871.751	-213.64
871.921	29.11
872.091	38.39
872.26	50.22
872.43	73.54
872.599	95.27
872.769	77.47
872.938	84.96
873.108	126.67
873.277	21.77
873.446	1753.85
873.616	-110.75
873.785	118.29
873.955	128.53
874.124	59.92
874.293	171.65
874.463	951.35
874.632	-217.39
874.801	-70
874.971	21.81
875.14	62.78
875.309	105.86
875.478	226.37
875.647	140.1
875.817	230.45
875.986	193.25
876.155	-47800
876.324	-343.94
876.493	-145.75
876.662	-188.44
876.831	-7.59
877	-35.22
877.17	-32.89
877.339	-20
877.508	23.78
877.677	0
877.846	-437.5
878.015	-16.67
878.184	-58.47
878.352	-533.33
878.521	138.24
878.69	28.87
878.859	55.81
879.028	78.75
879.197	53.86
879.366	41.08
879.534	22.64
879.703	28.72
879.872	16.48
880.041	14.75
880.21	27.45
880.378	31.25
880.547	24.59
880.716	23.99
880.884	18.35
881.053	21.99
881.222	23.23
881.39	20.93
881.559	21.9
881.727	23.69
881.896	16.04
882.065	6.33
882.233	0.93
882.402	2.11
882.57	-2.86
882.739	-4.21
882.907	-15.7
883.076	-32
883.244	-39.12
883.412	-56.99
883.581	-40.38
883.749	-38.88
883.918	-40.64
884.086	-40.39
884.254	-36.51
884.423	-21.65
884.591	6.59
884.759	15.25
884.927	37.53
885.096	45.08
885.264	33.98
885.432	38.81
885.6	50
885.769	32.62
885.937	52.98
886.105	27.44
886.273	24.16
886.441	3.26
886.609	10.12
886.777	-3.2
886.945	13.17
887.113	32.56
887.281	37.69
887.449	25.04
887.617	18.94
887.785	1.25
887.953	32
888.121	27.51
888.289	14.17
888.457	-5.77
888.625	-92.86
888.793	492.11
888.961	-190.63
889.129	-366.67
889.296	65.62
889.464	276.92
889.632	118.46
889.8	66.67
889.967	47.17
890.135	49.58
