Data from JASIL_3289_Reflection_1.txt Node
Date: Tue Nov 17 19:38:52 EST 2015
User: Geneva
Spectrometer: USB4E03002
Autoset integration time: false
Trigger mode: 4
Integration Time (sec): 1.000000E-1
Scans to average: 10
Electric dark correction enabled: false
Nonlinearity correction enabled: false
Boxcar width: 5
Stray light correction enabled: false
XAxis mode: Wavelengths
Stop averaging: false
Number of Pixels in Spectrum: 3648
>>>>>Begin Spectral Data<<<<<
177.575	-420.79
177.794	-383.7
178.014	-365.17
178.233	-667.92
178.452	-563.33
178.672	-312.6
178.891	-650
179.11	3960
179.33	669.57
179.549	562.75
179.768	-2427.27
179.987	254.55
180.207	193.44
180.426	355.48
180.645	375.2
180.864	2988.24
181.084	315.06
181.303	204.02
181.522	232.18
181.741	267.98
181.96	401.01
182.179	2164.71
182.398	-510.39
182.618	-144.28
182.837	-140.95
183.056	-218.03
183.275	-173.33
183.494	-71.47
183.713	-77.8
183.932	-59.75
184.151	-31.42
184.37	-17.89
184.589	-37.34
184.808	-36.18
185.027	-35.82
185.246	-64.2
185.465	-53.97
185.684	-96.34
185.903	-130.42
186.122	-195.83
186.341	-446.9
186.56	-312.5
186.779	-2488.89
186.998	-268.78
187.216	-223.33
187.435	-193.94
187.654	-124.85
187.873	-77.68
188.092	-21.15
188.311	-101.43
188.53	-42.39
188.748	-19.95
188.967	-23.91
189.186	1.6
189.405	-77.86
189.623	-110.31
189.842	-162.57
190.061	-146.44
190.28	-91.27
190.498	-145.23
190.717	-99.45
190.936	-98.08
191.154	-281.32
191.373	-677.01
191.592	1362.79
191.81	492.23
192.029	393.68
192.248	190.69
192.466	250.83
192.685	129.47
192.904	288.12
193.122	238.83
193.341	295.38
193.559	355.93
193.778	383.43
193.996	323.7
194.215	859.42
194.433	428.57
194.652	361.54
194.87	259.37
195.089	323.08
195.307	177.19
195.526	-131.63
195.744	-71.94
195.963	-232
196.181	-288.43
196.399	-605.75
196.618	684.21
196.836	458.16
197.055	452.7
197.273	579.1
197.491	551.35
197.71	339.29
197.928	257.28
198.146	254.79
198.365	945.24
198.583	665.08
198.801	-199.19
199.019	-25.29
199.238	-15.38
199.456	1.29
199.674	2.37
199.892	-10.24
200.111	-26.06
200.329	-56.18
200.547	-77.88
200.765	880.39
200.983	-288.89
201.202	475
201.42	190.36
201.638	148.64
201.856	233.76
202.074	284.67
202.292	168.93
202.51	143.24
202.728	177.78
202.946	1103.57
203.165	486.54
203.383	144.4
203.601	230.46
203.819	460.91
204.037	-1242.42
204.255	-1574.07
204.473	-250.35
204.691	-197.06
204.909	-73.89
205.127	-181.25
205.345	76.97
205.562	-18.6
205.78	70.92
205.998	106.76
206.216	114.07
206.434	131.41
206.652	130.58
206.87	197.01
207.088	115.24
207.306	-16.18
207.523	-59.73
207.741	-101.53
207.959	-169.37
208.177	-248.19
208.395	-300.98
208.612	-335.19
208.83	-236.22
209.048	-221.87
209.266	-212.71
209.483	-118.66
209.701	-111.64
209.919	-104.88
210.136	-101.45
210.354	-92.04
210.572	-118.63
210.79	-119
211.007	-216.2
211.225	-1580
211.442	338.98
211.66	1348
211.878	169.1
212.095	678.53
212.313	1037.29
212.53	509.95
212.748	444.22
212.966	340.29
213.183	422.57
213.401	-4866.67
213.618	-330.95
213.836	-273.38
214.053	-310.09
214.271	-239.42
214.488	50.89
214.705	78.66
214.923	42.14
215.14	20.37
215.358	25.08
215.575	25.53
215.793	-11.67
216.01	-128.91
216.227	-235.34
216.445	-186.11
216.662	-25.43
216.879	-77.39
217.097	-94.77
217.314	-196.11
217.531	7037.5
217.749	649.5
217.966	350
218.183	256.4
218.4	256.77
218.618	286.18
218.835	220.08
219.052	198.9
219.269	161.28
219.487	87.77
219.704	65.74
219.921	58.52
220.138	80
220.355	105.09
220.572	81.91
220.79	78.87
221.007	121.09
221.224	189.35
221.441	223.86
221.658	266.67
221.875	-1048.57
222.092	-564.77
222.309	1978.79
222.526	303.03
222.743	262.8
222.96	311.51
223.177	1416.28
223.394	857.89
223.611	433.57
223.828	236.4
224.045	168.73
224.262	125.46
224.479	113.18
224.696	166.83
224.913	342.98
225.13	295.28
225.347	244.14
225.564	110.51
225.781	51.41
225.997	52.7
226.214	56.17
226.431	61.51
226.648	60.65
226.865	47.02
227.082	40.97
227.298	44.72
227.515	44.12
227.732	39.84
227.949	37.31
228.165	39.7
228.382	39.81
228.599	36.17
228.816	32.12
229.032	28.37
229.249	31.14
229.466	31.71
229.682	30.86
229.899	24.96
230.116	39.49
230.332	41.49
230.549	37.38
230.765	22.92
230.982	21.5
231.199	17.14
231.415	6.53
231.632	6.85
231.848	-4.19
232.065	-9.14
232.281	-5.93
232.498	-6.32
232.714	-13.94
232.931	-2.8
233.147	-0.42
233.364	6.2
233.58	15.94
233.797	42.26
234.013	58.58
234.23	90.65
234.446	88.34
234.662	116.73
234.879	126.42
235.095	106.23
235.312	78.93
235.528	77.73
235.744	85.52
235.961	91.67
236.177	59.36
236.393	70.45
236.61	7.88
236.826	32.76
237.042	28.3
237.258	37.6
237.475	40.2
237.691	44.62
237.907	23.56
238.123	28.8
238.339	32.85
238.556	35.56
238.772	26.03
238.988	18.94
239.204	16.03
239.42	20.92
239.636	18.53
239.853	27.6
240.069	28.7
240.285	32.92
240.501	31.04
240.717	27.03
240.933	25.87
241.149	24.84
241.365	27.4
241.581	25.63
241.797	24.99
242.013	25.88
242.229	21.83
242.445	12.34
242.661	11.15
242.877	11.23
243.093	15.65
243.309	11.75
243.525	13.47
243.741	18.76
243.957	18.26
244.173	17.09
244.388	17.33
244.604	16.22
244.82	22
245.036	22.81
245.252	20.75
245.468	18.92
245.683	19.77
245.899	16.51
246.115	14.06
246.331	13.5
246.547	13.33
246.762	11.09
246.978	10.55
247.194	9.09
247.409	6.28
247.625	5.57
247.841	5.36
248.057	7.13
248.272	8.04
248.488	4.97
248.703	3.04
248.919	3.6
249.135	6.73
249.35	6.28
249.566	7.85
249.782	13.12
249.997	14.02
250.213	15.5
250.428	12.24
250.644	14.6
250.859	14.96
251.075	15
251.29	12.32
251.506	11.44
251.721	13.15
251.937	9.58
252.152	5.36
252.368	1.04
252.583	-3.79
252.798	-4.96
253.014	-8.4
253.229	-10.02
253.445	-7.33
253.66	-8.62
253.875	-9.96
254.091	-13.01
254.306	-14.61
254.521	-21.71
254.737	-13.01
254.952	-16.82
255.167	-17.07
255.383	-18.72
255.598	-9.6
255.813	-11.69
256.028	-15.59
256.244	-9.13
256.459	-2.84
256.674	5.32
256.889	11.44
257.104	8.94
257.32	15.08
257.535	13.73
257.75	13.42
257.965	8.86
258.18	9.02
258.395	8.94
258.61	9.81
258.826	7.72
259.041	7.87
259.256	6.37
259.471	5.72
259.686	3.77
259.901	4.72
260.116	5.04
260.331	8.75
260.546	9.56
260.761	12.56
260.976	9.75
261.191	11.03
261.406	9.07
261.621	10.05
261.836	14.17
262.05	16.73
262.265	19.69
262.48	19.52
262.695	15.12
262.91	13.23
263.125	8.13
263.34	8.38
263.555	3.35
263.769	1.19
263.984	-2.38
264.199	-1.86
264.414	0.24
264.629	-3.55
264.843	3.39
265.058	4.46
265.273	2.27
265.488	6.55
265.702	10.38
265.917	14.99
266.132	14.86
266.346	18
266.561	17.07
266.776	14.08
266.99	11.96
267.205	10.66
267.42	5.76
267.634	6.68
267.849	8.11
268.063	3.21
268.278	1.27
268.492	2.8
268.707	2.41
268.922	2.76
269.136	4.64
269.351	6.67
269.565	8.66
269.78	10.14
269.994	11.86
270.209	7.44
270.423	9.7
270.637	8.63
270.852	8.7
271.066	7.77
271.281	8.13
271.495	6.53
271.709	8.31
271.924	7.84
272.138	9.9
272.353	9.68
272.567	13.64
272.781	12.14
272.996	10.95
273.21	9.79
273.424	11.7
273.638	9.75
273.853	12.97
274.067	11.03
274.281	8.02
274.495	8.84
274.71	11.95
274.924	8.57
275.138	11.71
275.352	14.3
275.566	14.79
275.781	12.98
275.995	13.75
276.209	10.72
276.423	9.47
276.637	8.46
276.851	7.47
277.065	4.29
277.279	3.66
277.493	1.91
277.707	0.46
277.921	-0.24
278.135	2.24
278.349	0.98
278.563	2.2
278.777	3.8
278.991	6.34
279.205	8.29
279.419	6.62
279.633	8.78
279.847	9.75
280.061	9.78
280.275	11.22
280.489	8.07
280.703	9.75
280.917	10.13
281.131	10.97
281.344	12.22
281.558	9.31
281.772	7.96
281.986	7.34
282.2	5.71
282.414	5.43
282.627	6.47
282.841	7.89
283.055	4.19
283.269	4.8
283.482	4
283.696	2.37
283.91	3.65
284.123	4.89
284.337	5.65
284.551	6.8
284.764	5.87
284.978	4.87
285.192	4.91
285.405	7.37
285.619	6.54
285.833	7.78
286.046	8.76
286.26	8.51
286.473	9.31
286.687	8.5
286.9	9.81
287.114	11.98
287.327	11.53
287.541	10.86
287.754	11.27
287.968	12.47
288.181	12.59
288.395	12.38
288.608	12.38
288.822	12.17
289.035	12.9
289.248	12.72
289.462	12.74
289.675	13.04
289.889	13.22
290.102	13.04
290.315	11.33
290.529	11.05
290.742	9.55
290.955	11.8
291.169	11.03
291.382	9.8
291.595	9.71
291.808	10.66
292.022	9.93
292.235	10.97
292.448	11.61
292.661	13.31
292.875	12.61
293.088	13.07
293.301	10.05
293.514	9.64
293.727	9.84
293.94	8.39
294.153	6.7
294.367	7.46
294.58	5.57
294.793	4.45
295.006	3.84
295.219	3.04
295.432	2.37
295.645	3.92
295.858	6.5
296.071	6.36
296.284	5.67
296.497	6.61
296.71	8.39
296.923	8.81
297.136	8.63
297.349	8.95
297.562	9.82
297.775	10.02
297.988	8.85
298.201	7.08
298.414	7.82
298.626	7.98
298.839	6.51
299.052	5.72
299.265	6.87
299.478	7.93
299.691	6.62
299.903	4.9
300.116	4.65
300.329	3.87
300.542	5.59
300.755	6.08
300.967	6.86
301.18	9.56
301.393	8.48
301.605	7.61
301.818	6.69
302.031	7.88
302.243	9.33
302.456	11.22
302.669	12.65
302.881	11.03
303.094	10.6
303.307	10.41
303.519	8.74
303.732	8.88
303.944	9.33
304.157	11.17
304.37	11.55
304.582	11.86
304.795	11.12
305.007	11.65
305.22	10.96
305.432	9.53
305.645	10.27
305.857	9.93
306.069	8.63
306.282	8.62
306.494	7.35
306.707	7.2
306.919	6.65
307.132	7.06
307.344	5.83
307.556	5.46
307.769	4.54
307.981	4.85
308.193	3.94
308.406	3.51
308.618	2.97
308.83	2.4
309.043	2.86
309.255	3.66
309.467	3.23
309.679	1.56
309.892	4.05
310.104	6.01
310.316	6.85
310.528	8.64
310.74	8.71
310.953	9.95
311.165	10.69
311.377	11.83
311.589	12.56
311.801	12.21
312.013	13.68
312.225	11.95
312.437	11.33
312.649	9.82
312.862	9.25
313.074	11.68
313.286	10.63
313.498	10.29
313.71	7.4
313.922	6.33
314.134	7.09
314.346	8.6
314.558	8.66
314.77	8.87
314.982	9.18
315.193	8.92
315.405	7.69
315.617	7
315.829	6.76
316.041	8.76
316.253	7.08
316.465	8.62
316.677	8.45
316.888	10.46
317.1	9
317.312	11.47
317.524	12.79
317.736	13.47
317.947	16.28
318.159	17.14
318.371	17.66
318.583	16.6
318.794	15.3
319.006	15.09
319.218	14.08
319.43	15.42
319.641	13.38
319.853	14.31
320.064	14.13
320.276	13.23
320.488	12.43
320.699	10.69
320.911	12.82
321.123	13.61
321.334	12.86
321.546	12.7
321.757	12.72
321.969	13.5
322.18	12.02
322.392	12.32
322.603	12.02
322.815	12.36
323.026	12.05
323.238	12.4
323.449	11.66
323.661	12.72
323.872	10.77
324.083	11.52
324.295	11.53
324.506	11.49
324.718	10.24
324.929	11.07
325.14	13.09
325.352	14.17
325.563	14.12
325.774	14.18
325.986	13.78
326.197	15.61
326.408	15.3
326.62	15.3
326.831	16.69
327.042	18.24
327.253	18.96
327.464	18.57
327.676	18.99
327.887	20.02
328.098	21.18
328.309	20.64
328.52	21.44
328.732	22.11
328.943	21.21
329.154	20.21
329.365	20.09
329.576	18.77
329.787	18.98
329.998	18.71
330.209	19.36
330.42	18.78
330.631	18.24
330.842	17.66
331.053	18.45
331.264	17.77
331.475	18.03
331.686	18.37
331.897	17.39
332.108	16.05
332.319	16.1
332.53	13.67
332.741	13.99
332.952	14.36
333.163	14.25
333.374	14.18
333.585	15.46
333.795	15.55
334.006	14.73
334.217	16.79
334.428	16.2
334.639	15.7
334.849	16.93
335.06	16.85
335.271	18.25
335.482	19.02
335.692	18.43
335.903	15.9
336.114	16.85
336.325	15.92
336.535	14.38
336.746	14.93
336.957	13.98
337.167	12.38
337.378	13.11
337.589	14.52
337.799	12.05
338.01	11.8
338.22	14.63
338.431	13.88
338.642	15.44
338.852	16.35
339.063	15.22
339.273	16.17
339.484	17.14
339.694	16.32
339.905	13.99
340.115	16.54
340.326	16
340.536	14.7
340.746	14.55
340.957	14.48
341.167	14.01
341.378	15.34
341.588	15.53
341.799	15.72
342.009	14.64
342.219	14.42
342.43	14.62
342.64	14.92
342.85	16.02
343.061	15.63
343.271	15.96
343.481	16.05
343.691	16.46
343.902	16.34
344.112	17.19
344.322	17.91
344.532	18.45
344.743	18.2
344.953	19
345.163	17.07
345.373	17.61
345.583	16.3
345.793	17.62
346.004	17.94
346.214	17.92
346.424	16.47
346.634	16.89
346.844	17.81
347.054	16.87
347.264	16.01
347.474	16.14
347.684	16.68
347.894	16.91
348.104	14.79
348.314	14.29
348.524	13.6
348.734	15.31
348.944	14.88
349.154	14.83
349.364	14.4
349.574	13.78
349.784	15.91
349.994	15.46
350.204	15.93
350.413	16.03
350.623	15.76
350.833	17.08
351.043	16.61
351.253	16.65
351.463	15.16
351.672	16.34
351.882	17.42
352.092	15.58
352.302	15.12
352.511	15.31
352.721	15.32
352.931	14.42
353.141	13.29
353.35	12.09
353.56	11.37
353.77	11.96
353.979	11.61
354.189	11.6
354.399	12.93
354.608	12.85
354.818	12.62
355.027	12.76
355.237	13.78
355.447	14.79
355.656	15.17
355.866	15.84
356.075	15.7
356.285	15.38
356.494	15.31
356.704	15.54
356.913	15.59
357.123	15.16
357.332	15.82
357.542	15.56
357.751	15.5
357.96	15.41
358.17	15.75
358.379	14.69
358.589	14.5
358.798	14.81
359.007	15.55
359.217	16.65
359.426	16.67
359.635	16.59
359.845	16.71
360.054	15.46
360.263	15.7
360.472	15.86
360.682	17.14
360.891	17.44
361.1	17.02
361.309	17
361.519	15.38
361.728	15.18
361.937	14.99
362.146	14.74
362.355	15.65
362.564	15.34
362.774	14.72
362.983	14.41
363.192	14.27
363.401	14.93
363.61	13.9
363.819	14.88
364.028	14.75
364.237	14.28
364.446	14.45
364.655	14.34
364.864	14.88
365.073	14.43
365.282	13.86
365.491	14.19
365.7	14.77
365.909	13.2
366.118	12.9
366.327	12.88
366.536	12.61
366.745	12.09
366.954	12.91
367.162	12.06
367.371	12.12
367.58	12.59
367.789	12.98
367.998	11.68
368.207	13.1
368.415	13.76
368.624	14.13
368.833	15.39
369.042	15.62
369.25	14.9
369.459	15.69
369.668	16.38
369.877	16.4
370.085	16.39
370.294	16.34
370.503	17.29
370.711	15.95
370.92	15.67
371.129	14.99
371.337	14.9
371.546	14.39
371.754	13.54
371.963	14.28
372.171	13.69
372.38	12.76
372.589	12.49
372.797	12.1
373.006	13.63
373.214	13.68
373.423	13.45
373.631	12.98
373.84	12.52
374.048	13.18
374.256	12.46
374.465	13.05
374.673	13.24
374.882	12.7
375.09	12.73
375.298	12.12
375.507	11.55
375.715	11.35
375.923	12.06
376.132	12.72
376.34	11.93
376.548	10.97
376.757	10.49
376.965	10.37
377.173	11.46
377.381	10.64
377.59	10.82
377.798	11.28
378.006	11.14
378.214	11.39
378.423	10.94
378.631	10.49
378.839	11.76
379.047	12.94
379.255	13.53
379.463	13.13
379.671	13.53
379.879	13.08
380.088	12.87
380.296	14.01
380.504	13.56
380.712	13.53
380.92	14.04
381.128	14.37
381.336	13.83
381.544	12.83
381.752	13.05
381.96	12.74
382.168	11.89
382.376	12.88
382.584	12.36
382.791	12.31
382.999	12.21
383.207	12.79
383.415	12.49
383.623	12.56
383.831	12.97
384.039	12.64
384.247	12.98
384.454	13.96
384.662	13.9
384.87	14.11
385.078	14.15
385.285	13.95
385.493	14.55
385.701	14.84
385.909	14.41
386.116	14.4
386.324	14.73
386.532	14.15
386.739	14.18
386.947	13.41
387.155	12.4
387.362	11.94
387.57	12.07
387.778	10.48
387.985	8.64
388.193	9.28
388.4	9.27
388.608	9.52
388.816	10.31
389.023	11.31
389.231	12.32
389.438	12.88
389.646	13.81
389.853	14.32
390.061	15.14
390.268	15.39
390.475	14.64
390.683	14.57
390.89	14.31
391.098	13.74
391.305	12.25
391.512	11.75
391.72	11.49
391.927	11.18
392.135	11.16
392.342	11.18
392.549	11.4
392.756	11.1
392.964	10.84
393.171	11.52
393.378	11.4
393.586	11.75
393.793	11.65
394	11.87
394.207	11.97
394.414	11.64
394.622	11.72
394.829	12.22
395.036	12.18
395.243	12.17
395.45	11.98
395.657	11.42
395.864	11.64
396.072	12.24
396.279	12.14
396.486	11.86
396.693	11.94
396.9	11.53
397.107	11.46
397.314	11.52
397.521	11.53
397.728	10.8
397.935	11.68
398.142	11.93
398.349	10.84
398.556	10.51
398.763	10.4
398.97	10.7
399.177	11.08
399.383	11.38
399.59	11.97
399.797	12.1
400.004	12.48
400.211	12.07
400.418	11.35
400.625	11.98
400.831	12.59
401.038	12.63
401.245	12.07
401.452	11.68
401.658	11.55
401.865	11.34
402.072	11.37
402.279	11.44
402.485	11.6
402.692	12.14
402.899	11.19
403.105	10.95
403.312	11.04
403.519	11.55
403.725	11.18
403.932	10.59
404.138	11.03
404.345	10.66
404.552	10.29
404.758	11.34
404.965	10.73
405.171	11.15
405.378	12.09
405.584	12.45
405.791	11.95
405.997	12.07
406.204	12.83
406.41	12.5
406.617	12.45
406.823	11.92
407.029	11.04
407.236	11.34
407.442	11.4
407.649	10.05
407.855	9.86
408.061	10.18
408.268	10.03
408.474	9.3
408.68	9.06
408.887	9.86
409.093	10.43
409.299	10.27
409.505	9.91
409.712	10.42
409.918	10.62
410.124	9.98
410.33	9.56
410.537	10.05
410.743	10.07
410.949	10.68
411.155	10.38
411.361	10.35
411.567	10.38
411.773	11.09
411.98	10.47
412.186	11.28
412.392	11.64
412.598	11.51
412.804	10.84
413.01	11.55
413.216	11.2
413.422	10.99
413.628	10.7
413.834	10.48
414.04	9.95
414.246	10.35
414.452	9.63
414.658	9.28
414.864	9.86
415.07	10.27
415.275	9.64
415.481	9.41
415.687	9.54
415.893	9.19
416.099	9.61
416.305	9.84
416.511	9.72
416.716	9.64
416.922	10.43
417.128	9.97
417.334	10.05
417.539	10.39
417.745	10.86
417.951	10.76
418.157	11.47
418.362	11.32
418.568	10.98
418.774	10.98
418.979	11.03
419.185	10.37
419.391	10.73
419.596	10.71
419.802	10.6
420.008	9.98
420.213	10.24
420.419	9.86
420.624	10.02
420.83	10.39
421.035	10.4
421.241	10.73
421.446	10.95
421.652	10.82
421.857	10.6
422.063	10.45
422.268	10.85
422.474	10.4
422.679	10.37
422.885	10.03
423.09	9.75
423.295	9.67
423.501	9.27
423.706	9.23
423.911	9.19
424.117	9.4
424.322	9.71
424.527	9.31
424.733	9.57
424.938	9.41
425.143	9.31
425.349	9.09
425.554	9.08
425.759	9.39
425.964	9.33
426.169	9.31
426.375	9.89
426.58	9.69
426.785	10.2
426.99	10.29
427.195	10.29
427.4	10.96
427.605	11.79
427.811	12.14
428.016	11.98
428.221	12.76
428.426	13.22
428.631	12.27
428.836	11.9
429.041	11.82
429.246	11.72
429.451	12.07
429.656	11.57
429.861	11.27
430.066	11.14
430.271	11.29
430.476	10.7
430.681	10.31
430.886	10.35
431.09	10.12
431.295	10.16
431.5	10.22
431.705	10.54
431.91	10.94
432.115	10.65
432.32	10.26
432.524	9.92
432.729	10.08
432.934	10.05
433.139	9.97
433.343	10.27
433.548	10.07
433.753	9.61
433.958	9.2
434.162	9.03
434.367	9.35
434.572	9.54
434.776	9.95
434.981	9.61
435.186	9.41
435.39	9.79
435.595	9.94
435.799	10.07
436.004	10.41
436.209	10.95
436.413	10.75
436.618	10.24
436.822	10.44
437.027	10.72
437.231	10.98
437.436	11.26
437.64	11.36
437.845	11.42
438.049	11.23
438.253	10.88
438.458	10.55
438.662	10.95
438.867	11.45
439.071	11.52
439.275	11.28
439.48	11.19
439.684	11.34
439.888	11.36
440.093	11.11
440.297	11.25
440.501	11.47
440.706	11.59
440.91	11.16
441.114	11
441.318	10.96
441.523	10.79
441.727	10.71
441.931	10.77
442.135	10.76
442.339	10.83
442.543	10.87
442.748	11.15
442.952	10.69
443.156	10.74
443.36	10.92
443.564	10.62
443.768	10.85
443.972	11.43
444.176	10.97
444.38	10.84
444.584	10.87
444.788	10.63
444.992	10.36
445.196	10.4
445.4	10.52
445.604	10.26
445.808	10.25
446.012	9.94
446.216	9.3
446.42	9.17
446.624	9.21
446.828	9.27
447.032	9.3
447.235	9.43
447.439	9.21
447.643	9.05
447.847	9.31
448.051	9.61
448.254	9.83
448.458	10.06
448.662	10.19
448.866	10.1
449.069	9.94
449.273	9.82
449.477	9.71
449.681	10.49
449.884	10.49
450.088	9.98
450.292	9.64
450.495	9.68
450.699	9.53
450.902	9.94
451.106	9.8
451.31	10.07
451.513	10.43
451.717	10.35
451.92	10.04
452.124	10.21
452.327	10.47
452.531	10.75
452.734	10.39
452.938	10.54
453.141	10.3
453.345	10.44
453.548	10.44
453.752	10.15
453.955	10.33
454.158	10.22
454.362	10.15
454.565	10.1
454.769	9.96
454.972	10.35
455.175	10.36
455.379	10.82
455.582	10.91
455.785	10.79
455.988	10.83
456.192	10.73
456.395	10.71
456.598	10.7
456.801	10.88
457.005	10.96
457.208	10.43
457.411	10.26
457.614	9.9
457.817	9.73
458.021	9.49
458.224	9.19
458.427	9.29
458.63	9.28
458.833	9.61
459.036	9.44
459.239	9.19
459.442	9.23
459.645	9.24
459.848	9.05
460.051	9.09
460.254	9.2
460.457	9.59
460.66	9.87
460.863	9.96
461.066	9.78
461.269	9.97
461.472	10.25
461.675	10.73
461.878	10.88
462.081	10.99
462.284	10.87
462.486	10.62
462.689	10.3
462.892	10.01
463.095	10.31
463.298	10.17
463.5	10.27
463.703	10.22
463.906	9.77
464.109	9.98
464.311	10.5
464.514	10.66
464.717	10.59
464.92	11.24
465.122	11.05
465.325	10.75
465.528	10.63
465.73	10.32
465.933	9.96
466.135	9.92
466.338	9.25
466.541	8.85
466.743	8.8
466.946	8.97
467.148	8.91
467.351	9.03
467.553	9.27
467.756	9.36
467.958	9.89
468.161	10.01
468.363	10.23
468.566	10.73
468.768	10.71
468.971	10.75
469.173	11.08
469.375	10.66
469.578	10.35
469.78	10.04
469.983	10.02
470.185	9.75
470.387	10.16
470.59	10.12
470.792	10.07
470.994	10.15
471.196	10.12
471.399	9.57
471.601	9.8
471.803	9.9
472.005	10.05
472.208	10.26
472.41	10.02
472.612	10
472.814	10.1
473.016	9.97
473.218	9.67
473.421	9.62
473.623	9.96
473.825	9.92
474.027	10.32
474.229	10.5
474.431	10
474.633	10.26
474.835	9.84
475.037	9.79
475.239	10.16
475.441	10.45
475.643	10.62
475.845	10.67
476.047	10.37
476.249	9.87
476.451	9.43
476.653	9.55
476.855	9.52
477.057	9.93
477.258	9.54
477.46	9.2
477.662	9.01
477.864	9.04
478.066	9.12
478.268	9.61
478.469	9.95
478.671	9.74
478.873	9.73
479.075	9.48
479.276	9.33
479.478	9.31
479.68	9.4
479.882	9.37
480.083	9.2
480.285	9.18
480.487	9.05
480.688	9.22
480.89	9.56
481.091	9.57
481.293	9.55
481.495	9.39
481.696	9.53
481.898	9.51
482.099	9.52
482.301	9.34
482.502	9.2
482.704	9.13
482.905	9.01
483.107	9.01
483.308	8.86
483.51	8.85
483.711	8.81
483.913	8.83
484.114	8.78
484.315	8.77
484.517	8.87
484.718	9.03
484.92	9.08
485.121	8.96
485.322	8.96
485.524	9.19
485.725	9.36
485.926	9.5
486.127	9.37
486.329	9.41
486.53	9.32
486.731	9.38
486.932	9.25
487.134	9.15
487.335	9.17
487.536	9.15
487.737	9.16
487.938	9.17
488.139	9.2
488.341	9.27
488.542	9.33
488.743	9.52
488.944	9.49
489.145	9.42
489.346	9.62
489.547	9.76
489.748	9.76
489.949	9.62
490.15	9.31
490.351	9.18
490.552	9.14
490.753	9.06
490.954	9.06
491.155	9.02
491.356	9.15
491.557	9
491.758	9.01
491.959	8.93
492.159	9.07
492.36	9.27
492.561	9.28
492.762	9.33
492.963	9.12
493.164	9.15
493.364	9.26
493.565	9.11
493.766	9.09
493.967	8.95
494.167	8.99
494.368	8.7
494.569	8.64
494.769	8.79
494.97	8.89
495.171	9.34
495.371	9
495.572	9.11
495.773	9.13
495.973	9.25
496.174	9.32
496.375	9.51
496.575	9.71
496.776	9.75
496.976	9.55
497.177	9.48
497.377	9.31
497.578	9.51
497.778	9.52
497.979	9.74
498.179	9.79
498.38	9.89
498.58	9.72
498.78	9.71
498.981	9.62
499.181	9.79
499.382	9.8
499.582	10.08
499.782	10.35
499.983	10.17
500.183	9.92
500.383	10.05
500.584	10.1
500.784	10.14
500.984	9.9
501.184	10.05
501.385	10.08
501.585	10.29
501.785	10.13
501.985	10.14
502.185	10.3
502.386	10.63
502.586	10.79
502.786	10.69
502.986	10.51
503.186	10.73
503.386	11.01
503.586	11.21
503.786	11.18
503.987	11.36
504.187	11.06
504.387	10.96
504.587	10.67
504.787	10.63
504.987	10.75
505.187	10.92
505.387	10.88
505.587	10.68
505.786	10.26
505.986	10.44
506.186	10.18
506.386	10.44
506.586	10.31
506.786	10.47
506.986	10.44
507.186	10.27
507.386	10.36
507.585	10.56
507.785	10.63
507.985	10.82
508.185	10.69
508.384	11.1
508.584	11.12
508.784	11.36
508.984	11.36
509.183	11.26
509.383	11.41
509.583	11.51
509.782	11.5
509.982	11.47
510.182	11.62
510.381	11.6
510.581	11.44
510.781	11.53
510.98	11.58
511.18	11.75
511.379	11.6
511.579	11.48
511.778	11.85
511.978	12.06
512.177	12.14
512.377	11.99
512.576	11.94
512.776	11.76
512.975	11.58
513.175	11.56
513.374	11.57
513.573	11.86
513.773	12.12
513.972	11.88
514.172	11.85
514.371	11.55
514.57	12
514.77	12.37
514.969	12.39
515.168	12.58
515.367	12.7
515.567	12.79
515.766	12.8
515.965	12.84
516.164	12.77
516.364	12.58
516.563	12.65
516.762	12.49
516.961	12.42
517.16	12.68
517.359	12.57
517.559	12.44
517.758	12.52
517.957	12.49
518.156	12.42
518.355	12.62
518.554	12.71
518.753	12.8
518.952	12.79
519.151	12.79
519.35	12.94
519.549	13.14
519.748	13.29
519.947	13
520.146	13.05
520.345	13.26
520.544	12.91
520.743	13.14
520.942	13.36
521.141	13.44
521.339	13.39
521.538	13.52
521.737	13.55
521.936	13.49
522.135	13.78
522.333	14.15
522.532	14.15
522.731	14.34
522.93	14.18
523.129	14.45
523.327	14.63
523.526	14.66
523.725	14.33
523.923	14.56
524.122	14.6
524.321	14.63
524.519	14.46
524.718	14.36
524.917	14.47
525.115	14.5
525.314	14.36
525.512	14.35
525.711	14.33
525.909	14.31
526.108	14.17
526.306	14.31
526.505	14.38
526.703	14.21
526.902	14.21
527.1	14.17
527.299	14.11
527.497	14.12
527.696	14.12
527.894	14.1
528.092	14.11
528.291	14.2
528.489	14.24
528.688	14.23
528.886	14.35
529.084	14.44
529.283	14.52
529.481	14.67
529.679	14.86
529.877	15.03
530.076	15.29
530.274	15.61
530.472	15.51
530.67	15.7
530.869	15.83
531.067	16.07
531.265	16.08
531.463	16.16
531.661	16.26
531.859	16.35
532.057	16.36
532.255	16.47
532.454	16.41
532.652	16.49
532.85	16.31
533.048	16.26
533.246	16.29
533.444	16.43
533.642	16.52
533.84	16.73
534.038	16.51
534.236	16.38
534.434	16.5
534.632	16.57
534.83	16.67
535.027	16.92
535.225	17.1
535.423	17.22
535.621	17.27
535.819	17.21
536.017	17.13
536.215	17.31
536.412	17.4
536.61	17.14
536.808	17.32
537.006	17.44
537.203	17.4
537.401	17.5
537.599	17.43
537.797	17.4
537.994	17.41
538.192	17.52
538.39	17.54
538.587	17.91
538.785	17.97
538.983	17.91
539.18	18.17
539.378	18.12
539.575	18.1
539.773	18.13
539.97	18.23
540.168	18.4
540.366	18.42
540.563	18.34
540.761	18.34
540.958	18.33
541.155	18.42
541.353	18.31
541.55	18.45
541.748	18.51
541.945	18.64
542.143	18.7
542.34	18.81
542.537	18.83
542.735	19.04
542.932	18.93
543.129	19.22
543.327	19.15
543.524	19.08
543.721	19.13
543.919	19.1
544.116	19.02
544.313	19.08
544.51	19
544.708	19.33
544.905	19.44
545.102	19.54
545.299	19.68
545.496	19.98
545.693	20.25
545.891	20.36
546.088	20.5
546.285	20.66
546.482	20.79
546.679	20.86
546.876	20.45
547.073	20.64
547.27	21
547.467	21.19
547.664	21.32
547.861	21.45
548.058	21.74
548.255	21.98
548.452	22.05
548.649	22.3
548.846	22.58
549.043	23
549.24	23.3
549.437	22.96
549.633	22.57
549.83	22.75
550.027	22.79
550.224	22.53
550.421	22.3
550.618	22.55
550.814	22.58
551.011	22.45
551.208	22.83
551.405	22.63
551.601	22.69
551.798	22.56
551.995	22.33
552.191	22.21
552.388	22.54
552.585	23.13
552.781	22.91
552.978	22.85
553.175	22.96
553.371	22.63
553.568	22.62
553.764	23.24
553.961	24.05
554.157	24.22
554.354	24.31
554.55	24.26
554.747	24.17
554.943	24.54
555.14	24.82
555.336	24.9
555.533	24.87
555.729	24.98
555.926	24.69
556.122	24.39
556.318	24.86
556.515	25.34
556.711	25.48
556.907	25.18
557.104	25.52
557.3	26.03
557.496	26.32
557.693	26.65
557.889	26.52
558.085	26.5
558.281	26.51
558.478	26.08
558.674	26.3
558.87	26.46
559.066	27.04
559.262	26.93
559.459	26.21
559.655	26.14
559.851	25.83
560.047	25.97
560.243	25.81
560.439	25.96
560.635	26.19
560.831	26.28
561.027	26.47
561.223	26.64
561.419	26.62
561.615	26.76
561.811	26.66
562.007	27.19
562.203	27.65
562.399	28.3
562.595	28.25
562.791	28.61
562.987	28.17
563.183	27.83
563.379	27.28
563.575	27.34
563.771	27.86
563.966	27.97
564.162	27.86
564.358	27.84
564.554	27.18
564.75	27.25
564.945	27.09
565.141	27.67
565.337	27.92
565.533	28.05
565.728	27.92
565.924	27.86
566.12	28.13
566.315	28.28
566.511	28.26
566.707	29.33
566.902	29.58
567.098	29.6
567.293	29.08
567.489	29.19
567.684	29.36
567.88	29.54
568.076	29.38
568.271	29.53
568.467	29.7
568.662	29.44
568.858	29.23
569.053	29.1
569.248	29.33
569.444	29.68
569.639	29.79
569.835	29.94
570.03	29.83
570.225	29.94
570.421	29.89
570.616	30.07
570.812	30.71
571.007	30.57
571.202	30.99
571.397	30.65
571.593	30.51
571.788	30.7
571.983	30.53
572.178	30.79
572.374	30.77
572.569	30.87
572.764	30.8
572.959	30.63
573.154	30.58
573.35	30.74
573.545	31.15
573.74	31.44
573.935	31.04
574.13	31.42
574.325	31.75
574.52	31.67
574.715	31.82
574.91	31.96
575.105	32.5
575.3	32.71
575.495	32.69
575.69	33.01
575.885	33.03
576.08	33.46
576.275	33.48
576.47	33.46
576.665	33.9
576.86	33.66
577.055	33.95
577.25	33.29
577.444	33.52
577.639	33.31
577.834	33.26
578.029	33.51
578.224	33.69
578.418	33.68
578.613	33.69
578.808	33.44
579.003	33.84
579.197	33.53
579.392	33.65
579.587	33.67
579.781	34.07
579.976	33.82
580.171	33.77
580.365	33.57
580.56	33.57
580.755	33.7
580.949	33.42
581.144	33.49
581.338	33.37
581.533	33.37
581.727	33.69
581.922	33.44
582.116	33.61
582.311	33.82
582.505	34.1
582.7	34.21
582.894	34.49
583.089	35.18
583.283	35.04
583.478	35.47
583.672	35.53
583.866	34.93
584.061	35.17
584.255	35.2
584.449	35.64
584.644	35.55
584.838	35.84
585.032	35.91
585.226	35.75
585.421	35.51
585.615	35.77
585.809	35.94
586.003	36.37
586.198	36.84
586.392	36.98
586.586	36.61
586.78	36.88
586.974	36.51
587.168	36.45
587.363	36.62
587.557	37.09
587.751	36.72
587.945	37.01
588.139	36.64
588.333	36.07
588.527	35.9
588.721	35.78
588.915	35.48
589.109	36.05
589.303	35.94
589.497	36.5
589.691	36.22
589.885	36.27
590.079	35.96
590.273	36.39
590.466	36.54
590.66	37.02
590.854	37.3
591.048	37.44
591.242	37.75
591.436	38
591.629	37.55
591.823	37.66
592.017	38.14
592.211	38.6
592.404	38.46
592.598	38.44
592.792	38.38
592.986	37.75
593.179	37.93
593.373	37.29
593.567	36.76
593.76	36.95
593.954	37.04
594.147	36.67
594.341	35.97
594.535	36.43
594.728	36.72
594.922	36.33
595.115	36.6
595.309	36.55
595.502	36.82
595.696	37.22
595.889	37.01
596.083	36.98
596.276	37.31
596.47	37.92
596.663	37.6
596.856	37.31
597.05	37.94
597.243	38.08
597.437	38.55
597.63	38.61
597.823	38.56
598.017	39.06
598.21	38.64
598.403	38.64
598.596	38.7
598.79	39.58
598.983	39.99
599.176	39.43
599.369	39.67
599.563	39.7
599.756	39.92
599.949	39.81
600.142	39.34
600.335	39.93
600.528	39.99
600.722	39.85
600.915	39.06
601.108	38.82
601.301	39.02
601.494	39.12
601.687	38.32
601.88	37.96
602.073	37.94
602.266	38.25
602.459	38.53
602.652	38.2
602.845	38.23
603.038	38.3
603.231	38.23
603.424	38.57
603.617	38.41
603.809	38.67
604.002	38.73
604.195	38.9
604.388	38.51
604.581	38.55
604.774	38.72
604.966	38.96
605.159	39.25
605.352	39.81
605.545	39.47
605.737	39.68
605.93	40.32
606.123	39.48
606.316	39.62
606.508	40.14
606.701	40.01
606.894	39.75
607.086	39.68
607.279	39.77
607.471	39.54
607.664	39.41
607.857	39.7
608.049	39.11
608.242	39.93
608.434	40.22
608.627	40.67
608.819	40.81
609.012	41.24
609.204	41.13
609.397	40.89
609.589	41.02
609.782	41.22
609.974	41.05
610.166	41.38
610.359	41.34
610.551	41.36
610.743	40.91
610.936	40.76
611.128	40.88
611.32	40.67
611.513	41.16
611.705	41.63
611.897	41.84
612.09	42.03
612.282	42.21
612.474	43.18
612.666	42.93
612.858	43.06
613.051	42.93
613.243	42.44
613.435	42.75
613.627	42.29
613.819	42
614.011	41.92
614.203	41.73
614.395	41.57
614.588	41.26
614.78	41.65
614.972	42.52
615.164	42.81
615.356	44.1
615.548	44.21
615.74	44.26
615.932	43.95
616.124	44.56
616.315	44.61
616.507	44.94
616.699	45.02
616.891	45.19
617.083	44.64
617.275	45.48
617.467	44.82
617.659	45.03
617.85	45.41
618.042	46.24
618.234	46.31
618.426	46.21
618.618	45.83
618.809	45.69
619.001	45.62
619.193	45.34
619.384	44.63
619.576	44.71
619.768	44.52
619.959	44.72
620.151	44.12
620.343	43.64
620.534	43.56
620.726	43.85
620.917	44.11
621.109	43.56
621.301	43.64
621.492	44.11
621.684	44.55
621.875	44.68
622.067	44
622.258	44.15
622.45	44.38
622.641	44.5
622.832	44.83
623.024	43.93
623.215	43.8
623.407	43.57
623.598	43.29
623.789	42.54
623.981	42.67
624.172	43.07
624.363	42.8
624.555	42.52
624.746	42.23
624.937	42.06
625.129	42.56
625.32	43
625.511	43.22
625.702	42.65
625.893	42.93
626.085	42.89
626.276	42.86
626.467	42.92
626.658	42.94
626.849	43.54
627.04	43.77
627.231	44.3
627.422	44.39
627.614	44.59
627.805	45.02
627.996	45.26
628.187	45.32
628.378	45.94
628.569	45.82
628.76	45.49
628.951	45.4
629.142	44.45
629.332	43.79
629.523	44.1
629.714	44.1
629.905	44.33
630.096	44.11
630.287	44.17
630.478	43.46
630.669	44.04
630.859	44.65
631.05	44.28
631.241	44.67
631.432	44.76
631.623	44.24
631.813	43.96
632.004	44.19
632.195	43.92
632.385	43.51
632.576	43.25
632.767	42.83
632.957	42.68
633.148	42.73
633.339	42.52
633.529	43
633.72	42.89
633.91	43.47
634.101	43.2
634.292	43.65
634.482	44.11
634.673	44.98
634.863	44.37
635.054	44.8
635.244	45.88
635.435	46.73
635.625	46.76
635.815	47.23
636.006	46.53
636.196	47.19
636.387	46.96
636.577	46.9
636.767	46.23
636.958	46.75
637.148	46.71
637.338	46.6
637.529	46.25
637.719	45.56
637.909	45.48
638.099	46.17
638.29	45.2
638.48	45.8
638.67	46.05
638.86	46.37
639.05	47.05
639.241	47.29
639.431	46.92
639.621	47.33
639.811	47.57
640.001	47.34
640.191	47.18
640.381	47.58
640.571	47.37
640.761	47.97
640.951	48.4
641.141	48.04
641.331	47.73
641.521	47.62
641.711	47.21
641.901	47.48
642.091	47.94
642.281	47.74
642.471	48.02
642.661	48.31
642.851	47.03
643.041	46.26
643.231	46.57
643.42	46.76
643.61	47.2
643.8	47.33
643.99	47.5
644.18	47.52
644.369	48.13
644.559	47.93
644.749	47.38
644.939	47.81
645.128	48.5
645.318	48.72
645.508	48.34
645.697	47.87
645.887	48.31
646.076	48.8
646.266	48.99
646.456	48.33
646.645	48.76
646.835	49.16
647.024	49.56
647.214	48.79
647.403	48.52
647.593	48.88
647.782	48.71
647.972	48.36
648.161	47.98
648.351	47.84
648.54	48.48
648.73	48.18
648.919	47.7
649.108	46.64
649.298	46.9
649.487	47.64
649.677	47.75
649.866	48.33
650.055	48.55
650.244	49.08
650.434	49.63
650.623	49.58
650.812	49.62
651.002	50.31
651.191	51.02
651.38	51.12
651.569	50.5
651.758	50.93
651.947	50.31
652.137	50.37
652.326	49.7
652.515	49.39
652.704	49.11
652.893	48.66
653.082	48.78
653.271	48.68
653.46	48.75
653.649	49.21
653.838	48.08
654.027	48.29
654.216	48.52
654.405	48.97
654.594	48.63
654.783	48.96
654.972	49.95
655.161	48.88
655.35	49.71
655.539	50.48
655.728	49.81
655.916	49.65
656.105	49.81
656.294	49.8
656.483	48.93
656.672	48.88
656.86	47.87
657.049	47.05
657.238	47.08
657.427	47.15
657.615	46.69
657.804	46.91
657.993	47.34
658.181	47.9
658.37	47.26
658.559	46.98
658.747	46.79
658.936	47.39
659.125	47.5
659.313	47.37
659.502	46.65
659.69	46.66
659.879	47.31
660.067	47.05
660.256	47.02
660.444	47.74
660.633	48.53
660.821	48.27
661.01	48.37
661.198	48.38
661.387	48.89
661.575	49.78
661.763	49.78
661.952	49.2
662.14	49.03
662.328	48.2
662.517	48.35
662.705	48.66
662.893	49.24
663.082	48.93
663.27	49.01
663.458	49.64
663.646	48.48
663.834	47.35
664.023	47.76
664.211	47.67
664.399	48.42
664.587	49.03
664.775	48.5
664.963	48.31
665.152	48.66
665.34	48.35
665.528	47.98
665.716	49.25
665.904	51.3
666.092	50.57
666.28	51.92
666.468	50.58
666.656	50.25
666.844	49.68
667.032	50.19
667.22	50.47
667.408	50.74
667.596	50.95
667.784	51.78
667.971	50.8
668.159	51.01
668.347	50.07
668.535	50.87
668.723	49.6
668.911	50.61
669.098	50.34
669.286	49.48
669.474	50.55
669.662	50.79
669.849	48.86
670.037	49.64
670.225	49.65
670.413	49.64
670.6	48.9
670.788	49.35
670.976	50.38
671.163	50.7
671.351	51.48
671.538	51.14
671.726	50.69
671.913	51.5
672.101	50.92
672.289	51.02
672.476	51.64
672.664	52.39
672.851	51.38
673.039	50.7
673.226	50.23
673.413	49.63
673.601	48.83
673.788	48.63
673.976	48.45
674.163	48.48
674.35	48.03
674.538	48.28
674.725	48.04
674.912	49.27
675.1	48.9
675.287	48.24
675.474	48.58
675.662	48.8
675.849	49.29
676.036	49.05
676.223	48.47
676.411	48.85
676.598	47.96
676.785	48.17
676.972	47.93
677.159	47.44
677.346	47.28
677.533	46.92
677.721	46.85
677.908	46.59
678.095	46.85
678.282	47.19
678.469	46.46
678.656	47.23
678.843	47.11
679.03	47.1
679.217	47.55
679.404	48.61
679.591	48.85
679.778	49.15
679.964	49.59
680.151	49.42
680.338	49.7
680.525	50.92
680.712	51.31
680.899	51.52
681.086	52.14
681.272	52.24
681.459	52.1
681.646	52.34
681.833	52.87
682.02	53.08
682.206	53.6
682.393	52.99
682.58	52.43
682.766	55.22
682.953	55.95
683.14	56.53
683.326	56.38
683.513	56.93
683.7	57.72
683.886	57.69
684.073	57.22
684.259	57.02
684.446	57.84
684.632	57.22
684.819	53.18
685.005	52.85
685.192	51.2
685.378	52.4
685.565	51.76
685.751	51.16
685.938	50.55
686.124	49.59
686.31	49.2
686.497	49.7
686.683	50.94
686.87	52.21
687.056	52.17
687.242	52.31
687.429	51.41
687.615	52.28
687.801	52.87
687.987	53.25
688.174	55.11
688.36	54.93
688.546	54.83
688.732	54.43
688.918	53.81
689.105	53.68
689.291	54.31
689.477	53.53
689.663	53.52
689.849	53.92
690.035	53.83
690.221	52.98
690.407	54.34
690.593	53.73
690.779	53.45
690.965	53.44
691.151	53.22
691.337	54.51
691.523	56.07
691.709	55.52
691.895	55.23
692.081	55.77
692.267	56.23
692.453	55.46
692.639	55.88
692.825	55.92
693.011	55.27
693.196	55.69
693.382	53.21
693.568	51.77
693.754	52.38
693.94	51.9
694.125	51.67
694.311	50.99
694.497	51.04
694.682	51.17
694.868	51.36
695.054	50.39
695.239	50.6
695.425	52.39
695.611	52.47
695.796	50.83
695.982	50.57
696.168	50.48
696.353	51.37
696.539	50.88
696.724	50.09
696.91	49.9
697.095	50.22
697.281	50.32
697.466	49.32
697.652	49.93
697.837	50
698.023	50.62
698.208	50.25
698.393	49.55
698.579	49.83
698.764	49.67
698.949	49.28
699.135	50.35
699.32	49.85
699.505	50.57
699.691	50.19
699.876	50.57
700.061	50.49
700.246	51.69
700.432	52.54
700.617	52.27
700.802	52.35
700.987	53.92
701.172	55.19
701.358	54.87
701.543	56.67
701.728	57.91
701.913	60.49
702.098	60.98
702.283	60.86
702.468	60.08
702.653	61.06
702.838	62.84
703.023	61.94
703.208	60.28
703.393	62.39
703.578	61.25
703.763	60.53
703.948	60.1
704.133	60
704.318	60.14
704.503	60.08
704.688	61.08
704.873	61.08
705.057	62.46
705.242	62.79
705.427	61.81
705.612	59.94
705.797	59.87
705.981	58.92
706.166	58.93
706.351	59.26
706.536	60.94
706.72	60.49
706.905	59.48
707.09	59.3
707.274	60.24
707.459	60.27
707.644	62.12
707.828	61.63
708.013	60.87
708.197	60.09
708.382	59.15
708.567	57.65
708.751	57.63
708.936	58.44
709.12	58.06
709.305	56.53
709.489	55.86
709.673	55.66
709.858	55.39
710.042	55.31
710.227	55.81
710.411	55.15
710.596	55.17
710.78	54.85
710.964	54.24
711.149	53
711.333	52.65
711.517	52.36
711.702	51.86
711.886	52.08
712.07	52.76
712.254	53
712.438	53.74
712.623	53.57
712.807	53.72
712.991	54.59
713.175	55.42
713.359	56.09
713.544	57.72
713.728	58.96
713.912	59.48
714.096	59.55
714.28	59.11
714.464	58.95
714.648	58.88
714.832	58.89
715.016	57.63
715.2	57.3
715.384	57.6
715.568	57.13
715.752	55.29
715.936	55.8
716.12	54.75
716.304	53.47
716.488	53.43
716.671	55.87
716.855	55.97
717.039	57.55
717.223	58.25
717.407	58.23
717.59	57.96
717.774	58.94
717.958	58.73
718.142	60.48
718.325	61.69
718.509	61.81
718.693	59.6
718.877	59.26
719.06	59.58
719.244	59.09
719.428	60.72
719.611	61.88
719.795	60.89
719.978	60.65
720.162	59.03
720.345	60.17
720.529	60.69
720.713	58.73
720.896	59.44
721.08	59.8
721.263	60.68
721.446	58.56
721.63	57.95
721.813	60.27
721.997	60.8
722.18	62.12
722.364	63.75
722.547	63.66
722.73	67.53
722.914	65.94
723.097	64.79
723.28	64.03
723.464	63.84
723.647	63.18
723.83	62.09
724.013	64.64
724.197	63.47
724.38	62.68
724.563	62.63
724.746	61.73
724.929	62.89
725.112	61.65
725.296	61.2
725.479	61.75
725.662	62.74
725.845	60.07
726.028	57.8
726.211	58.53
726.394	57.45
726.577	57.75
726.76	55.7
726.943	55.46
727.126	56.78
727.309	58.4
727.492	57.78
727.675	57.52
727.858	59.7
728.041	59.85
728.224	58.78
728.407	58.46
728.589	56.38
728.772	58.17
728.955	58
729.138	58.55
729.321	57.91
729.503	59.31
729.686	59.01
729.869	57.39
730.052	56.88
730.234	57.97
730.417	58.02
730.6	58.72
730.782	59.05
730.965	59.19
731.148	58.45
731.33	59.21
731.513	58.97
731.695	59.34
731.878	61.77
732.061	61.78
732.243	61.44
732.426	60.96
732.608	61.72
732.791	60.91
732.973	60.97
733.156	61.58
733.338	61.46
733.52	60.41
733.703	58.67
733.885	58.37
734.068	57.55
734.25	57.99
734.432	60
734.615	60.89
734.797	61.46
734.979	62.95
735.162	63.43
735.344	61.84
735.526	62.56
735.708	64.23
735.891	63.68
736.073	64.33
736.255	62.92
736.437	62.08
736.619	60.57
736.802	60.7
736.984	60.86
737.166	59.77
737.348	60.92
737.53	60.59
737.712	59.86
737.894	59.89
738.076	59.45
738.258	60.04
738.44	59.4
738.622	60.24
738.804	61.34
738.986	58.89
739.168	60.74
739.35	62.07
739.532	62.69
739.714	62.32
739.896	64.24
740.078	65.98
740.259	66.73
740.441	68.33
740.623	67.91
740.805	67.24
740.987	69.36
741.168	67.14
741.35	66.72
741.532	65.52
741.714	67.11
741.895	64.55
742.077	64.4
742.259	64.53
742.44	65.69
742.622	66.91
742.804	66.57
742.985	66.12
743.167	67.55
743.348	66.02
743.53	69.38
743.711	69.55
743.893	68.68
744.075	70.6
744.256	71.09
744.438	67.23
744.619	67.24
744.8	67.54
744.982	67.73
745.163	67.91
745.345	68.94
745.526	67.31
745.707	66.99
745.889	68.05
746.07	66.52
746.252	67.25
746.433	68.53
746.614	67.09
746.795	68.38
746.977	68.5
747.158	67.8
747.339	68.03
747.52	69.39
747.702	71.3
747.883	72.64
748.064	73.5
748.245	72.75
748.426	75.37
748.607	76
748.788	72.77
748.97	72.62
749.151	70.55
749.332	70.46
749.513	67.86
749.694	66.98
749.875	67.86
750.056	66.14
750.237	65.68
750.418	63.68
750.599	65.72
750.78	64.9
750.96	64.96
751.141	66.89
751.322	65.35
751.503	66.94
751.684	66.81
751.865	65.22
752.046	66.49
752.226	67.27
752.407	65.37
752.588	63.81
752.769	67.05
752.949	66.96
753.13	65.11
753.311	65.43
753.492	64.65
753.672	63.14
753.853	64.5
754.034	61.39
754.214	60.25
754.395	60.43
754.575	60.72
754.756	57.83
754.937	58.12
755.117	57.52
755.298	58.57
755.478	58.17
755.659	58.73
755.839	58.21
756.02	59.96
756.2	60.12
756.381	61.78
756.561	60.48
756.741	61.65
756.922	59.9
757.102	61.75
757.283	60.17
757.463	58.49
757.643	58.48
757.823	57.78
758.004	56.52
758.184	56.11
758.364	57.01
758.545	59.43
758.725	62.33
758.905	62.56
759.085	64.83
759.265	67.75
759.446	69.89
759.626	70.32
759.806	71.36
759.986	72.05
760.166	72.02
760.346	71.64
760.526	68.56
760.706	65.58
760.886	65.1
761.066	64.85
761.246	62.44
761.426	62.17
761.606	60.69
761.786	59.29
761.966	58.35
762.146	56.88
762.326	57.24
762.506	56.96
762.686	56.7
762.866	56.87
763.046	53.88
763.225	53.55
763.405	52.89
763.585	52.09
763.765	53.33
763.945	54.58
764.124	56.37
764.304	56.27
764.484	57.45
764.664	57.55
764.843	58.59
765.023	62.18
765.203	61.93
765.382	63.77
765.562	65.74
765.741	65.1
765.921	65.01
766.101	64.77
766.28	63.79
766.46	65.11
766.639	65.28
766.819	67.46
766.998	67.96
767.178	69.9
767.357	68.2
767.537	67.49
767.716	68.09
767.896	65.74
768.075	66.86
768.254	67.22
768.434	66.44
768.613	69.21
768.792	68.09
768.972	68.05
769.151	69.92
769.33	70.89
769.51	71.46
769.689	71.18
769.868	73.15
770.047	73.5
770.226	74.68
770.406	75.74
770.585	75.77
770.764	71.91
770.943	69.97
771.122	68.38
771.301	68.79
771.48	69.82
771.66	70.96
771.839	71.54
772.018	70.65
772.197	73.59
772.376	74.95
772.555	71.73
772.734	75.47
772.913	74.32
773.092	76.84
773.271	75.6
773.449	77.28
773.628	75.99
773.807	77.95
773.986	79.18
774.165	75.23
774.344	75.09
774.523	77.41
774.701	75.64
774.88	77.51
775.059	76.95
775.238	79.11
775.417	77.2
775.595	77.28
775.774	75.72
775.953	73.64
776.131	75.68
776.31	71.43
776.489	65.96
776.667	68.52
776.846	69.48
777.025	69.17
777.203	70.82
777.382	72.32
777.56	73.09
777.739	70.19
777.917	74.44
778.096	71.77
778.274	75.51
778.453	78.64
778.631	77.56
778.81	75.83
778.988	77.04
779.166	76.16
779.345	73.87
779.523	75.37
779.702	78.11
779.88	76.78
780.058	77.46
780.237	75.11
780.415	80.37
780.593	77.57
780.771	76.7
780.95	72.93
781.128	71.59
781.306	75.48
781.484	75.51
781.662	76.31
781.841	75.33
782.019	76.93
782.197	77.13
782.375	74.2
782.553	77.59
782.731	78.73
782.909	77.11
783.087	79.89
783.265	76.71
783.443	74.73
783.621	74.05
783.799	75.87
783.977	72.91
784.155	72.81
784.333	72.85
784.511	72.17
784.689	72.92
784.867	76.28
785.045	77.37
785.223	77.75
785.4	80.07
785.578	84.16
785.756	80.83
785.934	80.11
786.112	80.66
786.289	82.54
786.467	80.41
786.645	81.68
786.823	80.01
787	72.97
787.178	72.83
787.356	70.99
787.533	69.74
787.711	69.09
787.889	69.28
788.066	66.32
788.244	62.84
788.421	64.7
788.599	63.76
788.776	64.14
788.954	65.45
789.131	67.29
789.309	67.77
789.486	66.29
789.664	67.51
789.841	69.04
790.019	69.9
790.196	71.83
790.373	70.73
790.551	71.2
790.728	73.52
790.906	79.57
791.083	72.81
791.26	72.76
791.437	74.1
791.615	75.22
791.792	76.18
791.969	77.95
792.146	78.32
792.324	79.04
792.501	81.07
792.678	82.81
792.855	79.26
793.032	85.75
793.209	84.27
793.387	82.28
793.564	82
793.741	81.05
793.918	83.26
794.095	85.19
794.272	86.86
794.449	83.57
794.626	79.03
794.803	81.87
794.98	76.64
795.157	79.48
795.334	80.43
795.511	81.17
795.688	79.34
795.864	80.37
796.041	76.69
796.218	73.1
796.395	73.51
796.572	75.07
796.749	72.32
796.925	72.47
797.102	68.07
797.279	67.08
797.456	64.52
797.632	63.43
797.809	61.24
797.986	58.86
798.162	60.91
798.339	64.42
798.516	65.49
798.692	63.99
798.869	68.47
799.046	68.82
799.222	69.16
799.399	68.62
799.575	70.67
799.752	68.23
799.928	72.7
800.105	76.73
800.281	71.14
800.458	68.15
800.634	66.62
800.811	62.37
800.987	63.08
801.163	64
801.34	66.54
801.516	66.92
801.692	70.46
801.869	70.58
802.045	68.54
802.221	68.17
802.398	68.57
802.574	73.52
802.75	72.7
802.926	74.28
803.103	74.54
803.279	76.94
803.455	77.08
803.631	77.34
803.807	79.76
803.983	77.68
804.16	78.14
804.336	76.5
804.512	75.19
804.688	79.44
804.864	80.47
805.04	81.81
805.216	83.08
805.392	88.63
805.568	87.73
805.744	86.35
805.92	83.17
806.096	88.77
806.272	96.26
806.448	92.9
806.623	92.11
806.799	87.38
806.975	85.31
807.151	81.76
807.327	76.39
807.503	76.77
807.678	70.76
807.854	75.2
808.03	78.48
808.206	74.95
808.381	80.8
808.557	80.41
808.733	82.92
808.908	85.53
809.084	83.62
809.26	85.74
809.435	82.95
809.611	90.32
809.787	85.78
809.962	81.89
810.138	84.66
810.313	79.37
810.489	80
810.664	83.27
810.84	82.26
811.015	82.08
811.191	81.86
811.366	84.52
811.542	84.04
811.717	89.63
811.892	87.19
812.068	88.58
812.243	95.01
812.419	93.32
812.594	90.92
812.769	91.68
812.944	95.49
813.12	98.32
813.295	99.92
813.47	99.52
813.645	99.37
813.821	98.89
813.996	88.88
814.171	83.56
814.346	86.16
814.521	83.07
814.697	82.78
814.872	85.87
815.047	80.11
815.222	73.29
815.397	69.62
815.572	65
815.747	66.51
815.922	73.18
816.097	71.19
816.272	68.39
816.447	71.67
816.622	72.31
816.797	69.88
816.972	69.57
817.147	71.53
817.322	73.15
817.496	73.3
817.671	76.2
817.846	73.62
818.021	73.38
818.196	71.23
818.371	67.59
818.545	67.18
818.72	67.93
818.895	69.92
819.069	69.58
819.244	68.19
819.419	64.77
819.594	62.25
819.768	57.7
819.943	56.17
820.117	53.87
820.292	53.18
820.467	48.91
820.641	46.15
820.816	44.85
820.99	44.46
821.165	42.74
821.339	42.34
821.514	41.43
821.688	41.77
821.863	42.43
822.037	42.58
822.212	42.23
822.386	42.17
822.56	41.73
822.735	41.97
822.909	41.01
823.084	41.06
823.258	41.98
823.432	41.65
823.606	41.64
823.781	41.48
823.955	42.14
824.129	42.05
824.303	42.05
824.478	43.16
824.652	44.2
824.826	45.51
825	46.83
825.174	45.67
825.348	46.63
825.523	46.01
825.697	44.75
825.871	44.68
826.045	45.91
826.219	47.15
826.393	47.62
826.567	46.19
826.741	45.62
826.915	45.03
827.089	44.9
827.263	42.98
827.437	44.93
827.611	43.51
827.784	43.47
827.958	43.05
828.132	42.13
828.306	44
828.48	45.26
828.654	46.1
828.827	48.33
829.001	52.08
829.175	56.44
829.349	57.65
829.522	60.21
829.696	61.75
829.87	63.15
830.044	66.37
830.217	65.28
830.391	67.78
830.565	71.03
830.738	69.2
830.912	68.46
831.085	67.85
831.259	67.52
831.432	72.12
831.606	71.58
831.779	67.74
831.953	66.43
832.126	66.08
832.3	65.43
832.473	62.41
832.647	59.9
832.82	59.98
832.994	59.32
833.167	59.72
833.34	57.09
833.514	53.67
833.687	54.93
833.86	55.9
834.034	55.15
834.207	54.08
834.38	54.38
834.553	53.91
834.727	55.16
834.9	54.51
835.073	54.5
835.246	54.47
835.419	53.71
835.593	53.36
835.766	53.56
835.939	52.58
836.112	54.06
836.285	53.08
836.458	54.13
836.631	52.24
836.804	54.08
836.977	52.54
837.15	54.3
837.323	68.7
837.496	68.54
837.669	68.71
837.842	73.08
838.015	79.32
838.188	86.61
838.361	88.38
838.533	81.51
838.706	83.31
838.879	83.45
839.052	81.32
839.225	74.56
839.398	78.16
839.57	81.03
839.743	79.26
839.916	71.93
840.088	69.77
840.261	71.6
840.434	73.83
840.607	76.76
840.779	78.24
840.952	80.9
841.124	92.62
841.297	89.79
841.47	89.55
841.642	99.84
841.815	101.23
841.987	111.34
842.16	108.49
842.332	110.54
842.505	97.99
842.677	102.4
842.85	110.56
843.022	109.71
843.194	108.28
843.367	107.59
843.539	106.02
843.712	109.3
843.884	108.99
844.056	103.69
844.229	105.81
844.401	122.89
844.573	106.39
844.745	101.38
844.918	104.61
845.09	94.37
845.262	88.56
845.434	91.92
845.606	107.71
845.779	90.48
845.951	89.43
846.123	98.92
846.295	89.91
846.467	123.92
846.639	126.35
846.811	118.76
846.983	129.98
847.155	137.25
847.327	118.31
847.499	119.19
847.671	124.14
847.843	135.54
848.015	123.64
848.187	115.81
848.359	111.58
848.531	116.17
848.703	111.11
848.875	123.05
849.047	119.62
849.218	129.33
849.39	111.32
849.562	115.73
849.734	119.35
849.905	120.68
850.077	147.07
850.249	132.79
850.421	111.2
850.592	109.89
850.764	109.24
850.936	105.58
851.107	102.63
851.279	102.39
851.451	95.99
851.622	94.44
851.794	108.26
851.965	99.8
852.137	102.16
852.308	115.12
852.48	124.91
852.651	122.92
852.823	131.53
852.994	126.04
853.166	133.05
853.337	156.71
853.509	160.51
853.68	146.77
853.851	144.25
854.023	134.8
854.194	127.6
854.365	129.16
854.537	120.97
854.708	123.61
854.879	124.79
855.05	127.69
855.222	98.11
855.393	97.81
855.564	100.53
855.735	108.02
855.906	109.15
856.078	100.3
856.249	86.79
856.42	82.24
856.591	75.31
856.762	71.66
856.933	65.86
857.104	67.54
857.275	74.28
857.446	59.96
857.617	58.69
857.788	61.39
857.959	56.56
858.13	66.18
858.301	74.74
858.472	73.26
858.643	80.8
858.814	97.83
858.985	115.42
859.155	129.62
859.326	144.33
859.497	169.72
859.668	279.82
859.839	272.38
860.009	175.3
860.18	207.68
860.351	212.08
860.522	162.37
860.692	121.93
860.863	118.15
861.034	106.83
861.204	106.24
861.375	86.11
861.546	84.29
861.716	83.39
861.887	87.42
862.057	86.52
862.228	92.74
862.398	95.95
862.569	115.03
862.739	121.84
862.91	120.89
863.08	122.67
863.251	133.85
863.421	116.34
863.592	129.05
863.762	137.01
863.932	113.99
864.103	98.67
864.273	107.38
864.443	86.68
864.614	81.82
864.784	82.3
864.954	87.38
865.125	103.29
865.295	103.01
865.465	117.58
865.635	108.4
865.805	101.51
865.976	102.49
866.146	73.27
866.316	106.08
866.486	127.73
866.656	121.09
866.826	126.54
866.996	129.73
867.166	158.94
867.336	133.33
867.506	108.84
867.676	111.06
867.846	114.93
868.016	127.42
868.186	104.03
868.356	95.15
868.526	92.24
868.696	87.94
868.866	81.06
869.036	79.16
869.206	78.72
869.376	72.71
869.545	71.27
869.715	77.05
869.885	83.61
870.055	81.23
870.224	77.17
870.394	79.19
870.564	91.98
870.734	91.7
870.903	99.53
871.073	97.99
871.243	104.2
871.412	122.07
871.582	112.06
871.751	94.68
871.921	118.01
872.091	144.49
872.26	123.34
872.43	98.76
872.599	96.87
872.769	99.42
872.938	108.54
873.108	107.35
873.277	96.33
873.446	89.37
873.616	104.14
873.785	94.16
873.955	93.69
874.124	78
874.293	86.88
874.463	74.08
874.632	72.05
874.801	75.72
874.971	69.73
875.14	77.81
875.309	90.45
875.478	79.08
875.647	77.57
875.817	71.95
875.986	92.19
876.155	94.75
876.324	100.96
876.493	81.95
876.662	80.36
876.831	84.69
877	73.55
877.17	68.28
877.339	67.5
877.508	78.68
877.677	80.35
877.846	69.18
878.015	71.65
878.184	70.51
878.352	90.56
878.521	84.1
878.69	81.05
878.859	77.65
879.028	78.18
879.197	79.39
879.366	75.09
879.534	68.37
879.703	61.65
879.872	57.34
880.041	50.84
880.21	44.17
880.378	40.81
880.547	39.3
880.716	38.16
880.884	37.11
881.053	35.93
881.222	33.43
881.39	33.35
881.559	33.27
881.727	33.57
881.896	33.83
882.065	34.21
882.233	36.86
882.402	36.97
882.57	38.67
882.739	37.86
882.907	37.41
883.076	36.4
883.244	36.43
883.412	38.1
883.581	40.16
883.749	42.8
883.918	42.35
884.086	40.18
884.254	41.1
884.423	45.05
884.591	47.63
884.759	50.93
884.927	56.06
885.096	60.09
885.264	60.31
885.432	63.68
885.6	63.97
885.769	69.25
885.937	73.15
886.105	83.98
886.273	77.59
886.441	77.25
886.609	74.59
886.777	69.69
886.945	69.55
887.113	74.16
887.281	65.96
887.449	67.83
887.617	71.54
887.785	71.44
887.953	73.16
888.121	78.04
888.289	81.41
888.457	80.57
888.625	89.98
888.793	92.19
888.961	96.13
889.129	88.48
889.296	91.72
889.464	86.15
889.632	97.55
889.8	76.91
889.967	74.83
890.135	72.09
