Data from 2986_Reflection_01.txt Node
Date: Mon Nov 09 09:31:28 EST 2015
User: Geneva
Spectrometer: USB4E03002
Autoset integration time: false
Trigger mode: 4
Integration Time (sec): 1.000000E-1
Scans to average: 10
Electric dark correction enabled: false
Nonlinearity correction enabled: false
Boxcar width: 5
Stray light correction enabled: false
XAxis mode: Wavelengths
Stop averaging: false
Number of Pixels in Spectrum: 3648
>>>>>Begin Spectral Data<<<<<
177.575	-8.53
177.794	-62.55
178.014	-476.92
178.233	-635.19
178.452	335.9
178.672	1590.91
178.891	529.95
179.11	294.41
179.33	392.65
179.549	377.33
179.768	282.3
179.987	284.37
180.207	273.56
180.426	371.11
180.645	457.72
180.864	-589.81
181.084	2063.16
181.303	-200.82
181.522	-142.08
181.741	-289.8
181.96	-163.36
182.179	-130
182.398	-669.35
182.618	307.42
182.837	393.4
183.056	681.75
183.275	589.17
183.494	581.58
183.713	455.02
183.932	499.54
184.151	425.7
184.37	203.61
184.589	378.73
184.808	375.41
185.027	799.15
185.246	1751.67
185.465	577.78
185.684	631.86
185.903	552.32
186.122	379.25
186.341	700.56
186.56	496.31
186.779	-3057.5
186.998	852.53
187.216	-8106.67
187.435	1463.41
187.654	720.67
187.873	-875.31
188.092	-4737.5
188.311	-932.89
188.53	-537.93
188.748	-424.18
188.967	-385.16
189.186	-351.32
189.405	-503.49
189.623	-851.56
189.842	-249.3
190.061	-135.83
190.28	-128.34
190.498	-171.63
190.717	-238.32
190.936	-195.52
191.154	-141.92
191.373	-92.06
191.592	-80.53
191.81	-107.74
192.029	-98.68
192.248	-183.82
192.466	-482.82
192.685	609.93
192.904	823.93
193.122	833.61
193.341	2050
193.559	2662.86
193.778	-798.21
193.996	744.44
194.215	668.89
194.433	505.26
194.652	-1669.23
194.87	-2666.67
195.089	-564.17
195.307	-295.34
195.526	-111.09
195.744	-234.44
195.963	-534.35
196.181	-920
196.399	-196.34
196.618	-261.13
196.836	6891.67
197.055	1265.22
197.273	-1682.22
197.491	1741.3
197.71	756.86
197.928	292.81
198.146	370.23
198.365	288.78
198.583	279.81
198.801	210.44
199.019	267.18
199.238	407.64
199.456	335.6
199.674	424.68
199.892	377.99
200.111	426.47
200.329	499.49
200.547	718.06
200.765	-7945.45
200.983	1388.52
201.202	-3850
201.42	653.06
201.638	-287.28
201.856	-379.89
202.074	2715.38
202.292	-788.64
202.51	3144.83
202.728	-1942.55
202.946	736.76
203.165	878.99
203.383	543.72
203.601	437.19
203.819	5284
204.037	1037.88
204.255	676.12
204.473	1550.59
204.691	3375.68
204.909	-2802.94
205.127	-1407.94
205.345	-2969.7
205.562	-2571.43
205.78	-372.24
205.998	-422.82
206.216	-743.69
206.434	-998.98
206.652	-318.52
206.87	-314.83
207.088	-268.8
207.306	-529.19
207.523	-769.27
207.741	-453.96
207.959	-1711.54
208.177	-998.23
208.395	-380.97
208.612	-313.42
208.83	-259.06
209.048	-875.58
209.266	-1874.19
209.483	1742.86
209.701	-2657.14
209.919	396.95
210.136	-8666.67
210.354	-497.58
210.572	-1836.84
210.79	523.26
211.007	291.94
211.225	331.31
211.442	631.35
211.66	436.84
211.878	564.29
212.095	243.06
212.313	319.48
212.53	128.91
212.748	-134.48
212.966	5.19
213.183	-180.49
213.401	-19.79
213.618	93.06
213.836	218.18
214.053	145.73
214.271	161.39
214.488	-209.68
214.705	-93.05
214.923	-190.8
215.14	778.38
215.358	-422.58
215.575	-1787.18
215.793	-633.71
216.01	1195.74
216.227	299.07
216.445	218.61
216.662	233.15
216.879	258.06
217.097	236.73
217.314	301.67
217.531	305.31
217.749	284.59
217.966	341.08
218.183	246.23
218.4	257.26
218.618	345.24
218.835	475.21
219.052	391.32
219.269	276.21
219.487	222.67
219.704	245.21
219.921	284.62
220.138	206.18
220.355	181.35
220.572	177.01
220.79	151.06
221.007	124.95
221.224	121.02
221.441	123.73
221.658	170.29
221.875	276.25
222.092	170.31
222.309	173.76
222.526	244.3
222.743	1365.79
222.96	1709.68
223.177	-792.19
223.394	-237.5
223.611	-367.11
223.828	-193.23
224.045	-505.74
224.262	618.52
224.479	-1856.25
224.696	-1483.33
224.913	-15675
225.13	395.35
225.347	285.24
225.564	199.23
225.781	138.89
225.997	89.86
226.214	55.74
226.431	42.74
226.648	36.71
226.865	42.9
227.082	39.32
227.298	42.86
227.515	41.49
227.732	41.44
227.949	35.11
228.165	31.59
228.382	35.14
228.599	47.6
228.816	43.63
229.032	56.05
229.249	56.7
229.466	48.35
229.682	55.23
229.899	73.6
230.116	90.13
230.332	129.62
230.549	156.94
230.765	209.98
230.982	145.87
231.199	220.27
231.415	131.29
231.632	128.86
231.848	157.72
232.065	133.94
232.281	94.68
232.498	93.18
232.714	88.04
232.931	96.36
233.147	89.4
233.364	95.36
233.58	70.6
233.797	85.79
234.013	101.8
234.23	94.48
234.446	83.76
234.662	106.61
234.879	111.56
235.095	87.61
235.312	83.95
235.528	75.92
235.744	69.46
235.961	76.99
236.177	66.05
236.393	59.81
236.61	61.2
236.826	73.85
237.042	69.51
237.258	68.35
237.475	85.58
237.691	88.69
237.907	96.13
238.123	99.8
238.339	108.61
238.556	112.31
238.772	103.62
238.988	91.36
239.204	72.49
239.42	71.4
239.636	72.68
239.853	57.16
240.069	50.21
240.285	42.95
240.501	39.9
240.717	41
240.933	39.05
241.149	39.25
241.365	41.92
241.581	43.69
241.797	39.88
242.013	38.26
242.229	39.45
242.445	36.07
242.661	40.91
242.877	39.78
243.093	32.91
243.309	39.23
243.525	36.44
243.741	36.57
243.957	35.65
244.173	36.95
244.388	35.26
244.604	38.27
244.82	33.78
245.036	31.85
245.252	30.3
245.468	32.28
245.683	29.34
245.899	30.74
246.115	30.94
246.331	31.38
246.547	29.35
246.762	29.12
246.978	25.02
247.194	26.38
247.409	25.7
247.625	27.07
247.841	28.86
248.057	28.27
248.272	30.71
248.488	30.46
248.703	32.78
248.919	40.71
249.135	43.23
249.35	49.27
249.566	49.34
249.782	44.76
249.997	41.75
250.213	35.58
250.428	39.57
250.644	37.56
250.859	35.61
251.075	34.01
251.29	32.04
251.506	30.88
251.721	27.85
251.937	27.63
252.152	32.1
252.368	33.41
252.583	39.81
252.798	35.79
253.014	34.7
253.229	35.13
253.445	36.87
253.66	29.62
253.875	29.46
254.091	37.68
254.306	34.04
254.521	29.12
254.737	28.97
254.952	26.66
255.167	28.65
255.383	24.63
255.598	26.92
255.813	23.6
256.028	22.52
256.244	26.61
256.459	23.68
256.674	26.4
256.889	26.56
257.104	27.25
257.32	26.74
257.535	21.64
257.75	21.73
257.965	19.45
258.18	17.83
258.395	17.47
258.61	13.98
258.826	12.54
259.041	13.12
259.256	14.19
259.471	13.89
259.686	12.65
259.901	15.16
260.116	16.48
260.331	15.79
260.546	18.27
260.761	21.06
260.976	26.87
261.191	32.92
261.406	31.43
261.621	30.7
261.836	28.23
262.05	28.21
262.265	25.91
262.48	23.91
262.695	30.2
262.91	27.47
263.125	24.49
263.34	13.63
263.555	8.85
263.769	11.43
263.984	17.09
264.199	22.3
264.414	26.11
264.629	25.69
264.843	25.91
265.058	21.11
265.273	26.66
265.488	25.74
265.702	30.7
265.917	29.67
266.132	33.19
266.346	30.14
266.561	31.85
266.776	28.94
266.99	27.24
267.205	25.06
267.42	28.41
267.634	27.1
267.849	30.13
268.063	32.67
268.278	31.07
268.492	26.77
268.707	26.5
268.922	18.66
269.136	18.54
269.351	19.14
269.565	21.6
269.78	19.87
269.994	15.41
270.209	19.1
270.423	17.85
270.637	16.54
270.852	19.25
271.066	21.07
271.281	22.79
271.495	28.67
271.709	28.62
271.924	29.74
272.138	31.71
272.353	35.84
272.567	31.89
272.781	30.95
272.996	34.39
273.21	34.15
273.424	31.15
273.638	30.67
273.853	28.76
274.067	30.81
274.281	29.21
274.495	25.43
274.71	25.76
274.924	26.29
275.138	25.59
275.352	23.58
275.566	25.09
275.781	26.92
275.995	26.88
276.209	24.58
276.423	22.56
276.637	23.68
276.851	27.05
277.065	26.41
277.279	28.01
277.493	29.73
277.707	29
277.921	25.27
278.135	26.37
278.349	26.03
278.563	28.58
278.777	29.12
278.991	28.03
279.205	25.55
279.419	23.23
279.633	18.91
279.847	15.56
280.061	18.15
280.275	18.81
280.489	16.24
280.703	19.37
280.917	14.1
281.131	16.6
281.344	12.85
281.558	13.66
281.772	14.51
281.986	14.21
282.2	16.45
282.414	15.81
282.627	14.5
282.841	14.12
283.055	14.07
283.269	16.49
283.482	14.76
283.696	18.44
283.91	18.44
284.123	16.6
284.337	16.43
284.551	17.97
284.764	15.2
284.978	18.14
285.192	19.25
285.405	19.53
285.619	18.83
285.833	21.36
286.046	20.93
286.26	19.05
286.473	19.05
286.687	20.45
286.9	17.64
287.114	19.33
287.327	19.27
287.541	18.16
287.754	17.78
287.968	17.31
288.181	14.56
288.395	14.06
288.608	17.89
288.822	19.01
289.035	19.73
289.248	21.3
289.462	22.74
289.675	21.86
289.889	20.36
290.102	18.99
290.315	17.63
290.529	18.29
290.742	20.27
290.955	18.28
291.169	21.66
291.382	19.39
291.595	15.36
291.808	15.52
292.022	15.39
292.235	15.64
292.448	15.48
292.661	18.88
292.875	19.46
293.088	20.74
293.301	20.25
293.514	14.97
293.727	14.41
293.94	14.56
294.153	13.98
294.367	12.37
294.58	14.61
294.793	14.59
295.006	13.38
295.219	12.29
295.432	11.38
295.645	10.88
295.858	12.44
296.071	12.36
296.284	13.98
296.497	13.96
296.71	15.06
296.923	16.31
297.136	16.4
297.349	19.92
297.562	22.42
297.775	18.65
297.988	19.48
298.201	19.09
298.414	23.43
298.626	23.83
298.839	24.12
299.052	25.06
299.265	22.45
299.478	22.83
299.691	22.88
299.903	21.83
300.116	24.89
300.329	28.38
300.542	31.22
300.755	28.44
300.967	29.63
301.18	30.63
301.393	29.12
301.605	30.62
301.818	31.99
302.031	29.93
302.243	29.48
302.456	29.94
302.669	29.45
302.881	27.5
303.094	28.37
303.307	25.22
303.519	26.25
303.732	26.48
303.944	26.02
304.157	25.01
304.37	23.61
304.582	21.3
304.795	24.99
305.007	22.13
305.22	21.86
305.432	20.29
305.645	19.53
305.857	20.16
306.069	17.5
306.282	20.05
306.494	19.5
306.707	21.15
306.919	23.01
307.132	20.12
307.344	22.3
307.556	24.69
307.769	23.71
307.981	25.21
308.193	23.63
308.406	25.71
308.618	24.94
308.83	24.92
309.043	24.97
309.255	24.61
309.467	24.79
309.679	22.06
309.892	19.44
310.104	21.56
310.316	22.32
310.528	22.02
310.74	22.18
310.953	20.93
311.165	20.32
311.377	20.92
311.589	19.72
311.801	21.67
312.013	23.65
312.225	26.22
312.437	26.51
312.649	27.25
312.862	25.69
313.074	26.52
313.286	25.72
313.498	25.81
313.71	22.01
313.922	23.22
314.134	19.45
314.346	16.95
314.558	16.65
314.77	12.11
314.982	13.67
315.193	16.49
315.405	16.96
315.617	19.39
315.829	18.97
316.041	24.06
316.253	26.95
316.465	29.03
316.677	34.32
316.888	36.2
317.1	37.47
317.312	35.75
317.524	35.84
317.736	32.75
317.947	32.44
318.159	32.5
318.371	32.53
318.583	30.27
318.794	30.28
319.006	28.47
319.218	24.97
319.43	26.97
319.641	27.43
319.853	27.59
320.064	29.93
320.276	30.59
320.488	31.96
320.699	31.33
320.911	29.74
321.123	30.86
321.334	30.8
321.546	26.71
321.757	27.64
321.969	27.78
322.18	28
322.392	27.82
322.603	28.17
322.815	31.05
323.026	26.57
323.238	24.84
323.449	22.16
323.661	19.2
323.872	22.1
324.083	20.41
324.295	20.57
324.506	18.77
324.718	18.62
324.929	18.28
325.14	17.54
325.352	20.63
325.563	25.07
325.774	25.95
325.986	29.65
326.197	27.85
326.408	27.09
326.62	28.47
326.831	29.16
327.042	27.99
327.253	26.39
327.464	23.64
327.676	23.4
327.887	22
328.098	21.86
328.309	15.85
328.52	17.02
328.732	19.17
328.943	16.61
329.154	17.16
329.365	18.38
329.576	19.35
329.787	21.24
329.998	23.11
330.209	23.98
330.42	24.56
330.631	25.45
330.842	25.31
331.053	25.33
331.264	27.03
331.475	27.72
331.686	28.16
331.897	30.93
332.108	29.75
332.319	29.62
332.53	26.25
332.741	23.26
332.952	24.33
333.163	25.82
333.374	25.91
333.585	27.24
333.795	24.43
334.006	20.83
334.217	20.95
334.428	22.83
334.639	21.18
334.849	22.1
335.06	24.03
335.271	21.66
335.482	22.21
335.692	20.74
335.903	20.01
336.114	21.63
336.325	24.49
336.535	22.31
336.746	22.05
336.957	21.37
337.167	22.23
337.378	23.72
337.589	27.56
337.799	26.33
338.01	29.23
338.22	27.98
338.431	28.01
338.642	27.78
338.852	29.34
339.063	29.39
339.273	31.8
339.484	31.48
339.694	28.19
339.905	27.89
340.115	29.63
340.326	26.6
340.536	27.08
340.746	26.94
340.957	27.62
341.167	25.82
341.378	25.47
341.588	22.39
341.799	22.78
342.009	23.66
342.219	22.98
342.43	21.41
342.64	20.92
342.85	21.16
343.061	19.7
343.271	21.2
343.481	24.39
343.691	23.53
343.902	25.7
344.112	26.25
344.322	27.57
344.532	27.45
344.743	27.58
344.953	28.18
345.163	26.42
345.373	27.53
345.583	25.8
345.793	24.34
346.004	24.87
346.214	23.14
346.424	23.07
346.634	22.73
346.844	23.73
347.054	21.23
347.264	21.59
347.474	23.59
347.684	25.42
347.894	25.28
348.104	22.73
348.314	23.89
348.524	24.77
348.734	24.76
348.944	25.09
349.154	23.04
349.364	24.36
349.574	24.55
349.784	24.9
349.994	23.36
350.204	23.85
350.413	25.12
350.623	25.68
350.833	27.41
351.043	26.04
351.253	26.15
351.463	26.42
351.672	29.65
351.882	29.78
352.092	27.96
352.302	28.1
352.511	26.56
352.721	26.14
352.931	23.33
353.141	21.29
353.35	21.53
353.56	19.35
353.77	19.48
353.979	16.33
354.189	16
354.399	17.33
354.608	17.52
354.818	17.46
355.027	16.09
355.237	19.07
355.447	19.82
355.656	18.98
355.866	19.46
356.075	20.48
356.285	21.13
356.494	20.99
356.704	20.76
356.913	20.83
357.123	22.68
357.332	26.25
357.542	23.88
357.751	22.11
357.96	23.39
358.17	23.86
358.379	23.31
358.589	22.57
358.798	23.08
359.007	22.19
359.217	20.99
359.426	19.91
359.635	18.15
359.845	17.25
360.054	16.85
360.263	14.84
360.472	15.57
360.682	15.37
360.891	15.15
361.1	15.6
361.309	16.53
361.519	17.35
361.728	17.9
361.937	17.53
362.146	19.25
362.355	20.31
362.564	21.1
362.774	20.04
362.983	19.72
363.192	19.15
363.401	19.29
363.61	18.58
363.819	19.11
364.028	16.97
364.237	15.73
364.446	14.73
364.655	14.1
364.864	15.32
365.073	15.05
365.282	15.34
365.491	17.03
365.7	17.3
365.909	17.41
366.118	16.38
366.327	17.62
366.536	18.32
366.745	18.81
366.954	18.85
367.162	17.63
367.371	18.83
367.58	17.77
367.789	17.78
367.998	16.15
368.207	15.48
368.415	16.95
368.624	17.38
368.833	18.81
369.042	18.97
369.25	19.59
369.459	19.94
369.668	19.56
369.877	20.52
370.085	19.91
370.294	20.16
370.503	21.86
370.711	20.21
370.92	19.85
371.129	19.43
371.337	18.5
371.546	18.93
371.754	19.8
371.963	20
372.171	20.88
372.38	22.7
372.589	22.05
372.797	21.65
373.006	22.03
373.214	22.02
373.423	22.11
373.631	23.13
373.84	24.4
374.048	22.29
374.256	20.99
374.465	19.74
374.673	18.48
374.882	18.48
375.09	18.43
375.298	17.82
375.507	17.75
375.715	16.37
375.923	15.37
376.132	12.75
376.34	14.52
376.548	15.83
376.757	16
376.965	14.53
377.173	14.93
377.381	13.97
377.59	15.07
377.798	15.36
378.006	16.97
378.214	16.94
378.423	17.39
378.631	16.83
378.839	15.45
379.047	14.1
379.255	15.6
379.463	15.56
379.671	15.97
379.879	15.65
380.088	14.35
380.296	14.56
380.504	15.17
380.712	15.04
380.92	14.79
381.128	14.98
381.336	17.77
381.544	18.56
381.752	18.34
381.96	16.47
382.168	17.05
382.376	17.11
382.584	16.51
382.791	16.76
382.999	17.92
383.207	17.21
383.415	17.47
383.623	16.93
383.831	14.73
384.039	14.39
384.247	14.45
384.454	13.12
384.662	13.21
384.87	11.62
385.078	11.69
385.285	10.89
385.493	12.87
385.701	13.05
385.909	11.16
386.116	12.2
386.324	12.32
386.532	13.44
386.739	14.13
386.947	15.51
387.155	17.09
387.362	17.33
387.57	16.44
387.778	16.64
387.985	16.81
388.193	16.48
388.4	16.82
388.608	17.13
388.816	17.09
389.023	16.63
389.231	15.84
389.438	16.11
389.646	15.65
389.853	16.45
390.061	15.24
390.268	14.95
390.475	16.26
390.683	16.43
390.89	16.49
391.098	16.64
391.305	17.07
391.512	16.98
391.72	16.33
391.927	15.99
392.135	15.27
392.342	16.08
392.549	15.88
392.756	15.76
392.964	15.42
393.171	15.79
393.378	16.46
393.586	15.4
393.793	14.83
394	14.95
394.207	14.4
394.414	15.29
394.622	15.55
394.829	15.4
395.036	15.61
395.243	15.49
395.45	15.13
395.657	13.95
395.864	14.48
396.072	14.93
396.279	14.59
396.486	15.71
396.693	14.79
396.9	14.25
397.107	15.31
397.314	15.53
397.521	14.88
397.728	15.37
397.935	15.39
398.142	15.23
398.349	15.05
398.556	13.77
398.763	12.89
398.97	13.65
399.177	12.83
399.383	12.15
399.59	10.93
399.797	11.39
400.004	11.09
400.211	11.28
400.418	11
400.625	11.38
400.831	11.99
401.038	12.07
401.245	11.51
401.452	11.66
401.658	11.39
401.865	10.98
402.072	10.52
402.279	9.77
402.485	10.29
402.692	10.68
402.899	11.68
403.105	12.36
403.312	13.58
403.519	15.43
403.725	14.81
403.932	14.96
404.138	14.79
404.345	15.3
404.552	15.23
404.758	15.38
404.965	15.82
405.171	14.65
405.378	15.38
405.584	14.17
405.791	12.68
405.997	13.17
406.204	12.62
406.41	13.45
406.617	13.54
406.823	14.15
407.029	13.06
407.236	13.17
407.442	13.36
407.649	12.59
407.855	13.99
408.061	14.14
408.268	13.37
408.474	12.95
408.68	12.32
408.887	12.18
409.093	12.8
409.299	13.42
409.505	13.63
409.712	13.05
409.918	13.31
410.124	11.69
410.33	12.06
410.537	12.47
410.743	13.49
410.949	14.18
411.155	13.32
411.361	11.88
411.567	12.42
411.773	11.78
411.98	12.48
412.186	11.82
412.392	12.77
412.598	12.86
412.804	13.28
413.01	12.03
413.216	11.87
413.422	12.56
413.628	14.37
413.834	13.85
414.04	13.06
414.246	12.82
414.452	13.8
414.658	13.58
414.864	12.97
415.07	12.09
415.275	13.24
415.481	12.59
415.687	12.5
415.893	11.67
416.099	11.72
416.305	12.08
416.511	11.78
416.716	10.76
416.922	11.29
417.128	11.56
417.334	12.26
417.539	11.57
417.745	11.93
417.951	11.28
418.157	10.78
418.362	10.09
418.568	9.84
418.774	9.35
418.979	9.68
419.185	9.22
419.391	9.15
419.596	8.58
419.802	8.5
420.008	8.58
420.213	13.22
420.419	13.28
420.624	14.24
420.83	14.7
421.035	15.4
421.241	15.63
421.446	15.75
421.652	15.43
421.857	15.93
422.063	15.98
422.268	15.53
422.474	11.53
422.679	11.1
422.885	10.35
423.09	9.95
423.295	9.46
423.501	9.12
423.706	9.04
423.911	9.17
424.117	9.24
424.322	9.34
424.527	9.36
424.733	8.71
424.938	9.25
425.143	9.62
425.349	10.21
425.554	10.61
425.759	11.17
425.964	11.39
426.169	11.37
426.375	10.9
426.58	11.18
426.785	11.96
426.99	12.42
427.195	12.42
427.4	12.25
427.605	11.31
427.811	10.96
428.016	10.7
428.221	10.94
428.426	10.65
428.631	10.68
428.836	9.74
429.041	9.31
429.246	9.44
429.451	8.66
429.656	8.9
429.861	9.05
430.066	9.72
430.271	9.74
430.476	8.68
430.681	9.18
430.886	9.84
431.09	10.6
431.295	10.6
431.5	10.78
431.705	11.23
431.91	11.2
432.115	11.29
432.32	11.59
432.524	11.42
432.729	11.71
432.934	11.19
433.139	10.64
433.343	11.16
433.548	11.16
433.753	11.26
433.958	11.19
434.162	10.8
434.367	11.35
434.572	11.09
434.776	10.31
434.981	10.61
435.186	11.15
435.39	10.69
435.595	10.09
435.799	10.67
436.004	10.61
436.209	10.95
436.413	11.07
436.618	10.53
436.822	10.08
437.027	10.36
437.231	10.05
437.436	9.91
437.64	10.04
437.845	9.95
438.049	9.77
438.253	9.99
438.458	10.28
438.662	10.29
438.867	10.24
439.071	10.33
439.275	10.1
439.48	10.53
439.684	10.15
439.888	10.73
440.093	10.69
440.297	10.35
440.501	10
440.706	9.25
440.91	9.02
441.114	9.37
441.318	9.54
441.523	10.49
441.727	10.16
441.931	11.38
442.135	11.72
442.339	11.68
442.543	11.87
442.748	11.77
442.952	12.07
443.156	12.12
443.36	11.25
443.564	11.04
443.768	10.2
443.972	10.57
444.176	9.9
444.38	9.03
444.584	9.57
444.788	9.73
444.992	9.52
445.196	9.27
445.4	9.06
445.604	9.18
445.808	8.85
446.012	9.13
446.216	8.22
446.42	8.18
446.624	8.47
446.828	8.16
447.032	7.64
447.235	7.8
447.439	7.89
447.643	7.93
447.847	8.78
448.051	9.12
448.254	8.93
448.458	9.27
448.662	9.19
448.866	9.14
449.069	8.75
449.273	9.15
449.477	9.23
449.681	9.02
449.884	9.86
450.088	9.16
450.292	8.85
450.495	9.22
450.699	9.44
450.902	8.87
451.106	8.73
451.31	8.86
451.513	9.19
451.717	9.56
451.92	10.04
452.124	9.57
452.327	9.64
452.531	10.41
452.734	10.77
452.938	10.38
453.141	11.45
453.345	12
453.548	11.77
453.752	11.73
453.955	11.2
454.158	10.86
454.362	10.91
454.565	11.29
454.769	10.92
454.972	10.04
455.175	10.26
455.379	9.03
455.582	9.15
455.785	9.73
455.988	9.02
456.192	9.22
456.395	9.84
456.598	9.18
456.801	9.03
457.005	9.07
457.208	9.42
457.411	9.82
457.614	9.79
457.817	9.79
458.021	9.36
458.224	9.32
458.427	9.63
458.63	9.47
458.833	10.02
459.036	9.7
459.239	9.98
459.442	9.82
459.645	9.89
459.848	10.17
460.051	9.95
460.254	9.96
460.457	9.69
460.66	9.51
460.863	9.79
461.066	9.52
461.269	9.93
461.472	9.59
461.675	9.77
461.878	9.71
462.081	10.19
462.284	10.03
462.486	10.05
462.689	10.72
462.892	10.5
463.095	10.04
463.298	10.14
463.5	10.32
463.703	10.07
463.906	10.02
464.109	9.5
464.311	9.44
464.514	9.86
464.717	10.11
464.92	10.41
465.122	10.59
465.325	10.71
465.528	10.25
465.73	9.72
465.933	9.29
466.135	9.81
466.338	10.14
466.541	9.38
466.743	9.1
466.946	9.6
467.148	9.18
467.351	8.4
467.553	8.93
467.756	9.26
467.958	9.54
468.161	10.8
468.363	10.21
468.566	10.17
468.768	10.98
468.971	10.75
469.173	10.54
469.375	11.01
469.578	11.33
469.78	10.5
469.983	10.44
470.185	10.23
470.387	9.73
470.59	9.8
470.792	9.57
470.994	8.65
471.196	8.54
471.399	8.4
471.601	8.02
471.803	8.33
472.005	8.02
472.208	8.5
472.41	8.21
472.612	8.11
472.814	8.24
473.016	8.43
473.218	9.22
473.421	10.05
473.623	10.04
473.825	10.88
474.027	10.93
474.229	11.68
474.431	11.63
474.633	12.09
474.835	11.84
475.037	11.9
475.239	12.29
475.441	12.65
475.643	12.15
475.845	12.06
476.047	11.21
476.249	11.04
476.451	10.5
476.653	10.61
476.855	10.56
477.057	10.32
477.258	9.91
477.46	9.56
477.662	9.1
477.864	9.24
478.066	9.48
478.268	9.85
478.469	9.64
478.671	9.69
478.873	9.14
479.075	8.9
479.276	9.14
479.478	8.99
479.68	8.97
479.882	9.08
480.083	8.56
480.285	8.39
480.487	8.11
480.688	8.04
480.89	8.2
481.091	8.04
481.293	7.89
481.495	7.71
481.696	7.93
481.898	7.89
482.099	7.77
482.301	7.87
482.502	7.7
482.704	7.61
482.905	7.57
483.107	7.47
483.308	7.54
483.51	7.73
483.711	7.76
483.913	7.76
484.114	7.78
484.315	7.58
484.517	7.8
484.718	7.9
484.92	8.11
485.121	8.27
485.322	8.29
485.524	8.36
485.725	8.3
485.926	8.26
486.127	8.1
486.329	7.92
486.53	8.23
486.731	7.91
486.932	7.94
487.134	7.94
487.335	7.73
487.536	7.83
487.737	7.58
487.938	7.58
488.139	7.33
488.341	7.39
488.542	7.29
488.743	7.29
488.944	7.21
489.145	7.29
489.346	6.9
489.547	7.04
489.748	6.72
489.949	6.99
490.15	6.83
490.351	7.25
490.552	7.27
490.753	7.33
490.954	7.34
491.155	7.62
491.356	7.45
491.557	7.76
491.758	8.05
491.959	8.47
492.159	8.63
492.36	8.83
492.561	9.16
492.762	9.26
492.963	9.71
493.164	9.67
493.364	9.39
493.565	9.33
493.766	9.52
493.967	9.84
494.167	9.69
494.368	9.23
494.569	9.52
494.769	9.61
494.97	9.44
495.171	9.47
495.371	9.68
495.572	9.49
495.773	9.55
495.973	9.39
496.174	8.77
496.375	8.71
496.575	8.94
496.776	9
496.976	8.51
497.177	8.37
497.377	8.43
497.578	8.12
497.778	8.74
497.979	9.1
498.179	9.31
498.38	9.17
498.58	9.13
498.78	9.17
498.981	8.7
499.181	8.62
499.382	9.14
499.582	8.88
499.782	9.11
499.983	8.78
500.183	8.51
500.383	8.93
500.584	9.13
500.784	9.27
500.984	9.22
501.184	9.55
501.385	9.35
501.585	9.21
501.785	9.55
501.985	9.8
502.185	9.65
502.386	10.1
502.586	9.7
502.786	9.77
502.986	10.34
503.186	10.93
503.386	10.79
503.586	11.08
503.786	10.91
503.987	10.64
504.187	10.21
504.387	10.59
504.587	10.78
504.787	11.06
504.987	11.23
505.187	11.03
505.387	10.97
505.587	10.91
505.786	10.86
505.986	11.36
506.186	11.36
506.386	11.68
506.586	11.64
506.786	11.21
506.986	10.68
507.186	10.95
507.386	10.66
507.585	10.43
507.785	10.34
507.985	10.13
508.185	9.95
508.384	9.9
508.584	9.52
508.784	9.66
508.984	10.02
509.183	10.28
509.383	10.09
509.583	10.14
509.782	9.75
509.982	10.21
510.182	10.72
510.381	10.57
510.581	10.37
510.781	10.87
510.98	11.01
511.18	10.87
511.379	11.02
511.579	10.9
511.778	10.95
511.978	11.04
512.177	10.88
512.377	10.39
512.576	11.09
512.776	11.59
512.975	11.21
513.175	10.87
513.374	10.76
513.573	11
513.773	11.38
513.972	11.27
514.172	11.73
514.371	11.93
514.57	12.39
514.77	11.82
514.969	11.82
515.168	11.99
515.367	11.88
515.567	11.91
515.766	11.5
515.965	11.13
516.164	11.39
516.364	11.37
516.563	11.49
516.762	11.38
516.961	11.5
517.16	11.57
517.359	11.34
517.559	11.54
517.758	11.5
517.957	11.51
518.156	12.09
518.355	12.09
518.554	12.29
518.753	12.05
518.952	12.15
519.151	12.1
519.35	11.89
519.549	12.31
519.748	12.56
519.947	12.61
520.146	12.58
520.345	12.43
520.544	12.52
520.743	12.21
520.942	12.52
521.141	12.87
521.339	13.19
521.538	12.77
521.737	12.37
521.936	12.53
522.135	12.57
522.333	13.19
522.532	13.02
522.731	13.59
522.93	13.56
523.129	13.71
523.327	12.85
523.526	12.83
523.725	13.44
523.923	13.44
524.122	13.07
524.321	12.91
524.519	12.59
524.718	12.97
524.917	12.64
525.115	12.78
525.314	12.42
525.512	13.04
525.711	12.73
525.909	12.59
526.108	12.64
526.306	12.61
526.505	12.61
526.703	12.69
526.902	12.26
527.1	12.16
527.299	11.92
527.497	11.93
527.696	11.66
527.894	11.81
528.092	11.96
528.291	11.87
528.489	12
528.688	12.27
528.886	12.13
529.084	12.44
529.283	12.64
529.481	12.84
529.679	13
529.877	13.02
530.076	13.23
530.274	13.32
530.472	13.59
530.67	13.58
530.869	13.06
531.067	13.23
531.265	13.1
531.463	13.05
531.661	13.2
531.859	13.02
532.057	13.58
532.255	13.37
532.454	13.15
532.652	13.32
532.85	13.4
533.048	13.87
533.246	13.82
533.444	13.67
533.642	13.63
533.84	13.6
534.038	13.91
534.236	13.18
534.434	12.95
534.632	13.12
534.83	13.21
535.027	13.21
535.225	12.95
535.423	12.77
535.621	13.08
535.819	12.94
536.017	13.09
536.215	13.12
536.412	13.64
536.61	13.94
536.808	14.19
537.006	14.15
537.203	13.88
537.401	14.11
537.599	14.76
537.797	14.99
537.994	15.32
538.192	15.4
538.39	15.25
538.587	15.37
538.785	15.61
538.983	15.23
539.18	15.21
539.378	15.44
539.575	15.3
539.773	15.11
539.97	14.82
540.168	14.47
540.366	14.35
540.563	14.34
540.761	14.42
540.958	14.14
541.155	14.25
541.353	14.13
541.55	14.02
541.748	13.94
541.945	13.85
542.143	14.16
542.34	14.42
542.537	14.3
542.735	14.47
542.932	14.35
543.129	14.74
543.327	14.81
543.524	14.88
543.721	15.09
543.919	15.44
544.116	15.46
544.313	14.59
544.51	14.8
544.708	15.08
544.905	15.01
545.102	15.15
545.299	15.1
545.496	14.84
545.693	15.08
545.891	14.64
546.088	14.9
546.285	14.67
546.482	15.54
546.679	15.45
546.876	15.72
547.073	15.86
547.27	16.05
547.467	15.86
547.664	16.09
547.861	16.1
548.058	16.7
548.255	16.72
548.452	17.34
548.649	17.31
548.846	17.28
549.043	16.88
549.24	17.14
549.437	16.54
549.633	16.88
549.83	16.99
550.027	17.14
550.224	16.98
550.421	16.46
550.618	16.06
550.814	16.02
551.011	15.65
551.208	16.04
551.405	15.84
551.601	16.55
551.798	16.37
551.995	16.82
552.191	16.86
552.388	17.24
552.585	17.39
552.781	17.54
552.978	17.64
553.175	18.38
553.371	18.69
553.568	19.15
553.764	18.41
553.961	18.99
554.157	18.69
554.354	18.3
554.55	18.12
554.747	17.52
554.943	17.84
555.14	18.06
555.336	17.61
555.533	17.9
555.729	17.64
555.926	18.17
556.122	18.11
556.318	18.05
556.515	18.51
556.711	18.57
556.907	19.68
557.104	19.69
557.3	19.05
557.496	20.02
557.693	19.48
557.889	19.22
558.085	19.09
558.281	18.57
558.478	18.73
558.674	18.38
558.87	18.48
559.066	17.98
559.262	18.1
559.459	18.61
559.655	18
559.851	17.93
560.047	17.95
560.243	18.27
560.439	18.39
560.635	17.44
560.831	17.71
561.027	17.68
561.223	18.65
561.419	18.82
561.615	18.92
561.811	17.78
562.007	17.76
562.203	18.45
562.399	18.49
562.595	18.22
562.791	19.6
562.987	19.97
563.183	19.72
563.379	19.23
563.575	19.36
563.771	19.17
563.966	19.84
564.162	19.6
564.358	19.17
564.554	19.15
564.75	19.92
564.945	19.33
565.141	19.13
565.337	19.5
565.533	19.03
565.728	18.94
565.924	19.48
566.12	19.94
566.315	20.25
566.511	19.8
566.707	20.03
566.902	19.3
567.098	19.43
567.293	18.91
567.489	19.12
567.684	19.11
567.88	18.66
568.076	18.35
568.271	18.13
568.467	18.68
568.662	18.66
568.858	18.31
569.053	18.76
569.248	18.42
569.444	18.92
569.639	18.36
569.835	18.69
570.03	18.16
570.225	18.28
570.421	18.27
570.616	17.68
570.812	17.99
571.007	18.03
571.202	18.26
571.397	18.05
571.593	17.73
571.788	17.69
571.983	17.58
572.178	17.74
572.374	17.79
572.569	17.47
572.764	17.63
572.959	17.25
573.154	16.9
573.35	16.44
573.545	16.9
573.74	16.77
573.935	16.88
574.13	16.98
574.325	16.99
574.52	17.25
574.715	17.48
574.91	16.87
575.105	17.14
575.3	17.82
575.495	17.91
575.69	18.02
575.885	18.54
576.08	18.47
576.275	18.04
576.47	18.72
576.665	18.86
576.86	19.17
577.055	19.9
577.25	19.94
577.444	19.12
577.639	18.75
577.834	18.43
578.029	18.36
578.224	19.28
578.418	19.88
578.613	20.43
578.808	19.94
579.003	20.35
579.197	20.23
579.392	21.52
579.587	22.59
579.781	23.45
579.976	24.23
580.171	24.16
580.365	23.41
580.56	22.37
580.755	22.41
580.949	22.44
581.144	22.32
581.338	22.78
581.533	22.13
581.727	20.15
581.922	19.63
582.116	19.18
582.311	19.04
582.505	19.42
582.7	20.65
582.894	20.58
583.089	20.71
583.283	20.16
583.478	19.1
583.672	18.64
583.866	19.43
584.061	19.71
584.255	18.98
584.449	19.5
584.644	19.37
584.838	19.41
585.032	18.7
585.226	18.17
585.421	18.33
585.615	19.17
585.809	19.11
586.003	19.59
586.198	19.32
586.392	20.18
586.586	19.81
586.78	20.22
586.974	20
587.168	20.18
587.363	19.97
587.557	19.89
587.751	19.43
587.945	20.05
588.139	20.2
588.333	20.8
588.527	20.93
588.721	20.3
588.915	19.68
589.109	19.45
589.303	18.81
589.497	18.81
589.691	19.44
589.885	20.32
590.079	20.1
590.273	20.27
590.466	19.11
590.66	19.26
590.854	18.91
591.048	19.45
591.242	19.91
591.436	20.93
591.629	21.38
591.823	21.18
592.017	20.55
592.211	20.48
592.404	20.04
592.598	20.52
592.792	20.05
592.986	20.89
593.179	20.09
593.373	19.93
593.567	19.81
593.76	20.07
593.954	19.92
594.147	20.3
594.341	20.08
594.535	20.32
594.728	20.2
594.922	20.66
595.115	20.79
595.309	20.65
595.502	20.24
595.696	20.21
595.889	20.15
596.083	20.11
596.276	19.58
596.47	19.92
596.663	20.18
596.856	20.48
597.05	19.77
597.243	20.01
597.437	20.64
597.63	21.11
597.823	21.15
598.017	21.1
598.21	21.08
598.403	21.41
598.596	21.32
598.79	21.02
598.983	21.42
599.176	22.22
599.369	22.31
599.563	22.23
599.756	22.22
599.949	22.3
600.142	21.98
600.335	22.48
600.528	22.56
600.722	23.43
600.915	24.19
601.108	24.04
601.301	23.84
601.494	23.05
601.687	23.01
601.88	22.96
602.073	22.37
602.266	22.15
602.459	21.68
602.652	21.83
602.845	21.05
603.038	19.74
603.231	19.82
603.424	19.74
603.617	20.07
603.809	19.58
604.002	20.12
604.195	20.19
604.388	19.88
604.581	19.93
604.774	19.27
604.966	19.22
605.159	20.32
605.352	19.71
605.545	20.46
605.737	20.32
605.93	20.96
606.123	20.47
606.316	20.87
606.508	21.05
606.701	21.75
606.894	22.5
607.086	22.72
607.279	22.11
607.471	22.28
607.664	21.41
607.857	20.99
608.049	22.01
608.242	21.87
608.434	21.43
608.627	21.57
608.819	20.55
609.012	19.87
609.204	20.3
609.397	20.13
609.589	20.25
609.782	19.67
609.974	20.52
610.166	18.92
610.359	19.41
610.551	20.43
610.743	20.58
610.936	21.71
611.128	22.63
611.32	22.14
611.513	22.4
611.705	23.35
611.897	24.16
612.09	23.95
612.282	25.2
612.474	25.21
612.666	24.91
612.858	25.17
613.051	24.33
613.243	23.98
613.435	23.78
613.627	24.44
613.819	24.17
614.011	24.92
614.203	24.66
614.395	24.72
614.588	23.74
614.78	23.17
614.972	23.9
615.164	24.81
615.356	25.13
615.548	25.25
615.74	24.79
615.932	24.66
616.124	24.33
616.315	25.07
616.507	25.04
616.699	25.59
616.891	26.01
617.083	25.09
617.275	24.05
617.467	23.94
617.659	24.28
617.85	24.7
618.042	23.52
618.234	23.79
618.426	23
618.618	22.51
618.809	21.73
619.001	21.98
619.193	23.13
619.384	24.82
619.576	25.67
619.768	25.98
619.959	25.67
620.151	26.49
620.343	26.73
620.534	27.98
620.726	28.47
620.917	29.36
621.109	29.15
621.301	28.36
621.492	27.06
621.684	25.75
621.875	24.15
622.067	23.86
622.258	23.97
622.45	24.2
622.641	22.73
622.832	22.89
623.024	22.97
623.215	23.45
623.407	23.28
623.598	24.3
623.789	23.43
623.981	24.27
624.172	24.56
624.363	23.95
624.555	23.41
624.746	23.57
624.937	22.66
625.129	22.33
625.32	21.77
625.511	22.12
625.702	21.28
625.893	22.32
626.085	21.97
626.276	21.9
626.467	22.56
626.658	22.64
626.849	23.27
627.04	23.36
627.231	23.19
627.422	23.48
627.614	22.61
627.805	22.14
627.996	22.32
628.187	22.81
628.378	22.7
628.569	22.75
628.76	23.49
628.951	23.17
629.142	22.93
629.332	23.21
629.523	23.08
629.714	24.22
629.905	25.71
630.096	24.99
630.287	25.08
630.478	25.65
630.669	24.58
630.859	23.51
631.05	23.33
631.241	24.13
631.432	23.54
631.623	23.65
631.813	24.1
632.004	23.9
632.195	24.32
632.385	24.38
632.576	24.35
632.767	25.08
632.957	25.41
633.148	25.97
633.339	25.28
633.529	26.34
633.72	25.94
633.91	25.05
634.101	24.41
634.292	25.11
634.482	24.73
634.673	24.37
634.863	23.85
635.054	24.31
635.244	24.44
635.435	25.38
635.625	25.32
635.815	25.18
636.006	26.28
636.196	26.64
636.387	26.13
636.577	26.39
636.767	26.39
636.958	27.75
637.148	27.15
637.338	26.6
637.529	25.65
637.719	25.71
637.909	27.05
638.099	26.76
638.29	27.09
638.48	27.32
638.67	26.91
638.86	27.31
639.05	27.13
639.241	27.39
639.431	27.41
639.621	27.46
639.811	28.47
640.001	27.96
640.191	27.75
640.381	28.2
640.571	29.45
640.761	30.12
640.951	30.46
641.141	29.83
641.331	29.6
641.521	30.75
641.711	31.11
641.901	30.45
642.091	31.09
642.281	30.21
642.471	28.91
642.661	27.66
642.851	27.97
643.041	27.56
643.231	28.75
643.42	28.98
643.61	28.11
643.8	28.12
643.99	27.1
644.18	26.92
644.369	27.42
644.559	27.83
644.749	26.57
644.939	25.97
645.128	25.36
645.318	23.06
645.508	23.33
645.697	22.98
645.887	24.04
646.076	24.14
646.266	22.31
646.456	21.93
646.645	22.07
646.835	23.05
647.024	22.32
647.214	22.88
647.403	23.73
647.593	23.32
647.782	24.04
647.972	22.18
648.161	23.08
648.351	24.41
648.54	26
648.73	26.24
648.919	27.19
649.108	28.57
649.298	28.53
649.487	28.59
649.677	28.65
649.866	29.37
650.055	30.45
650.244	30.61
650.434	29.99
650.623	28.94
650.812	28.37
651.002	27.89
651.191	27.78
651.38	26.42
651.569	27.13
651.758	26.88
651.947	26.08
652.137	24.7
652.326	24.03
652.515	23.83
652.704	22.83
652.893	23.27
653.082	24.1
653.271	22.43
653.46	24.56
653.649	24.58
653.838	23.83
654.027	22.63
654.216	23.54
654.405	23.04
654.594	24.26
654.783	26.12
654.972	25.1
655.161	24.43
655.35	25.23
655.539	23.57
655.728	22.29
655.916	23.61
656.105	23.9
656.294	25.19
656.483	24.76
656.672	24
656.86	22.8
657.049	23.5
657.238	22.79
657.427	23.08
657.615	24.26
657.804	24.43
657.993	22.99
658.181	23.72
658.37	23.14
658.559	23.7
658.747	24.26
658.936	24.25
659.125	24.61
659.313	24.86
659.502	24.95
659.69	24.17
659.879	25.58
660.067	26.08
660.256	26.36
660.444	25.24
660.633	25.1
660.821	25.12
661.01	26.03
661.198	25.68
661.387	24.61
661.575	26.18
661.763	27.43
661.952	26.94
662.14	29.26
662.328	28.6
662.517	29.83
662.705	30.94
662.893	30.19
663.082	29.81
663.27	29.51
663.458	30.95
663.646	28.08
663.834	28.04
664.023	28.01
664.211	26.75
664.399	29.25
664.587	29.54
664.775	28.07
664.963	28.14
665.152	28.3
665.34	29.45
665.528	29.15
665.716	31.85
665.904	30.25
666.092	29.33
666.28	31.17
666.468	29.69
666.656	29.89
666.844	31.84
667.032	31.99
667.22	31.55
667.408	30.42
667.596	31.38
667.784	30.05
667.971	31.73
668.159	31.37
668.347	29.32
668.535	28.63
668.723	28.77
668.911	27.17
669.098	27.57
669.286	28.02
669.474	28.29
669.662	26.72
669.849	27.91
670.037	27.56
670.225	28.93
670.413	29.86
670.6	30.75
670.788	30.12
670.976	30.48
671.163	31.1
671.351	30.84
671.538	32.01
671.726	33.47
671.913	31.55
672.101	32.1
672.289	31.54
672.476	30.74
672.664	29.14
672.851	29.63
673.039	29.42
673.226	28.84
673.413	30.18
673.601	29.09
673.788	28.65
673.976	28.98
674.163	28.44
674.35	28
674.538	28.13
674.725	29.22
674.912	28.77
675.1	28.91
675.287	29.72
675.474	27.94
675.662	27.88
675.849	28.17
676.036	29.55
676.223	30
676.411	30.68
676.598	30.24
676.785	29.61
676.972	29.48
677.159	30.35
677.346	28.89
677.533	29.48
677.721	28.85
677.908	28.22
678.095	26.16
678.282	24.92
678.469	23.9
678.656	23.58
678.843	25.02
679.03	25.55
679.217	24.99
679.404	25.11
679.591	25.31
679.778	25.64
679.964	25.49
680.151	25.63
680.338	27.38
680.525	28.71
680.712	29.52
680.899	29.36
681.086	28.22
681.272	28.57
681.459	28.99
681.646	28.8
681.833	29.68
682.02	30.14
682.206	32.15
682.393	29.75
682.58	29.07
682.766	30.16
682.953	28.99
683.14	31.15
683.326	30.86
683.513	31.06
683.7	32.79
683.886	33.76
684.073	33.22
684.259	32.59
684.446	33.57
684.632	33.65
684.819	33.78
685.005	34.43
685.192	33.62
685.378	32.95
685.565	31.98
685.751	30.21
685.938	31.14
686.124	31.49
686.31	31.93
686.497	32.24
686.683	32.9
686.87	33.24
687.056	33.18
687.242	32.52
687.429	33.54
687.615	34.24
687.801	34.58
687.987	32.42
688.174	31.83
688.36	33.15
688.546	31.59
688.732	30.81
688.918	28.44
689.105	26.85
689.291	27.97
689.477	27.17
689.663	26.97
689.849	27.44
690.035	28.08
690.221	29.69
690.407	27.98
690.593	31.18
690.779	31.86
690.965	33.01
691.151	34.43
691.337	34.4
691.523	33.81
691.709	32.56
691.895	32.28
692.081	33.79
692.267	34.17
692.453	32.64
692.639	30.58
692.825	30.65
693.011	28.6
693.196	29.36
693.382	28.43
693.568	29.57
693.754	31.4
693.94	30.08
694.125	26.92
694.311	27.21
694.497	29.04
694.682	29.55
694.868	29.26
695.054	30.71
695.239	29.33
695.425	29.13
695.611	29.25
695.796	29.57
695.982	29.97
696.168	30.57
696.353	28.78
696.539	28.71
696.724	27.87
696.91	28.49
697.095	27.21
697.281	27.95
697.466	28.8
697.652	28.77
697.837	28.83
698.023	28.59
698.208	28.82
698.393	28.83
698.579	28.39
698.764	29.71
698.949	28.93
699.135	30.49
699.32	29.95
699.505	28.31
699.691	28.95
699.876	27.31
700.061	28.94
700.246	29.32
700.432	30.84
700.617	31.33
700.802	30.74
700.987	31.56
701.172	29.93
701.358	30.94
701.543	32.7
701.728	31.55
701.913	32.3
702.098	30.85
702.283	31.38
702.468	31.09
702.653	31.58
702.838	31.18
703.023	29.97
703.208	33.63
703.393	35.55
703.578	33.07
703.763	34.28
703.948	36.97
704.133	39.66
704.318	40.25
704.503	40.73
704.688	40.64
704.873	39.48
705.057	41.86
705.242	40.45
705.427	40.45
705.612	41.21
705.797	40.64
705.981	39.75
706.166	37.05
706.351	33.39
706.536	32.64
706.72	33.37
706.905	36.03
707.09	35.87
707.274	35.67
707.459	31.84
707.644	34.01
707.828	33.42
708.013	31.69
708.197	32.01
708.382	33.68
708.567	32.77
708.751	33.52
708.936	30.69
709.12	29.28
709.305	27.76
709.489	28.5
709.673	27.28
709.858	27.36
710.042	27.56
710.227	28.3
710.411	27.51
710.596	27.09
710.78	24.1
710.964	25.15
711.149	26.13
711.333	27.99
711.517	27.59
711.702	27.98
711.886	25.11
712.07	24.75
712.254	22.63
712.438	24.27
712.623	26.04
712.807	27.16
712.991	26.81
713.175	25.97
713.359	25.31
713.544	24.92
713.728	26.44
713.912	30.57
714.096	31.7
714.28	32.15
714.464	32.7
714.648	30.82
714.832	29.29
715.016	31.64
715.2	29.87
715.384	31.02
715.568	31.2
715.752	29.22
715.936	30.34
716.12	31.47
716.304	30.76
716.488	29.72
716.671	31.55
716.855	31.84
717.039	30.12
717.223	33.14
717.407	31.15
717.59	30.74
717.774	31.63
717.958	29.2
718.142	27.37
718.325	27.65
718.509	29.27
718.693	26.37
718.877	29.27
719.06	30
719.244	29.96
719.428	30.76
719.611	32.19
719.795	34.35
719.978	35.01
720.162	34.41
720.345	33.36
720.529	35.02
720.713	38.18
720.896	37.74
721.08	38.08
721.263	34.85
721.446	35.63
721.63	35.07
721.813	33.29
721.997	31.52
722.18	33.89
722.364	37.2
722.547	33.4
722.73	35.05
722.914	34.9
723.097	34.5
723.28	39.35
723.464	39.83
723.647	40.53
723.83	41.13
724.013	41.74
724.197	42.04
724.38	40.37
724.563	40.21
724.746	38.41
724.929	38.82
725.112	37.96
725.296	35.9
725.479	34.93
725.662	33.73
725.845	32.89
726.028	35.85
726.211	34.93
726.394	35.31
726.577	34.51
726.76	32.37
726.943	30.44
727.126	31.1
727.309	31.35
727.492	29.35
727.675	31.06
727.858	30.46
728.041	26.94
728.224	25.17
728.407	26.82
728.589	28.59
728.772	29.47
728.955	33.78
729.138	30.44
729.321	30.52
729.503	31.58
729.686	32.03
729.869	33.42
730.052	36.81
730.234	41.31
730.417	41.35
730.6	40.53
730.782	39.04
730.965	35.32
731.148	36.19
731.33	37.46
731.513	38.62
731.695	38.26
731.878	36.5
732.061	35.02
732.243	32.86
732.426	32.57
732.608	33.65
732.791	35.24
732.973	36.14
733.156	38.13
733.338	37.14
733.52	37.67
733.703	37.12
733.885	39.01
734.068	38.42
734.25	37.63
734.432	36.46
734.615	37.2
734.797	38.26
734.979	37.59
735.162	41.1
735.344	41.85
735.526	40.28
735.708	41.85
735.891	42.07
736.073	42.56
736.255	42.96
736.437	41.69
736.619	40.55
736.802	39.63
736.984	42.41
737.166	38.65
737.348	37.57
737.53	37.86
737.712	38.24
737.894	40.7
738.076	42.53
738.258	43.2
738.44	43.99
738.622	45.3
738.804	43.57
738.986	43.92
739.168	43.73
739.35	46.72
739.532	49.8
739.714	49.18
739.896	44.32
740.078	41.17
740.259	39.51
740.441	38.37
740.623	34.89
740.805	37.39
740.987	36.12
741.168	38.3
741.35	33.16
741.532	31.08
741.714	31.29
741.895	35.81
742.077	38.36
742.259	38.38
742.44	42.29
742.622	46.8
742.804	47.75
742.985	49.34
743.167	50.61
743.348	53.57
743.53	57.81
743.711	53.9
743.893	53.41
744.075	54.09
744.256	57.45
744.438	56.44
744.619	52.99
744.8	52.04
744.982	50.84
745.163	50.24
745.345	48.29
745.526	48.79
745.707	51.83
745.889	52.02
746.07	45.35
746.252	42.81
746.433	40.85
746.614	41.32
746.795	40.54
746.977	41.79
747.158	40.14
747.339	41.18
747.52	38.94
747.702	40.56
747.883	37.31
748.064	42.99
748.245	42.3
748.426	43.63
748.607	48.17
748.788	49.47
748.97	47.97
749.151	48.49
749.332	51.08
749.513	47.04
749.694	42.29
749.875	43.99
750.056	43.29
750.237	42.74
750.418	42.5
750.599	38.79
750.78	38.9
750.96	38
751.141	41.2
751.322	40.63
751.503	44.33
751.684	46.64
751.865	44.25
752.046	44.61
752.226	46.97
752.407	52.73
752.588	54.5
752.769	56.86
752.949	61.14
753.13	61
753.311	59.1
753.492	57.9
753.672	57.98
753.853	61.19
754.034	66.58
754.214	65.44
754.395	59.82
754.575	57.71
754.756	58.9
754.937	55.74
755.117	55.25
755.298	61.91
755.478	61.52
755.659	65.29
755.839	64.97
756.02	60.41
756.2	60.7
756.381	59.13
756.561	62.54
756.741	61.16
756.922	61.63
757.102	58.48
757.283	53.33
757.463	55.58
757.643	52.24
757.823	45.33
758.004	47.22
758.184	48.75
758.364	48.4
758.545	45.04
758.725	43.05
758.905	39.46
759.085	37.57
759.265	42.27
759.446	38.64
759.626	38.41
759.806	43.66
759.986	36.45
760.166	34.66
760.346	37.19
760.526	37.28
760.706	38.1
760.886	37.98
761.066	38.38
761.246	33.45
761.426	34.55
761.606	33.33
761.786	31.84
761.966	32.7
762.146	30.81
762.326	31.05
762.506	31.38
762.686	30.82
762.866	31.29
763.046	31.19
763.225	32.61
763.405	31.82
763.585	32.3
763.765	33.8
763.945	37.03
764.124	36.83
764.304	34.94
764.484	35.78
764.664	37.8
764.843	37.82
765.023	39.91
765.203	35.39
765.382	35.13
765.562	35.15
765.741	37.3
765.921	32.76
766.101	36.79
766.28	42.53
766.46	44.09
766.639	42.24
766.819	41.98
766.998	42.9
767.178	48.3
767.357	52.78
767.537	52.54
767.716	52.93
767.896	57.28
768.075	58.33
768.254	53.95
768.434	53.48
768.613	57.93
768.792	59.99
768.972	59.12
769.151	58.27
769.33	55.85
769.51	56.65
769.689	58.42
769.868	56.24
770.047	57.55
770.226	55.23
770.406	52
770.585	51.5
770.764	47.44
770.943	48.91
771.122	47.25
771.301	47.74
771.48	49.71
771.66	48.51
771.839	51.93
772.018	53.12
772.197	57.47
772.376	65.72
772.555	68.81
772.734	75.49
772.913	75.4
773.092	78.47
773.271	76.82
773.449	77.53
773.628	76.42
773.807	72.18
773.986	68.27
774.165	68.92
774.344	64.28
774.523	61.8
774.701	59.54
774.88	55.87
775.059	56.32
775.238	59.57
775.417	59.27
775.595	56.32
775.774	61.25
775.953	57.38
776.131	57.35
776.31	56.17
776.489	53.54
776.667	52.82
776.846	60.46
777.025	60.12
777.203	57.56
777.382	56.25
777.56	64.93
777.739	60.75
777.917	77.88
778.096	76.96
778.274	77.48
778.453	83.7
778.631	88.66
778.81	80.13
778.988	82.47
779.166	76.1
779.345	75.01
779.523	74.83
779.702	77.88
779.88	67.32
780.058	67.9
780.237	71.25
780.415	68.72
780.593	67.46
780.771	65.15
780.95	68.06
781.128	74.18
781.306	75.68
781.484	68.13
781.662	67.45
781.841	69.44
782.019	69.83
782.197	71.62
782.375	71.92
782.553	70.77
782.731	75.76
782.909	74.86
783.087	78.01
783.265	87.63
783.443	82.47
783.621	87.03
783.799	78.02
783.977	77.18
784.155	73.31
784.333	74.29
784.511	73.07
784.689	75.58
784.867	70.26
785.045	73.47
785.223	69.31
785.4	72.16
785.578	71.64
785.756	77.55
785.934	77.44
786.112	74.86
786.289	66.25
786.467	68.3
786.645	61.87
786.823	60.35
787	59.09
787.178	54.49
787.356	54.96
787.533	51.69
787.711	45.81
787.889	43.8
788.066	49.56
788.244	60.14
788.421	60.57
788.599	67.29
788.776	70.02
788.954	64.33
789.131	67.38
789.309	64.75
789.486	66.57
789.664	64.02
789.841	72.15
790.019	65.44
790.196	61.65
790.373	60.57
790.551	56.6
790.728	55.56
790.906	58.23
791.083	54.77
791.26	55.5
791.437	56.96
791.615	65.87
791.792	63.39
791.969	69.99
792.146	72.07
792.324	73.07
792.501	85.75
792.678	82.77
792.855	86.66
793.032	89.09
793.209	96.21
793.387	96.25
793.564	93.07
793.741	95
793.918	81.45
794.095	84.51
794.272	83.85
794.449	79.07
794.626	79.18
794.803	75.43
794.98	75.44
795.157	72.2
795.334	70.37
795.511	62.73
795.688	53.77
795.864	61.32
796.041	59
796.218	62.87
796.395	53.78
796.572	62.07
796.749	68.62
796.925	65.66
797.102	68.18
797.279	77.3
797.456	93.79
797.632	92.76
797.809	97.5
797.986	94.88
798.162	104.61
798.339	110.88
798.516	98.07
798.692	90.01
798.869	96.87
799.046	92.31
799.222	84.34
799.399	81.28
799.575	85.88
799.752	84.75
799.928	87.68
800.105	75.38
800.281	80.98
800.458	90.01
800.634	106.46
800.811	91.64
800.987	86.45
801.163	82.07
801.34	82.77
801.516	84.23
801.692	78.59
801.869	73.88
802.045	83.04
802.221	68.93
802.398	69.1
802.574	59.63
802.75	64.92
802.926	74.75
803.103	76.49
803.279	74.7
803.455	72.07
803.631	72.93
803.807	75.89
803.983	77.97
804.16	96.46
804.336	96.69
804.512	89.27
804.688	84.55
804.864	85.94
805.04	92.69
805.216	85.93
805.392	90.99
805.568	96.14
805.744	97.46
805.92	79.06
806.096	65.57
806.272	76.8
806.448	80.31
806.623	94.16
806.799	95.81
806.975	99.62
807.151	101.23
807.327	94.95
807.503	93.47
807.678	99.18
807.854	108.14
808.03	120.18
808.206	99.54
808.381	110.6
808.557	102.1
808.733	93.3
808.908	88.34
809.084	95.45
809.26	104.08
809.435	102.69
809.611	92.81
809.787	101.73
809.962	97.46
810.138	103.98
810.313	98.63
810.489	90.59
810.664	88.8
810.84	83.64
811.015	91.15
811.191	87.84
811.366	95.9
811.542	103.7
811.717	103.43
811.892	113.25
812.068	116.99
812.243	107.75
812.419	132.26
812.594	148.01
812.769	163.59
812.944	144
813.12	143.06
813.295	104.98
813.47	111.29
813.645	106.43
813.821	93.65
813.996	89.18
814.171	90.08
814.346	78.1
814.521	76.68
814.697	86.63
814.872	87.25
815.047	76.23
815.222	93.5
815.397	85.86
815.572	91.97
815.747	80.13
815.922	73.69
816.097	78.17
816.272	82.36
816.447	83.32
816.622	71.17
816.797	67.16
816.972	73.24
817.147	69.67
817.322	79.91
817.496	74.34
817.671	86.06
817.846	100
818.021	92.76
818.196	91.76
818.371	95.39
818.545	76.45
818.72	84.03
818.895	79.21
819.069	81.61
819.244	71.92
819.419	61.68
819.594	55.85
819.768	46.06
819.943	40.77
820.117	33.79
820.292	29.33
820.467	32.23
820.641	25.81
820.816	25.43
820.99	23.88
821.165	22.78
821.339	25.11
821.514	25.19
821.688	25.69
821.863	26.53
822.037	26.79
822.212	26.38
822.386	26.22
822.56	28.69
822.735	28.21
822.909	28.73
823.084	31.15
823.258	28.02
823.432	30.37
823.606	31.55
823.781	31.06
823.955	34.37
824.129	38.01
824.303	38.24
824.478	41.59
824.652	38.1
824.826	39.99
825	41.08
825.174	46.81
825.348	45.13
825.523	44.74
825.697	45.37
825.871	44.4
826.045	45.24
826.219	45.58
826.393	44.81
826.567	46.71
826.741	46.03
826.915	45.64
827.089	46.47
827.263	50.17
827.437	50.31
827.611	54.15
827.784	56.49
827.958	59.37
828.132	61.63
828.306	67.05
828.48	81.8
828.654	87.4
828.827	100.8
829.001	98.61
829.175	91.88
829.349	91.29
829.522	88.78
829.696	93.56
829.87	88.91
830.044	90.95
830.217	94.72
830.391	92.41
830.565	87.71
830.738	70.74
830.912	66.84
831.085	67.64
831.259	70.62
831.432	68.49
831.606	62.6
831.779	54.97
831.953	43.78
832.126	38.22
832.3	33.04
832.473	30.41
832.647	32.35
832.82	32.97
832.994	33.31
833.167	35.61
833.34	36.55
833.514	40.46
833.687	37.49
833.86	48.32
834.034	53.15
834.207	52.81
834.38	59.04
834.553	64.65
834.727	66.96
834.9	74.15
835.073	77.06
835.246	85.38
835.419	86.66
835.593	103.35
835.766	98.27
835.939	96.13
836.112	103.6
836.285	104.24
836.458	104.67
836.631	127.08
836.804	133.72
836.977	128.73
837.15	125.46
837.323	118.1
837.496	123.99
837.669	120.9
837.842	120.62
838.015	130.59
838.188	135.79
838.361	127.24
838.533	110.71
838.706	106.18
838.879	104.12
839.052	112.83
839.225	112.18
839.398	97.49
839.57	99.24
839.743	102.45
839.916	103.39
840.088	98.75
840.261	97.95
840.434	94.15
840.607	96.48
840.779	97.71
840.952	83.24
841.124	100.9
841.297	108
841.47	102.79
841.642	107.55
841.815	132.02
841.987	134.1
842.16	139.09
842.332	152.64
842.505	154.5
842.677	170.82
842.85	157.12
843.022	137.58
843.194	142.79
843.367	160.93
843.539	136.38
843.712	136.49
843.884	133.33
844.056	160.77
844.229	181.91
844.401	210.25
844.573	247.19
844.745	471.28
844.918	494.79
845.09	613.24
845.262	5220
845.434	-3808.33
845.606	1820.75
845.779	4317.39
845.951	702.99
846.123	519.75
846.295	334.02
846.467	201.62
846.639	186.97
846.811	152.69
846.983	151.26
847.155	141.8
847.327	133.49
847.499	113.18
847.671	107.08
847.843	146.63
848.015	126.27
848.187	128.9
848.359	186.73
848.531	456.38
848.703	634.82
848.875	393.39
849.047	259.89
849.218	334.48
849.39	372.92
849.562	259.9
849.734	253.11
849.905	369.51
850.077	485.77
850.249	229.34
850.421	141.72
850.592	140
850.764	172.26
850.936	178.61
851.107	166.05
851.279	133.48
851.451	152.17
851.622	130.39
851.794	102.1
851.965	100.41
852.137	116.91
852.308	141.96
852.48	163.23
852.651	105.01
852.823	146.68
852.994	162.12
853.166	187.64
853.337	186.1
853.509	157.69
853.68	172.79
853.851	190.76
854.023	188.63
854.194	214.33
854.365	169.34
854.537	198.33
854.708	144.28
854.879	130.57
855.05	111.73
855.222	99.56
855.393	118.47
855.564	119.05
855.735	118.37
855.906	136.97
856.078	148.69
856.249	136.12
856.42	154.23
856.591	206.12
856.762	181.25
856.933	328.49
857.104	240.35
857.275	248.91
857.446	246.88
857.617	204.74
857.788	144.18
857.959	145.44
858.13	187.34
858.301	175.99
858.472	180.69
858.643	206.92
858.814	225.83
858.985	236.07
859.155	176.69
859.326	217.66
859.497	271.46
859.668	427.68
859.839	367.49
860.009	480.3
860.18	589.9
860.351	476.68
860.522	536.71
860.692	589.76
860.863	776.87
861.034	2605.26
861.204	1016
861.375	707.63
861.546	4671.43
861.716	1165.31
861.887	291.16
862.057	171.88
862.228	178.25
862.398	183.53
862.569	188.49
862.739	221.01
862.91	298.7
863.08	372.66
863.251	455.22
863.421	390.3
863.592	303.31
863.762	750.76
863.932	7900
864.103	704.61
864.273	1080.2
864.443	-454.88
864.614	-353.93
864.784	-1050
864.954	3740.91
865.125	462.32
865.295	295.91
865.465	391.47
865.635	384.91
865.805	371.43
865.976	18900
866.146	749.66
866.316	385.92
866.486	322.99
866.656	457.81
866.826	526.36
866.996	464.75
867.166	503.2
867.336	640.2
867.506	452.31
867.676	402.22
867.846	364.05
868.016	436.86
868.186	554.21
868.356	768.5
868.526	468.52
868.696	337.19
868.866	360.21
869.036	598.01
869.206	478.26
869.376	385.42
869.545	446.55
869.715	362.54
869.885	284.01
870.055	231.52
870.224	324.65
870.394	481.78
870.564	510
870.734	344.24
870.903	328.48
871.073	250.7
871.243	252.91
871.412	225.65
871.582	232.43
871.751	233.04
871.921	204.62
872.091	199.36
872.26	122.75
872.43	132.18
872.599	155.5
872.769	146.11
872.938	239.3
873.108	278.07
873.277	242.05
873.446	179.35
873.616	179.92
873.785	213.7
873.955	164.63
874.124	274.78
874.293	243.22
874.463	282.12
874.632	323.17
874.801	296.07
874.971	206.19
875.14	285.45
875.309	247.82
875.478	266.12
875.647	226.61
875.817	208.78
875.986	204.17
876.155	173.78
876.324	191.7
876.493	164.92
876.662	135.65
876.831	154.98
877	119.14
877.17	144.53
877.339	154.66
877.508	182.86
877.677	231.39
877.846	206.58
878.015	236.12
878.184	204.38
878.352	211.53
878.521	213.98
878.69	192.78
878.859	272.47
879.028	177.39
879.197	164.97
879.366	136.32
879.534	100
879.703	82.83
879.872	69.32
880.041	65.74
880.21	57.09
880.378	50.22
880.547	49.2
880.716	48.71
880.884	48.87
881.053	44.02
881.222	42.38
881.39	43.22
881.559	42.37
881.727	39.78
881.896	38.78
882.065	38.07
882.233	41.88
882.402	41.62
882.57	43.9
882.739	43.23
882.907	44.18
883.076	50.6
883.244	61.01
883.412	75.25
883.581	80.11
883.749	104.38
883.918	131.87
884.086	166.29
884.254	280.13
884.423	293.49
884.591	351.88
884.759	959.05
884.927	4568.18
885.096	-2713.51
885.264	-1621.43
885.432	808.59
885.6	629.65
885.769	433.97
885.937	813.43
886.105	331.89
886.273	364.71
886.441	306.44
886.609	235.95
886.777	189.69
886.945	218.32
887.113	266.41
887.281	388.58
887.449	311.42
887.617	447.71
887.785	308.05
887.953	313.22
888.121	262.69
888.289	713.08
888.457	3871.43
888.625	-1829.55
888.793	-2491.67
888.961	419.75
889.129	596.67
889.296	1429.17
889.464	423.81
889.632	493.38
889.8	679.09
889.967	2232.26
890.135	591.21
