Data from JASIL_3202_Reflection_01.txt Node
Date: Fri Nov 13 14:27:21 EST 2015
User: Geneva
Spectrometer: USB4E03002
Autoset integration time: false
Trigger mode: 4
Integration Time (sec): 1.000000E-1
Scans to average: 10
Electric dark correction enabled: false
Nonlinearity correction enabled: false
Boxcar width: 5
Stray light correction enabled: false
XAxis mode: Wavelengths
Stop averaging: false
Number of Pixels in Spectrum: 3648
>>>>>Begin Spectral Data<<<<<
177.575	49.5
177.794	56.41
178.014	62.58
178.233	65.62
178.452	70.31
178.672	74.17
178.891	79.18
179.11	88.76
179.33	96.78
179.549	93.16
179.768	92.42
179.987	89.25
180.207	88.17
180.426	86.34
180.645	88.51
180.864	88.82
181.084	83.43
181.303	84.16
181.522	80.08
181.741	74.92
181.96	80.38
182.179	80.73
182.398	85.44
182.618	82.52
182.837	84.45
183.056	85.36
183.275	82
183.494	84.94
183.713	83.57
183.932	86.05
184.151	92.17
184.37	92.16
184.589	92.2
184.808	97
185.027	106.08
185.246	99.29
185.465	93.75
185.684	99.45
185.903	92.79
186.122	93.57
186.341	87.21
186.56	84.71
186.779	81.02
186.998	82.51
187.216	80.25
187.435	76.95
187.654	80.67
187.873	81.48
188.092	77.56
188.311	79.52
188.53	81.51
188.748	77.91
188.967	76.48
189.186	76.16
189.405	79.38
189.623	80.21
189.842	80.76
190.061	76.5
190.28	76.77
190.498	77.75
190.717	84.42
190.936	80.98
191.154	88.56
191.373	87.78
191.592	93.54
191.81	85.75
192.029	80.04
192.248	80.64
192.466	83.8
192.685	84.44
192.904	84.34
193.122	80.8
193.341	81.88
193.559	82.69
193.778	87.44
193.996	82.77
194.215	91.36
194.433	93.49
194.652	90.3
194.87	90.56
195.089	88
195.307	90.59
195.526	89.12
195.744	90.69
195.963	87.94
196.181	82.08
196.399	81.59
196.618	78.86
196.836	79.43
197.055	81.86
197.273	80.77
197.491	80.73
197.71	75.68
197.928	79.69
198.146	77.78
198.365	78.34
198.583	81.43
198.801	81.56
199.019	78.2
199.238	81.58
199.456	80.21
199.674	80.63
199.892	82.84
200.111	86.06
200.329	82.1
200.547	83.26
200.765	82.05
200.983	78.18
201.202	76.88
201.42	80.02
201.638	81.4
201.856	81.93
202.074	85.07
202.292	85.64
202.51	87.09
202.728	82.98
202.946	83.1
203.165	84.38
203.383	86.74
203.601	91.06
203.819	87.81
204.037	83.79
204.255	83.06
204.473	83.71
204.691	83.66
204.909	82.89
205.127	88.1
205.345	89.91
205.562	91.9
205.78	89.12
205.998	95.7
206.216	103.73
206.434	100.31
206.652	100.56
206.87	94.97
207.088	93.18
207.306	92.82
207.523	90.59
207.741	89.17
207.959	84.09
208.177	80.55
208.395	77.42
208.612	76.23
208.83	76.73
209.048	76.52
209.266	81.65
209.483	81.68
209.701	81.14
209.919	78.89
210.136	80.25
210.354	83.99
210.572	91.21
210.79	89.75
211.007	90.24
211.225	91.83
211.442	101.68
211.66	98.17
211.878	103.41
212.095	66.29
212.313	68.6
212.53	64.72
212.748	68.22
212.966	67.35
213.183	66.16
213.401	63.56
213.618	65.33
213.836	64.7
214.053	66.64
214.271	63.6
214.488	94.93
214.705	95.25
214.923	96.87
215.14	93.72
215.358	91.49
215.575	94.01
215.793	102.08
216.01	99.21
216.227	87.49
216.445	83.59
216.662	88.94
216.879	86.45
217.097	87.19
217.314	91.73
217.531	89.96
217.749	92.12
217.966	88.85
218.183	86.78
218.4	83.02
218.618	83.22
218.835	80.69
219.052	81.49
219.269	87.01
219.487	82.82
219.704	86.16
219.921	83.85
220.138	87.32
220.355	88.93
220.572	84.58
220.79	90.24
221.007	87.61
221.224	87.98
221.441	78.66
221.658	74.45
221.875	78.07
222.092	76.24
222.309	76.3
222.526	77.8
222.743	82.63
222.96	82.48
223.177	82.45
223.394	84.5
223.611	87.33
223.828	90.34
224.045	89.77
224.262	87.82
224.479	87.8
224.696	92.06
224.913	86.84
225.13	79.03
225.347	76.09
225.564	73.24
225.781	73.43
225.997	70.56
226.214	71.55
226.431	70.55
226.648	66.43
226.865	63.47
227.082	61.36
227.298	55.84
227.515	54.19
227.732	56.8
227.949	57.33
228.165	57.79
228.382	60.88
228.599	60.33
228.816	57.84
229.032	56.02
229.249	56.09
229.466	53.89
229.682	58.58
229.899	60.41
230.116	58.93
230.332	59.75
230.549	62.04
230.765	59.15
230.982	59.04
231.199	64.02
231.415	65.76
231.632	66.52
231.848	66.61
232.065	69.64
232.281	68.62
232.498	70.28
232.714	67.93
232.931	64.57
233.147	66.22
233.364	68.19
233.58	67.85
233.797	72.23
234.013	70.56
234.23	69.95
234.446	66.66
234.662	67.78
234.879	68.34
235.095	67.44
235.312	68.56
235.528	65.53
235.744	64.59
235.961	62.33
236.177	60.17
236.393	61.35
236.61	61.36
236.826	64.22
237.042	67.04
237.258	65.09
237.475	70.95
237.691	69
237.907	69.07
238.123	66.97
238.339	70.78
238.556	72.48
238.772	70.1
238.988	71.77
239.204	68.28
239.42	67.88
239.636	68.56
239.853	65.26
240.069	65.77
240.285	65.5
240.501	62.26
240.717	58.7
240.933	53.66
241.149	51.81
241.365	49.93
241.581	52
241.797	49.97
242.013	49.13
242.229	50.07
242.445	49.96
242.661	50.79
242.877	51.73
243.093	52.78
243.309	56.55
243.525	59.33
243.741	59.6
243.957	56.41
244.173	55.3
244.388	53.47
244.604	47.93
244.82	46.6
245.036	44.65
245.252	43.37
245.468	39.01
245.683	34.73
245.899	31.97
246.115	30.89
246.331	30.19
246.547	30.5
246.762	30.5
246.978	32.47
247.194	33.04
247.409	33.66
247.625	33.54
247.841	34.91
248.057	38.8
248.272	39.58
248.488	42.42
248.703	45.44
248.919	46.54
249.135	46.72
249.35	49.44
249.566	50.86
249.782	50.09
249.997	52.46
250.213	53.66
250.428	52.93
250.644	55.81
250.859	53.88
251.075	50.24
251.29	49.89
251.506	50.8
251.721	48.91
251.937	46.78
252.152	47.46
252.368	47.93
252.583	50.27
252.798	52.3
253.014	51.14
253.229	50.82
253.445	54.9
253.66	54.58
253.875	56.57
254.091	59.85
254.306	62.39
254.521	65
254.737	63.03
254.952	60.44
255.167	59.22
255.383	60.74
255.598	62.38
255.813	61.49
256.028	63.15
256.244	61.6
256.459	56.8
256.674	57.25
256.889	52.82
257.104	50.14
257.32	49.63
257.535	44.74
257.75	41.4
257.965	39.56
258.18	37.44
258.395	35.97
258.61	33.56
258.826	34.08
259.041	31.85
259.256	29.87
259.471	30.51
259.686	30.51
259.901	32.36
260.116	32.99
260.331	33.05
260.546	33.38
260.761	32.92
260.976	35.61
261.191	35.41
261.406	37.72
261.621	40.42
261.836	41.8
262.05	41.34
262.265	41.72
262.48	42.4
262.695	43.76
262.91	45.76
263.125	49.09
263.34	49.11
263.555	48.17
263.769	45.89
263.984	47.25
264.199	46.12
264.414	47.56
264.629	46.2
264.843	45.86
265.058	46.17
265.273	45.12
265.488	42.77
265.702	41.5
265.917	42.74
266.132	46.38
266.346	47.29
266.561	47.73
266.776	45.68
266.99	46.3
267.205	45.82
267.42	44.21
267.634	41.98
267.849	42.76
268.063	42.16
268.278	41.57
268.492	38.63
268.707	36.5
268.922	37.32
269.136	39.19
269.351	39.03
269.565	39.1
269.78	38.46
269.994	41.42
270.209	38.98
270.423	38.03
270.637	36.72
270.852	35.04
271.066	35.92
271.281	35.09
271.495	34.21
271.709	33.41
271.924	33.48
272.138	35.03
272.353	33.56
272.567	36.3
272.781	36.63
272.996	38.21
273.21	39.26
273.424	39.64
273.638	39.14
273.853	38.94
274.067	39.94
274.281	40.42
274.495	40.17
274.71	40.51
274.924	39.16
275.138	41.25
275.352	42.07
275.566	42.13
275.781	39.12
275.995	38.12
276.209	38.88
276.423	36.6
276.637	35.3
276.851	35.59
277.065	35.25
277.279	35.04
277.493	32.38
277.707	32.22
277.921	31.51
278.135	33.26
278.349	35.55
278.563	33.41
278.777	37.36
278.991	37.34
279.205	38.29
279.419	38.13
279.633	36.47
279.847	37.82
280.061	35.01
280.275	35.18
280.489	35.81
280.703	35.03
280.917	37.36
281.131	34.46
281.344	35.15
281.558	33.22
281.772	33.47
281.986	33.49
282.2	32.7
282.414	32.37
282.627	31.96
282.841	32.46
283.055	31.25
283.269	29.04
283.482	29.41
283.696	27.66
283.91	29
284.123	27.65
284.337	28.4
284.551	27.4
284.764	29.38
284.978	29.27
285.192	28.21
285.405	28.37
285.619	28.58
285.833	30.05
286.046	30.36
286.26	29.63
286.473	29.61
286.687	30.25
286.9	30.54
287.114	30.39
287.327	29.26
287.541	29.98
287.754	29.41
287.968	31.75
288.181	29.9
288.395	29.61
288.608	29.61
288.822	32.01
289.035	31.46
289.248	31.72
289.462	32.07
289.675	33.72
289.889	33.98
290.102	35.94
290.315	33.66
290.529	35.21
290.742	35.69
290.955	36.3
291.169	34.79
291.382	34.39
291.595	34.73
291.808	34.4
292.022	35.26
292.235	33.13
292.448	31.84
292.661	32.12
292.875	31.05
293.088	32.58
293.301	31.52
293.514	30.86
293.727	32.11
293.94	32.53
294.153	31.79
294.367	29.97
294.58	31.43
294.793	30.94
295.006	30.78
295.219	30.91
295.432	28.53
295.645	28.87
295.858	28.14
296.071	26.33
296.284	25
296.497	24.69
296.71	23.6
296.923	23.55
297.136	24.18
297.349	25.3
297.562	24.87
297.775	25.34
297.988	23.95
298.201	24.52
298.414	24.11
298.626	24.94
298.839	24.06
299.052	25.49
299.265	26.19
299.478	26.72
299.691	24.1
299.903	24.06
300.116	24.27
300.329	26.65
300.542	26.47
300.755	27.6
300.967	28.54
301.18	31.4
301.393	31.46
301.605	29.29
301.818	28.34
302.031	28.75
302.243	29.23
302.456	30.81
302.669	30.2
302.881	31.57
303.094	32.55
303.307	33.46
303.519	32.79
303.732	33.82
303.944	35.33
304.157	36.13
304.37	36.57
304.582	37.92
304.795	37.55
305.007	37.47
305.22	37.2
305.432	35.63
305.645	33.31
305.857	33.12
306.069	32.91
306.282	32.7
306.494	31.79
306.707	32.37
306.919	31.08
307.132	29.42
307.344	28.5
307.556	28.32
307.769	29.58
307.981	30.39
308.193	29.19
308.406	27.49
308.618	27.4
308.83	26.89
309.043	27.5
309.255	27.62
309.467	28.1
309.679	28.55
309.892	28.97
310.104	29.74
310.316	30.14
310.528	30.45
310.74	31.52
310.953	32.31
311.165	32.55
311.377	30.83
311.589	29.96
311.801	29.46
312.013	32.45
312.225	31.32
312.437	32.09
312.649	31.62
312.862	31.61
313.074	32.82
313.286	31.02
313.498	32.25
313.71	34.93
313.922	35.36
314.134	37.1
314.346	35.57
314.558	38.39
314.77	37.34
314.982	37.23
315.193	38.42
315.405	37.04
315.617	38.37
315.829	38.17
316.041	38.08
316.253	37.98
316.465	38.69
316.677	38.04
316.888	37.51
317.1	36.53
317.312	36.87
317.524	35.78
317.736	37.01
317.947	38.53
318.159	38.25
318.371	36.49
318.583	37.69
318.794	36.31
319.006	35.61
319.218	34.6
319.43	35.69
319.641	37.5
319.853	38.2
320.064	37.23
320.276	35.55
320.488	36.17
320.699	36.75
320.911	35.8
321.123	38.89
321.334	40.04
321.546	39.33
321.757	39.55
321.969	37.37
322.18	36.98
322.392	36.44
322.603	37.03
322.815	37.87
323.026	39.07
323.238	38.61
323.449	35.53
323.661	35.14
323.872	34.67
324.083	33.88
324.295	34.13
324.506	33.06
324.718	33.94
324.929	32.44
325.14	30.97
325.352	28.72
325.563	29.17
325.774	31
325.986	31.68
326.197	32.37
326.408	32.84
326.62	34.39
326.831	34.38
327.042	33.42
327.253	34.42
327.464	34.63
327.676	35.78
327.887	35.71
328.098	34.7
328.309	32.7
328.52	34.28
328.732	34.15
328.943	34.05
329.154	36.56
329.365	38.12
329.576	38.23
329.787	39.8
329.998	41.8
330.209	41.98
330.42	41.92
330.631	44.01
330.842	43.57
331.053	43.67
331.264	42.02
331.475	41.19
331.686	40.78
331.897	39.25
332.108	37.69
332.319	37.36
332.53	37.04
332.741	37.63
332.952	37.43
333.163	35.48
333.374	34.16
333.585	35.13
333.795	35.61
334.006	34.76
334.217	35.64
334.428	36.82
334.639	36.29
334.849	35.78
335.06	35.74
335.271	35.25
335.482	36.96
335.692	37.45
335.903	37.72
336.114	36.84
336.325	38.14
336.535	39.56
336.746	38.44
336.957	37.68
337.167	38.94
337.378	37.88
337.589	38.84
337.799	38.13
338.01	38.51
338.22	39.07
338.431	38.72
338.642	37.51
338.852	38.05
339.063	38.8
339.273	40.94
339.484	40.59
339.694	41.98
339.905	40.33
340.115	39.85
340.326	40.48
340.536	39.17
340.746	38.27
340.957	38.27
341.167	37.7
341.378	36.55
341.588	34.88
341.799	35.87
342.009	35.13
342.219	35.27
342.43	37.14
342.64	36.81
342.85	37.13
343.061	38.46
343.271	38.75
343.481	36.95
343.691	35.77
343.902	34.58
344.112	32.92
344.322	32.12
344.532	32.14
344.743	31.71
344.953	31.72
345.163	31.23
345.373	30.54
345.583	30.16
345.793	31.06
346.004	33.93
346.214	33.51
346.424	34.52
346.634	36.24
346.844	37.07
347.054	36.55
347.264	37.88
347.474	36.58
347.684	36.94
347.894	36.9
348.104	36.46
348.314	34.58
348.524	34.72
348.734	35.4
348.944	34.09
349.154	32.72
349.364	31.43
349.574	28.91
349.784	31.13
349.994	31.82
350.204	33.09
350.413	33.06
350.623	33.76
350.833	33.39
351.043	31.71
351.253	32.21
351.463	32.97
351.672	34.2
351.882	35.93
352.092	34.34
352.302	33.88
352.511	32.9
352.721	32.26
352.931	32.4
353.141	32.81
353.35	32.62
353.56	31.78
353.77	32.37
353.979	31.7
354.189	30.93
354.399	32.03
354.608	32.27
354.818	33.07
355.027	33.75
355.237	33.75
355.447	34.46
355.656	34.11
355.866	33.79
356.075	32.68
356.285	33
356.494	33.55
356.704	33.88
356.913	33.64
357.123	32.73
357.332	31.68
357.542	32.02
357.751	32.06
357.96	32.61
358.17	33.56
358.379	34.32
358.589	34.26
358.798	33.42
359.007	32.9
359.217	33.16
359.426	32.71
359.635	32.97
359.845	32.17
360.054	30.6
360.263	30.28
360.472	29.88
360.682	29.88
360.891	29.38
361.1	28.95
361.309	28.28
361.519	27.39
361.728	27.43
361.937	27.54
362.146	27.93
362.355	29.47
362.564	29.86
362.774	29.26
362.983	28.11
363.192	28.19
363.401	29.59
363.61	30.36
363.819	31.15
364.028	31.64
364.237	32.45
364.446	31.35
364.655	30.92
364.864	31.9
365.073	32.93
365.282	33.38
365.491	33.1
365.7	31.51
365.909	31.44
366.118	31.29
366.327	31.08
366.536	30.87
366.745	31.6
366.954	31.7
367.162	31.66
367.371	31.16
367.58	31.5
367.789	31.94
367.998	33.9
368.207	34.42
368.415	35.34
368.624	34.64
368.833	33.68
369.042	33.77
369.25	34.62
369.459	33.82
369.668	32.99
369.877	33.32
370.085	32.78
370.294	31.46
370.503	30.53
370.711	30.05
370.92	30.12
371.129	31.87
371.337	31.22
371.546	30.53
371.754	30.55
371.963	30.66
372.171	29.6
372.38	29.8
372.589	29.17
372.797	29.05
373.006	29.2
373.214	29.06
373.423	28.33
373.631	29.68
373.84	28.73
374.048	27.98
374.256	28.39
374.465	30.63
374.673	30.44
374.882	31.79
375.09	31.02
375.298	30.55
375.507	31.88
375.715	32.2
375.923	30.11
376.132	31.05
376.34	31.82
376.548	32.38
376.757	30.03
376.965	30.58
377.173	29.79
377.381	30.79
377.59	30.98
377.798	30.18
378.006	29
378.214	29.95
378.423	29.44
378.631	28.24
378.839	27.47
379.047	28.36
379.255	28.28
379.463	27.73
379.671	28.19
379.879	27.48
380.088	27.42
380.296	27.87
380.504	28.79
380.712	28.74
380.92	29.56
381.128	29.75
381.336	30.34
381.544	30.17
381.752	31.19
381.96	30.4
382.168	32.14
382.376	32.48
382.584	32.01
382.791	30.83
382.999	29.98
383.207	29.75
383.415	29.48
383.623	29.39
383.831	30.08
384.039	29.67
384.247	29.36
384.454	28.43
384.662	27.6
384.87	27.54
385.078	27.65
385.285	28.48
385.493	27.93
385.701	28.6
385.909	28.35
386.116	28.06
386.324	28.38
386.532	28.96
386.739	28.4
386.947	28.39
387.155	28.85
387.362	29.42
387.57	29.04
387.778	29.14
387.985	27.77
388.193	27.63
388.4	27.23
388.608	27.19
388.816	26.74
389.023	25.93
389.231	26.43
389.438	26.06
389.646	25.94
389.853	26.27
390.061	26.65
390.268	26.99
390.475	26.62
390.683	27.72
390.89	27.21
391.098	27.87
391.305	29
391.512	29.76
391.72	29.69
391.927	29.55
392.135	28.7
392.342	28.14
392.549	29.12
392.756	29.05
392.964	28.08
393.171	28.7
393.378	28.39
393.586	27.78
393.793	27.26
394	27.28
394.207	27.74
394.414	29.64
394.622	30.27
394.829	29.6
395.036	29.28
395.243	29.41
395.45	29.8
395.657	29.12
395.864	29.39
396.072	29.99
396.279	30.22
396.486	30.13
396.693	29.75
396.9	28.83
397.107	27.55
397.314	28.72
397.521	28.76
397.728	27.19
397.935	27.37
398.142	27.68
398.349	27.78
398.556	28.21
398.763	28.5
398.97	27.79
399.177	28.97
399.383	29.56
399.59	28.73
399.797	29.12
400.004	29.45
400.211	29.41
400.418	29.09
400.625	28.42
400.831	28.64
401.038	28.23
401.245	28.92
401.452	28.65
401.658	29.13
401.865	28.53
402.072	28.69
402.279	29.67
402.485	29.62
402.692	29.95
402.899	30.1
403.105	29.18
403.312	30.04
403.519	29.23
403.725	29.07
403.932	29.45
404.138	30
404.345	29.46
404.552	29.29
404.758	29.41
404.965	29.18
405.171	28.74
405.378	29.13
405.584	28.07
405.791	28.04
405.997	28.35
406.204	28.57
406.41	28.97
406.617	29.17
406.823	28.68
407.029	29.17
407.236	28.03
407.442	28.95
407.649	29.22
407.855	29.32
408.061	28.91
408.268	28.47
408.474	29.63
408.68	29.71
408.887	29.18
409.093	29.59
409.299	29.94
409.505	31.35
409.712	30.86
409.918	30.69
410.124	31.44
410.33	31.61
410.537	31.2
410.743	30.4
410.949	30.31
411.155	30.63
411.361	30.19
411.567	29.33
411.773	28.99
411.98	28.96
412.186	29.11
412.392	29.18
412.598	29.63
412.804	30.77
413.01	29.92
413.216	30.04
413.422	30.24
413.628	29.81
413.834	30.06
414.04	30.72
414.246	31.11
414.452	30.17
414.658	29.52
414.864	29.05
415.07	29.21
415.275	30.02
415.481	29.49
415.687	29.51
415.893	29.94
416.099	29.79
416.305	28.9
416.511	28.43
416.716	28.47
416.922	28.11
417.128	28.15
417.334	27.87
417.539	27.3
417.745	27.33
417.951	26.56
418.157	26.25
418.362	26
418.568	26.03
418.774	25.54
418.979	25.45
419.185	25.5
419.391	25.61
419.596	25.4
419.802	25.63
420.008	25.31
420.213	26.03
420.419	26.11
420.624	26.49
420.83	26.5
421.035	26.84
421.241	27.14
421.446	27.15
421.652	26.95
421.857	26.86
422.063	26.87
422.268	26.98
422.474	26.26
422.679	25.96
422.885	25.67
423.09	25.48
423.295	25.21
423.501	25.17
423.706	25.27
423.911	24.71
424.117	24.25
424.322	24.31
424.527	24.77
424.733	25.42
424.938	25.45
425.143	25.48
425.349	25.81
425.554	25.92
425.759	26.62
425.964	26.81
426.169	27.79
426.375	28.74
426.58	28.59
426.785	28.29
426.99	28.35
427.195	28.51
427.4	28.64
427.605	28.41
427.811	28.89
428.016	28.17
428.221	28.23
428.426	27.94
428.631	27.57
428.836	27.96
429.041	27.68
429.246	27.39
429.451	27.85
429.656	28
429.861	28.4
430.066	28.8
430.271	29
430.476	28.79
430.681	29.41
430.886	29.19
431.09	28.65
431.295	29.14
431.5	29.03
431.705	29.13
431.91	28.42
432.115	28.15
432.32	27.3
432.524	27.02
432.729	26.9
432.934	26.59
433.139	26.64
433.343	26.48
433.548	25.9
433.753	25.82
433.958	25.73
434.162	26.42
434.367	26.4
434.572	26.71
434.776	26.43
434.981	26.28
435.186	25.75
435.39	26.25
435.595	26.8
435.799	27.45
436.004	27.68
436.209	27.89
436.413	27.34
436.618	27.38
436.822	27.26
437.027	27.36
437.231	27.75
437.436	27.54
437.64	26.69
437.845	26.34
438.049	26.26
438.253	26.31
438.458	26.56
438.662	26.85
438.867	26.66
439.071	26.78
439.275	26.65
439.48	26.17
439.684	26.42
439.888	27.09
440.093	26.72
440.297	26.17
440.501	25.87
440.706	25.48
440.91	25.51
441.114	25.36
441.318	25.19
441.523	25.59
441.727	25.79
441.931	25.89
442.135	25.08
442.339	25.69
442.543	26.46
442.748	26.56
442.952	26.6
443.156	26.14
443.36	26.79
443.564	26.66
443.768	26.62
443.972	26.96
444.176	26.97
444.38	27.73
444.584	27.57
444.788	27.03
444.992	27.18
445.196	26.88
445.4	27.22
445.604	26.72
445.808	26.92
446.012	26.86
446.216	26.15
446.42	26.1
446.624	25.87
446.828	25.93
447.032	26.51
447.235	26.28
447.439	25.84
447.643	25.67
447.847	26.09
448.051	26.07
448.254	26.17
448.458	27.04
448.662	26.95
448.866	26.4
449.069	26.29
449.273	25.67
449.477	26.03
449.681	26.79
449.884	27.35
450.088	27.1
450.292	26.59
450.495	26.25
450.699	25.89
450.902	25.79
451.106	26.69
451.31	26.94
451.513	27.35
451.717	26.84
451.92	26.58
452.124	25.92
452.327	26.12
452.531	26.34
452.734	26.98
452.938	26.82
453.141	27.79
453.345	27.36
453.548	26.97
453.752	26.76
453.955	27.47
454.158	28.28
454.362	28.82
454.565	28.78
454.769	29.46
454.972	29.13
455.175	29.31
455.379	28.68
455.582	28.9
455.785	28.61
455.988	28.72
456.192	28.59
456.395	27.76
456.598	28
456.801	27.98
457.005	27.79
457.208	27.36
457.411	27.26
457.614	26.88
457.817	26.83
458.021	27.01
458.224	27.04
458.427	26.74
458.63	26.85
458.833	26.32
459.036	26
459.239	26.05
459.442	26.15
459.645	26.18
459.848	26.29
460.051	26.28
460.254	26.32
460.457	26.41
460.66	26.19
460.863	26
461.066	26.27
461.269	26.17
461.472	26
461.675	25.76
461.878	25.97
462.081	26.51
462.284	27.03
462.486	27.17
462.689	26.55
462.892	26.97
463.095	27.71
463.298	28.33
463.5	29.16
463.703	29.36
463.906	29.66
464.109	29.82
464.311	29.4
464.514	29.59
464.717	29.81
464.92	29.43
465.122	29.14
465.325	28.91
465.528	28.3
465.73	27.97
465.933	27.21
466.135	27.09
466.338	26.55
466.541	26.8
466.743	26.38
466.946	26.09
467.148	26.4
467.351	26.16
467.553	25.39
467.756	25.28
467.958	24.82
468.161	25.24
468.363	25.5
468.566	25.86
468.768	25.59
468.971	25.85
469.173	26.21
469.375	26.24
469.578	27.13
469.78	27.82
469.983	28.12
470.185	28.96
470.387	28.88
470.59	29.47
470.792	29.32
470.994	29.48
471.196	28.99
471.399	28.64
471.601	29.16
471.803	28.47
472.005	28.7
472.208	28.43
472.41	28.31
472.612	28.55
472.814	27.53
473.016	28.27
473.218	28.25
473.421	27.86
473.623	28.34
473.825	28.18
474.027	28.38
474.229	27.93
474.431	28.3
474.633	27.94
474.835	28.55
475.037	28.94
475.239	28.18
475.441	28.21
475.643	28.97
475.845	28.6
476.047	28.73
476.249	28.85
476.451	29.16
476.653	28.74
476.855	28.72
477.057	28.25
477.258	28.23
477.46	28.23
477.662	28.49
477.864	28.04
478.066	27.88
478.268	27.69
478.469	28.06
478.671	27.38
478.873	27.03
479.075	27.05
479.276	26.79
479.478	26.84
479.68	26.52
479.882	26.11
480.083	25.93
480.285	25.89
480.487	25.6
480.688	25.11
480.89	25.31
481.091	25.35
481.293	25.12
481.495	24.73
481.696	24.28
481.898	23.99
482.099	23.68
482.301	23.59
482.502	23.41
482.704	23.29
482.905	23
483.107	22.79
483.308	22.76
483.51	22.59
483.711	22.48
483.913	22.42
484.114	22.5
484.315	22.46
484.517	22.31
484.718	22.25
484.92	22.11
485.121	22.18
485.322	22.21
485.524	22.24
485.725	22.39
485.926	22.47
486.127	22.59
486.329	22.61
486.53	22.65
486.731	22.82
486.932	22.81
487.134	22.79
487.335	22.95
487.536	23.21
487.737	23.15
487.938	23.24
488.139	23.27
488.341	23.29
488.542	23.29
488.743	23.59
488.944	23.61
489.145	23.65
489.346	23.99
489.547	24.02
489.748	23.97
489.949	24.07
490.15	24.13
490.351	24.03
490.552	24.09
490.753	24.04
490.954	23.98
491.155	23.98
491.356	23.91
491.557	23.96
491.758	24.03
491.959	23.97
492.159	24.22
492.36	24.41
492.561	24.79
492.762	25.14
492.963	25.58
493.164	25.78
493.364	26.38
493.565	26.85
493.766	27.18
493.967	27.51
494.167	27.79
494.368	27.42
494.569	27.22
494.769	27.61
494.97	27.7
495.171	27.82
495.371	27.43
495.572	27.21
495.773	27.08
495.973	26.79
496.174	26.59
496.375	26.28
496.575	26.16
496.776	26.34
496.976	26.07
497.177	25.91
497.377	25.63
497.578	26.03
497.778	26.09
497.979	26.28
498.179	26.41
498.38	26.54
498.58	26.94
498.78	27.32
498.981	27.26
499.181	27.79
499.382	27.83
499.582	28.38
499.782	28.43
499.983	28.14
500.183	28.19
500.383	28.42
500.584	28.2
500.784	27.88
500.984	27.82
501.184	27.72
501.385	27.5
501.585	27.51
501.785	27.13
501.985	27.2
502.185	27.42
502.386	27.51
502.586	27.28
502.786	27.49
502.986	27.85
503.186	28.09
503.386	27.98
503.586	27.71
503.786	27.37
503.987	27.6
504.187	27.44
504.387	27.5
504.587	27.42
504.787	27.77
504.987	27.92
505.187	27.68
505.387	27.59
505.587	27.96
505.786	28.36
505.986	28.48
506.186	28.28
506.386	28.6
506.586	28.79
506.786	28.8
506.986	28.54
507.186	28.52
507.386	28.8
507.585	28.94
507.785	28.97
507.985	28.64
508.185	28.82
508.384	29.1
508.584	28.65
508.784	28.6
508.984	28.66
509.183	28.59
509.383	28.84
509.583	28.95
509.782	28.66
509.982	28.63
510.182	28.74
510.381	28.85
510.581	28.55
510.781	28.78
510.98	28.67
511.18	29.02
511.379	28.97
511.579	28.59
511.778	28.62
511.978	28.74
512.177	28.73
512.377	28.71
512.576	28.97
512.776	29.33
512.975	29.19
513.175	29.46
513.374	29.4
513.573	29.73
513.773	30.36
513.972	30.44
514.172	30.72
514.371	31.02
514.57	31.58
514.77	31.75
514.969	31.3
515.168	31.73
515.367	31.79
515.567	32.05
515.766	32.02
515.965	31.88
516.164	31.99
516.364	31.68
516.563	31.4
516.762	31.02
516.961	30.63
517.16	30.56
517.359	30.41
517.559	30.38
517.758	30.04
517.957	30.1
518.156	29.96
518.355	29.7
518.554	29.88
518.753	29.81
518.952	29.94
519.151	30.11
519.35	30.46
519.549	30.82
519.748	31.11
519.947	31.27
520.146	31.41
520.345	31.24
520.544	31.35
520.743	31.35
520.942	31.45
521.141	31.76
521.339	31.92
521.538	32.3
521.737	32.17
521.936	32.2
522.135	32.32
522.333	32.1
522.532	32.26
522.731	31.99
522.93	32.1
523.129	32.35
523.327	32.01
523.526	31.79
523.725	31.59
523.923	31.43
524.122	31.23
524.321	31
524.519	31.36
524.718	31.33
524.917	31.76
525.115	31.94
525.314	31.52
525.512	31.46
525.711	31.34
525.909	30.98
526.108	30.93
526.306	30.86
526.505	31.02
526.703	30.68
526.902	30.5
527.1	30.15
527.299	29.82
527.497	29.79
527.696	29.5
527.894	29.46
528.092	29.46
528.291	29.4
528.489	29.47
528.688	29.52
528.886	29.63
529.084	29.74
529.283	29.91
529.481	30.07
529.679	30.37
529.877	30.93
530.076	30.97
530.274	31.2
530.472	31.28
530.67	31.31
530.869	31.08
531.067	30.98
531.265	31.04
531.463	31.2
531.661	31.29
531.859	31.02
532.057	31.01
532.255	31.23
532.454	31.44
532.652	31.67
532.85	31.8
533.048	31.91
533.246	32.04
533.444	32.09
533.642	32.02
533.84	32.28
534.038	32.53
534.236	32.81
534.434	33.19
534.632	33.24
534.83	33.27
535.027	33.1
535.225	33.43
535.423	33.52
535.621	33.79
535.819	33.58
536.017	33.51
536.215	33.83
536.412	33.35
536.61	33.13
536.808	33.43
537.006	33.64
537.203	33.89
537.401	33.75
537.599	33.91
537.797	33.91
537.994	34.75
538.192	34.61
538.39	34.58
538.587	34.91
538.785	34.99
538.983	34.88
539.18	34.93
539.378	34.89
539.575	34.84
539.773	34.65
539.97	34.38
540.168	34.12
540.366	34.18
540.563	33.95
540.761	33.99
540.958	33.9
541.155	33.73
541.353	33.74
541.55	33.72
541.748	33.85
541.945	33.95
542.143	34.08
542.34	34.26
542.537	34.38
542.735	34.51
542.932	34.54
543.129	35.02
543.327	35.58
543.524	35.81
543.721	36.25
543.919	36.49
544.116	36.69
544.313	36.9
544.51	37.13
544.708	37.36
544.905	37.65
545.102	37.95
545.299	37.9
545.496	37.35
545.693	37.16
545.891	37.14
546.088	37.12
546.285	37.33
546.482	37.42
546.679	37.49
546.876	37.62
547.073	38.1
547.27	38.15
547.467	38.42
547.664	38.99
547.861	39.58
548.058	39.73
548.255	39.92
548.452	40.09
548.649	40.65
548.846	40.97
549.043	41.53
549.24	41.67
549.437	42.02
549.633	42.05
549.83	42.39
550.027	42.36
550.224	42.56
550.421	42.61
550.618	43.02
550.814	42.96
551.011	42.63
551.208	41.98
551.405	42.01
551.601	42.17
551.798	42.17
551.995	42.02
552.191	41.54
552.388	41.67
552.585	41.97
552.781	42.11
552.978	42.21
553.175	42.25
553.371	42.42
553.568	42.32
553.764	42.31
553.961	42.17
554.157	42.24
554.354	42.74
554.55	42.27
554.747	42.72
554.943	42.54
555.14	42.8
555.336	43.29
555.533	43.59
555.729	43.55
555.926	43.79
556.122	44.13
556.318	44.53
556.515	44.91
556.711	45.46
556.907	45.5
557.104	45.68
557.3	45.49
557.496	45.37
557.693	45.25
557.889	46.15
558.085	46.26
558.281	46.97
558.478	46.77
558.674	46.35
558.87	46.23
559.066	45.84
559.262	46.43
559.459	46.46
559.655	46.76
559.851	46.83
560.047	46.24
560.243	46.15
560.439	45.72
560.635	45.96
560.831	46
561.027	46.26
561.223	46.48
561.419	46.1
561.615	46.48
561.811	46.4
562.007	47.14
562.203	47.4
562.399	46.99
562.595	47.14
562.791	47.75
562.987	48.23
563.183	48.2
563.379	48.23
563.575	47.99
563.771	47.82
563.966	47.44
564.162	46.92
564.358	46.9
564.554	46.84
564.75	46.27
564.945	46.18
565.141	45.65
565.337	45.73
565.533	45.56
565.728	45.44
565.924	45.39
566.12	45.77
566.315	45.73
566.511	45.88
566.707	46.33
566.902	46.48
567.098	46.65
567.293	47.36
567.489	47.55
567.684	47.49
567.88	47.47
568.076	47.55
568.271	47.77
568.467	48.21
568.662	47.91
568.858	48.11
569.053	48.61
569.248	47.95
569.444	47.14
569.639	46.64
569.835	47.61
570.03	47.99
570.225	47.88
570.421	47.36
570.616	47
570.812	47.4
571.007	47.25
571.202	46.46
571.397	46.68
571.593	46.86
571.788	46.82
571.983	46.13
572.178	46.3
572.374	46.69
572.569	46.75
572.764	47.13
572.959	47.01
573.154	47.03
573.35	47.6
573.545	47.67
573.74	47.72
573.935	48.27
574.13	48.41
574.325	48.45
574.52	48.43
574.715	48.93
574.91	48.43
575.105	48.32
575.3	48.6
575.495	48.74
575.69	48.77
575.885	48.76
576.08	48.68
576.275	48.57
576.47	48.69
576.665	48.87
576.86	48.61
577.055	49.01
577.25	49.05
577.444	48.3
577.639	48.9
577.834	49.16
578.029	50.38
578.224	50.49
578.418	51.34
578.613	51.14
578.808	51.48
579.003	51.7
579.197	51.76
579.392	52.11
579.587	53.06
579.781	53.18
579.976	52.98
580.171	52.76
580.365	53.18
580.56	52.86
580.755	53.73
580.949	53.16
581.144	53.6
581.338	53.84
581.533	54.19
581.727	53.73
581.922	53.58
582.116	54.03
582.311	53.89
582.505	54.42
582.7	54.52
582.894	53.96
583.089	54.25
583.283	54.31
583.478	54.84
583.672	55
583.866	55.44
584.061	55.74
584.255	55.82
584.449	55.87
584.644	55.79
584.838	55.69
585.032	55.66
585.226	55.54
585.421	55.46
585.615	55.09
585.809	54.48
586.003	54.78
586.198	54.03
586.392	53.89
586.586	54.08
586.78	53.3
586.974	53.52
587.168	53.45
587.363	53.64
587.557	54.07
587.751	54.26
587.945	54.71
588.139	54.21
588.333	54.9
588.527	55.5
588.721	54.93
588.915	55.25
589.109	55.41
589.303	55.72
589.497	55.73
589.691	55.1
589.885	55.1
590.079	55.18
590.273	55.76
590.466	55.44
590.66	55.04
590.854	55.6
591.048	56.19
591.242	56.42
591.436	56.21
591.629	57.07
591.823	57.38
592.017	57.2
592.211	57.04
592.404	56.63
592.598	56.9
592.792	56.63
592.986	56.34
593.179	55.44
593.373	54.75
593.567	54.77
593.76	54.21
593.954	54.13
594.147	54.58
594.341	54.64
594.535	54.55
594.728	54.4
594.922	54.63
595.115	54.94
595.309	54.96
595.502	55.52
595.696	55.27
595.889	55.04
596.083	55.12
596.276	54.71
596.47	54.47
596.663	54.99
596.856	54.68
597.05	54.98
597.243	54.72
597.437	54.81
597.63	54.8
597.823	55.42
598.017	55.86
598.21	56.62
598.403	57.75
598.596	58.36
598.79	58.11
598.983	59.13
599.176	59.28
599.369	59.16
599.563	59.95
599.756	60.51
599.949	60.55
600.142	60.09
600.335	59.76
600.528	58.87
600.722	58.71
600.915	59.38
601.108	59.17
601.301	58.9
601.494	59.6
601.687	59.28
601.88	58.55
602.073	58.53
602.266	58.84
602.459	57.99
602.652	57.69
602.845	57.61
603.038	56.66
603.231	56.48
603.424	56.62
603.617	57.24
603.809	57.04
604.002	56.76
604.195	56.75
604.388	56.82
604.581	56.9
604.774	57.4
604.966	57.12
605.159	57.51
605.352	57.07
605.545	57.01
605.737	56.68
605.93	57.27
606.123	57.42
606.316	57.44
606.508	57.61
606.701	58.22
606.894	57.21
607.086	58.19
607.279	58.72
607.471	60.07
607.664	59.86
607.857	59.46
608.049	58.85
608.242	59.6
608.434	59.48
608.627	58.94
608.819	58.33
609.012	59.19
609.204	59
609.397	58.69
609.589	57.98
609.782	58.12
609.974	58
610.166	58.78
610.359	58.86
610.551	59.51
610.743	59.9
610.936	60.76
611.128	61.5
611.32	62.1
611.513	62.96
611.705	63.21
611.897	63.67
612.09	64.16
612.282	63.87
612.474	63.34
612.666	62.56
612.858	62.51
613.051	62.77
613.243	62.04
613.435	62.18
613.627	61.45
613.819	62.36
614.011	62.54
614.203	62.67
614.395	63.03
614.588	63.61
614.78	64.25
614.972	65.58
615.164	65.49
615.356	66.36
615.548	65.92
615.74	66.62
615.932	65.81
616.124	65.26
616.315	64.98
616.507	64.58
616.699	64.39
616.891	64.25
617.083	63.5
617.275	63.18
617.467	62.91
617.659	62.8
617.85	62.61
618.042	62.28
618.234	62.85
618.426	63.16
618.618	63.64
618.809	63.21
619.001	62.93
619.193	62.82
619.384	63.43
619.576	63.83
619.768	63.35
619.959	63.6
620.151	64.01
620.343	64.19
620.534	64.39
620.726	63.7
620.917	64.13
621.109	64.04
621.301	64.58
621.492	64.58
621.684	64.27
621.875	64.52
622.067	63.83
622.258	64.26
622.45	63.75
622.641	63.66
622.832	64.53
623.024	64.88
623.215	65.74
623.407	65.94
623.598	65.9
623.789	65.98
623.981	66.59
624.172	67.43
624.363	66.23
624.555	66.01
624.746	65.43
624.937	64.27
625.129	63.96
625.32	63.53
625.511	62.72
625.702	62.37
625.893	61.84
626.085	61.48
626.276	60.99
626.467	61.53
626.658	61.99
626.849	62.12
627.04	62.72
627.231	62.9
627.422	63.28
627.614	63.74
627.805	64.28
627.996	65.04
628.187	65.14
628.378	65.4
628.569	66.51
628.76	66.4
628.951	67.99
629.142	67.72
629.332	68.23
629.523	68.15
629.714	67.67
629.905	67.67
630.096	67.24
630.287	67.35
630.478	67.77
630.669	66.87
630.859	66.88
631.05	65.86
631.241	66.2
631.432	66.37
631.623	66.79
631.813	66.86
632.004	66.62
632.195	66.32
632.385	66.33
632.576	66.11
632.767	66.08
632.957	65.75
633.148	65.11
633.339	65.84
633.529	65.43
633.72	65.28
633.91	66.04
634.101	66.02
634.292	66.51
634.482	66.73
634.673	66.52
634.863	67.27
635.054	68.49
635.244	69.72
635.435	68.82
635.625	68.91
635.815	69.48
636.006	69.3
636.196	70.32
636.387	70.51
636.577	70.18
636.767	70.59
636.958	70.88
637.148	70.57
637.338	70.11
637.529	71.05
637.719	71.32
637.909	69.99
638.099	69.67
638.29	69.52
638.48	69.61
638.67	69.72
638.86	68.91
639.05	68.16
639.241	68.27
639.431	68.64
639.621	68.6
639.811	68.54
640.001	70.39
640.191	70.97
640.381	71.26
640.571	71.31
640.761	71.93
640.951	73.17
641.141	74.12
641.331	73.87
641.521	73.8
641.711	73.42
641.901	73.38
642.091	72.53
642.281	72.42
642.471	72.06
642.661	72.62
642.851	72.49
643.041	71.38
643.231	71.11
643.42	72.01
643.61	73.21
643.8	73.97
643.99	73.72
644.18	74.63
644.369	74.27
644.559	73.6
644.749	73.27
644.939	73.34
645.128	73.12
645.318	72.53
645.508	72.03
645.697	70.64
645.887	70.82
646.076	71.03
646.266	70.23
646.456	70.53
646.645	71.21
646.835	71.4
647.024	71.6
647.214	72.38
647.403	72.54
647.593	72.14
647.782	72.24
647.972	71.54
648.161	72.78
648.351	71.48
648.54	70.85
648.73	70.21
648.919	70.34
649.108	69.52
649.298	68.91
649.487	68.9
649.677	69.63
649.866	69.91
650.055	69.76
650.244	68.65
650.434	70.51
650.623	73.23
650.812	74.04
651.002	73.18
651.191	74.34
651.38	75.98
651.569	76.71
651.758	75.88
651.947	75.46
652.137	75.82
652.326	75.92
652.515	75.72
652.704	73.39
652.893	72.96
653.082	74.04
653.271	73.8
653.46	73.52
653.649	72.13
653.838	71.91
654.027	72.31
654.216	72.31
654.405	72.75
654.594	71.39
654.783	71.21
654.972	71.46
655.161	70.78
655.35	71.34
655.539	71.27
655.728	72.16
655.916	73.53
656.105	73.19
656.294	73.56
656.483	73.77
656.672	73.62
656.86	73.91
657.049	73.05
657.238	72.49
657.427	72.4
657.615	71.65
657.804	70.87
657.993	69.82
658.181	69.47
658.37	69.02
658.559	68.12
658.747	69.49
658.936	69.56
659.125	69.74
659.313	70.77
659.502	70.29
659.69	70.13
659.879	70.79
660.067	71.93
660.256	72.32
660.444	72.59
660.633	73.31
660.821	73.97
661.01	74.89
661.198	75.62
661.387	74.98
661.575	75.44
661.763	76.8
661.952	76.93
662.14	77.58
662.328	78.04
662.517	78.72
662.705	79.02
662.893	77.96
663.082	77.32
663.27	77.44
663.458	78.03
663.646	77.26
663.834	76.98
664.023	77.73
664.211	76.98
664.399	76.9
664.587	77.24
664.775	76.8
664.963	77.22
665.152	77.28
665.34	77.45
665.528	77.93
665.716	79.16
665.904	78.55
666.092	78.28
666.28	76.89
666.468	76.99
666.656	75.89
666.844	75.82
667.032	76.1
667.22	76.1
667.408	76.67
667.596	76.22
667.784	75.32
667.971	76.18
668.159	77.24
668.347	78.5
668.535	79.26
668.723	80.07
668.911	80.44
669.098	79.76
669.286	80.05
669.474	79.6
669.662	80.16
669.849	80.32
670.037	80.19
670.225	79.85
670.413	80.6
670.6	81.27
670.788	80.6
670.976	80.98
671.163	81.04
671.351	80.75
671.538	80.58
671.726	79.09
671.913	79.05
672.101	78.11
672.289	77.57
672.476	76.46
672.664	75.07
672.851	75.94
673.039	75.9
673.226	76.64
673.413	77.92
673.601	77.86
673.788	77.85
673.976	77.78
674.163	78.19
674.35	77.83
674.538	77.39
674.725	77.72
674.912	75.76
675.1	75.84
675.287	76.22
675.474	73.93
675.662	73.58
675.849	75
676.036	74.8
676.223	75.32
676.411	76.13
676.598	77.04
676.785	77.16
676.972	78.91
677.159	80.4
677.346	80.44
677.533	81.05
677.721	80.9
677.908	79.13
678.095	79.84
678.282	79.22
678.469	78.98
678.656	78.71
678.843	78
679.03	76.74
679.217	74.9
679.404	74.46
679.591	75.26
679.778	75.7
679.964	77.07
680.151	76.67
680.338	76.97
680.525	76.62
680.712	77.33
680.899	77.92
681.086	77.91
681.272	78.56
681.459	78.06
681.646	77.71
681.833	77.96
682.02	78.41
682.206	78.8
682.393	79.76
682.58	79.28
682.766	79.16
682.953	79.3
683.14	80.59
683.326	80.83
683.513	81.36
683.7	81.5
683.886	80.3
684.073	80.03
684.259	80.33
684.446	79.36
684.632	79.79
684.819	80.15
685.005	79.59
685.192	79.32
685.378	77.67
685.565	78.28
685.751	77.77
685.938	78.7
686.124	78.57
686.31	79.52
686.497	79.25
686.683	80.64
686.87	79.31
687.056	79.27
687.242	79.18
687.429	81.44
687.615	80.2
687.801	80.93
687.987	80.52
688.174	80.05
688.36	79.14
688.546	79.79
688.732	78.66
688.918	79.39
689.105	80.91
689.291	80.96
689.477	80.02
689.663	79.94
689.849	79.56
690.035	79.84
690.221	79.78
690.407	78.81
690.593	77.91
690.779	77.1
690.965	76.81
691.151	75.44
691.337	75.54
691.523	75.75
691.709	77.04
691.895	78.13
692.081	79.07
692.267	79.53
692.453	80.22
692.639	81.8
692.825	82.74
693.011	82.29
693.196	82.39
693.382	83.33
693.568	83.46
693.754	82.24
693.94	80.93
694.125	81.14
694.311	81.79
694.497	81.32
694.682	80.53
694.868	80.7
695.054	81.42
695.239	80.94
695.425	81.11
695.611	81.75
695.796	81.59
695.982	81.23
696.168	79.35
696.353	77.72
696.539	77.48
696.724	76.32
696.91	75.58
697.095	75.05
697.281	75.35
697.466	74
697.652	73.27
697.837	73.89
698.023	74.11
698.208	74.05
698.393	74.46
698.579	74.35
698.764	75.36
698.949	75.04
699.135	75.27
699.32	75.32
699.505	76.06
699.691	76.19
699.876	75.73
700.061	75.42
700.246	75.85
700.432	76.53
700.617	77.85
700.802	75.79
700.987	77.41
701.172	80.35
701.358	82.66
701.543	82.81
701.728	84.67
701.913	84.79
702.098	85.77
702.283	86.83
702.468	86.14
702.653	86.79
702.838	87.83
703.023	87.84
703.208	85.08
703.393	83.75
703.578	83.26
703.763	83.45
703.948	84.38
704.133	84.71
704.318	85.01
704.503	85.46
704.688	84.75
704.873	86.7
705.057	86.99
705.242	87.38
705.427	87.94
705.612	87.57
705.797	86.36
705.981	85.77
706.166	85.22
706.351	83.96
706.536	83.94
706.72	84.75
706.905	82.86
707.09	82.57
707.274	82.41
707.459	81.52
707.644	83.31
707.828	83.09
708.013	83.41
708.197	83.51
708.382	84.11
708.567	84.98
708.751	83.68
708.936	85.31
709.12	84.86
709.305	84.74
709.489	84.2
709.673	82.9
709.858	82.97
710.042	82.47
710.227	82.73
710.411	82.47
710.596	82.02
710.78	82.03
710.964	82.9
711.149	82.81
711.333	83.1
711.517	83.34
711.702	83.37
711.886	82.57
712.07	82.53
712.254	82.58
712.438	82.27
712.623	82.17
712.807	82.51
712.991	81.19
713.175	81.76
713.359	80.75
713.544	80.3
713.728	81.86
713.912	82.67
714.096	83.98
714.28	82.7
714.464	82.76
714.648	81.72
714.832	81.22
715.016	81.61
715.2	79.86
715.384	79.41
715.568	79.48
715.752	77.89
715.936	76.61
716.12	75.02
716.304	77.02
716.488	78.01
716.671	78.63
716.855	78.04
717.039	78.8
717.223	81.33
717.407	82.12
717.59	83.15
717.774	82.79
717.958	84.24
718.142	86.02
718.325	86.35
718.509	85.22
718.693	87.21
718.877	88.5
719.06	86.92
719.244	87.54
719.428	86.59
719.611	87.33
719.795	89.13
719.978	89.56
720.162	90.08
720.345	88.9
720.529	90.08
720.713	87.69
720.896	86.16
721.08	86.11
721.263	83.21
721.446	83.15
721.63	81.36
721.813	80.45
721.997	79.11
722.18	76.68
722.364	77.53
722.547	78.29
722.73	78.09
722.914	80.68
723.097	81.53
723.28	82.21
723.464	83.1
723.647	85.27
723.83	85.6
724.013	86.42
724.197	86.93
724.38	84.81
724.563	84.12
724.746	86.6
724.929	85.6
725.112	84.66
725.296	86.12
725.479	86.51
725.662	82.95
725.845	83.98
726.028	84.92
726.211	84.37
726.394	86.01
726.577	85.8
726.76	82.83
726.943	82.29
727.126	83.51
727.309	82.08
727.492	81.11
727.675	81.96
727.858	79.1
728.041	78.14
728.224	79.31
728.407	79.61
728.589	80.42
728.772	82.21
728.955	83.68
729.138	82.01
729.321	82.53
729.503	83.62
729.686	83.75
729.869	84.71
730.052	84.67
730.234	83.72
730.417	84.41
730.6	83.26
730.782	81.32
730.965	81.22
731.148	82.01
731.33	83.74
731.513	83.89
731.695	84.62
731.878	85.14
732.061	85.58
732.243	86.3
732.426	85.6
732.608	85.14
732.791	87.69
732.973	87.34
733.156	87.16
733.338	83.89
733.52	82.95
733.703	82.7
733.885	82.61
734.068	84.05
734.25	83.89
734.432	83.38
734.615	86.18
734.797	85.21
734.979	85.56
735.162	85.28
735.344	86.36
735.526	86.42
735.708	87.27
735.891	87.55
736.073	87.83
736.255	88.87
736.437	87.66
736.619	85.03
736.802	84.55
736.984	84.57
737.166	84.71
737.348	86.72
737.53	87.04
737.712	89.4
737.894	88.72
738.076	86.28
738.258	83.22
738.44	85.96
738.622	88.21
738.804	87.48
738.986	87.45
739.168	88.55
739.35	87.58
739.532	88.82
739.714	86.94
739.896	88.05
740.078	89.2
740.259	92.87
740.441	90.48
740.623	89.21
740.805	91.01
740.987	90.31
741.168	91.28
741.35	92.2
741.532	92.31
741.714	94.18
741.895	94.05
742.077	93.11
742.259	91.64
742.44	94.9
742.622	94.8
742.804	96.45
742.985	98.68
743.167	99.32
743.348	101.44
743.53	101.65
743.711	101.37
743.893	102.99
744.075	102.49
744.256	104.4
744.438	106.41
744.619	106.49
744.8	106.73
744.982	105.71
745.163	102.6
745.345	100.63
745.526	99.65
745.707	99.29
745.889	98.91
746.07	99.92
746.252	99.79
746.433	97.13
746.614	97.21
746.795	93.81
746.977	94.68
747.158	98.78
747.339	99.44
747.52	98.6
747.702	98.59
747.883	98.26
748.064	99.77
748.245	98.94
748.426	97.18
748.607	98.32
748.788	98.49
748.97	99.03
749.151	96
749.332	96.08
749.513	96.97
749.694	96.06
749.875	96.27
750.056	96.06
750.237	96.75
750.418	97.9
750.599	95.73
750.78	95.69
750.96	92.67
751.141	93.77
751.322	92.8
751.503	92.95
751.684	93.95
751.865	93.03
752.046	92.49
752.226	91.76
752.407	90.84
752.588	93.8
752.769	94.82
752.949	96.2
753.13	95.91
753.311	97.65
753.492	98.11
753.672	96.34
753.853	96.29
754.034	95.76
754.214	96.68
754.395	99.49
754.575	99.09
754.756	100.68
754.937	101.61
755.117	99.9
755.298	98.25
755.478	98.03
755.659	97.17
755.839	97.08
756.02	96.24
756.2	94.03
756.381	92.05
756.561	91.21
756.741	90.1
756.922	88.51
757.102	87.45
757.283	86.92
757.463	84.17
757.643	83.91
757.823	82.7
758.004	82.07
758.184	82.09
758.364	81.01
758.545	79.27
758.725	79.64
758.905	79.28
759.085	80.66
759.265	80.66
759.446	82.8
759.626	81.07
759.806	80.84
759.986	80.16
760.166	78.43
760.346	78.81
760.526	77.51
760.706	74.93
760.886	74.69
761.066	74.2
761.246	73.01
761.426	71.44
761.606	73.57
761.786	71.93
761.966	71.17
762.146	71.63
762.326	71.39
762.506	72.87
762.686	74.09
762.866	74.19
763.046	74.46
763.225	75.16
763.405	75.93
763.585	76.72
763.765	79.22
763.945	80.56
764.124	82.2
764.304	82.94
764.484	83.44
764.664	83.98
764.843	84.23
765.023	85.97
765.203	86.76
765.382	88.71
765.562	90.13
765.741	90.58
765.921	90.31
766.101	90.58
766.28	91.79
766.46	91.09
766.639	92.28
766.819	92.7
766.998	92.3
767.178	93.55
767.357	92.99
767.537	90.52
767.716	92.72
767.896	96.21
768.075	98.2
768.254	98.91
768.434	100.43
768.613	98.86
768.792	100.97
768.972	101.38
769.151	100.87
769.33	101.3
769.51	103.81
769.689	101.69
769.868	100.35
770.047	100.24
770.226	97.51
770.406	99.29
770.585	98.61
770.764	96.18
770.943	94.31
771.122	93.15
771.301	94.48
771.48	93.17
771.66	94.24
771.839	94.06
772.018	92.6
772.197	94.3
772.376	94.67
772.555	95.59
772.734	96.98
772.913	99.53
773.092	100.82
773.271	102.23
773.449	103.4
773.628	101.43
773.807	100.86
773.986	102
774.165	100.52
774.344	100.33
774.523	102.07
774.701	103.39
774.88	101.28
775.059	101.46
775.238	98.44
775.417	97.31
775.595	97.81
775.774	98.23
775.953	97.41
776.131	99.67
776.31	100.45
776.489	98.19
776.667	98.55
776.846	99.8
777.025	101.39
777.203	101.35
777.382	104.74
777.56	104.13
777.739	99.63
777.917	97.54
778.096	97.1
778.274	96.27
778.453	98.84
778.631	97.25
778.81	97.9
778.988	95.47
779.166	94.79
779.345	92.87
779.523	91.29
779.702	94.81
779.88	97.32
780.058	96.85
780.237	96.63
780.415	96.62
780.593	96.13
780.771	93.55
780.95	95.27
781.128	94.53
781.306	94.97
781.484	98.75
781.662	98.9
781.841	97.35
782.019	97.66
782.197	96.44
782.375	94.72
782.553	94.44
782.731	96.6
782.909	97.38
783.087	98.91
783.265	98.57
783.443	96.64
783.621	97.04
783.799	101.09
783.977	102.39
784.155	101.85
784.333	102.3
784.511	100.88
784.689	102.6
784.867	99.45
785.045	99.21
785.223	96.49
785.4	96.25
785.578	95.94
785.756	92.79
785.934	87.89
786.112	88.28
786.289	88.35
786.467	91.38
786.645	91.35
786.823	93.86
787	94.34
787.178	96.82
787.356	97.64
787.533	97.44
787.711	97.79
787.889	102.25
788.066	99.43
788.244	99.51
788.421	98.2
788.599	96.5
788.776	95.88
788.954	94.52
789.131	94.54
789.309	92.15
789.486	95.74
789.664	94.95
789.841	93.84
790.019	94.61
790.196	94.79
790.373	95.97
790.551	95.16
790.728	94.91
790.906	96.69
791.083	93.05
791.26	95.82
791.437	94.19
791.615	93.15
791.792	93.42
791.969	93.37
792.146	91.91
792.324	88.04
792.501	88.3
792.678	88.04
792.855	86.77
793.032	91.91
793.209	91.83
793.387	91.78
793.564	94.65
793.741	94.19
793.918	97.06
794.095	98.11
794.272	101.12
794.449	103.64
794.626	105.64
794.803	107.61
794.98	105.85
795.157	101.51
795.334	98.93
795.511	98.14
795.688	99.84
795.864	100.07
796.041	95.12
796.218	96.15
796.395	93.67
796.572	92.73
796.749	91.43
796.925	93.57
797.102	93.97
797.279	94.92
797.456	93.11
797.632	93.53
797.809	93.39
797.986	99.66
798.162	98.78
798.339	96.51
798.516	93.82
798.692	94.36
798.869	91.45
799.046	93.4
799.222	93.92
799.399	94.38
799.575	91.29
799.752	90.35
799.928	86.97
800.105	85.94
800.281	87.58
800.458	90.01
800.634	91.94
800.811	91.28
800.987	91.41
801.163	93.42
801.34	92.53
801.516	91.42
801.692	90.09
801.869	92.23
802.045	92.7
802.221	94.21
802.398	92.02
802.574	91.9
802.75	92.82
802.926	94.56
803.103	91.19
803.279	92.62
803.455	94.01
803.631	94.74
803.807	93.84
803.983	91.09
804.16	90.23
804.336	90.12
804.512	87.66
804.688	89.21
804.864	88.18
805.04	89.18
805.216	85.48
805.392	87.49
805.568	87.44
805.744	87.99
805.92	92.21
806.096	96.29
806.272	97.34
806.448	97.15
806.623	101.09
806.799	97.54
806.975	97
807.151	98.5
807.327	97.93
807.503	97.87
807.678	96.76
807.854	97.48
808.03	97.16
808.206	96.83
808.381	93.48
808.557	89.35
808.733	92.78
808.908	89.74
809.084	91.61
809.26	89
809.435	89.58
809.611	91.37
809.787	91.05
809.962	88.14
810.138	88.66
810.313	89.66
810.489	88.69
810.664	87.23
810.84	87.38
811.015	86.97
811.191	88.4
811.366	88.95
811.542	88.91
811.717	91.01
811.892	93.63
812.068	93.27
812.243	94
812.419	93.67
812.594	97.6
812.769	97.53
812.944	98.99
813.12	97.74
813.295	97.69
813.47	97.97
813.645	91.67
813.821	87.31
813.996	82.13
814.171	82.85
814.346	83.89
814.521	81.54
814.697	82.69
814.872	83.65
815.047	83.86
815.222	81.41
815.397	78.36
815.572	80.21
815.747	80.61
815.922	85
816.097	84.84
816.272	85.3
816.447	85.65
816.622	85.06
816.797	80.49
816.972	79.86
817.147	79.73
817.322	80.98
817.496	80.22
817.671	81.38
817.846	78.94
818.021	78.8
818.196	75.77
818.371	73.43
818.545	74.54
818.72	77.02
818.895	75.84
819.069	75.19
819.244	74.46
819.419	73.57
819.594	72.99
819.768	73.68
819.943	71.1
820.117	71.04
820.292	70.95
820.467	69.22
820.641	66.33
820.816	66.81
820.99	65.68
821.165	64.33
821.339	62.82
821.514	62.16
821.688	61.91
821.863	61.86
822.037	62.29
822.212	62.42
822.386	61.6
822.56	62.89
822.735	62.82
822.909	63.33
823.084	63.9
823.258	65.6
823.432	65.47
823.606	65.17
823.781	67.02
823.955	66.94
824.129	67.1
824.303	69.04
824.478	69.02
824.652	68.1
824.826	69.54
825	69.52
825.174	69.29
825.348	69.64
825.523	69.27
825.697	69.28
825.871	69.22
826.045	70.1
826.219	69.9
826.393	69
826.567	68.59
826.741	68.97
826.915	70.31
827.089	70.58
827.263	69.98
827.437	72.45
827.611	71.56
827.784	72.24
827.958	70.64
828.132	70.71
828.306	72.53
828.48	74.23
828.654	73.04
828.827	72.53
829.001	71.08
829.175	71.52
829.349	72.24
829.522	71.92
829.696	71.79
829.87	73.12
830.044	74.62
830.217	75.16
830.391	76.3
830.565	77.75
830.738	76.74
830.912	79.02
831.085	81.18
831.259	79.85
831.432	81.17
831.606	80.25
831.779	82.4
831.953	81.91
832.126	80.18
832.3	80.3
832.473	79.61
832.647	81.22
832.82	79.16
832.994	75.98
833.167	75.38
833.34	74.45
833.514	75.05
833.687	72.84
833.86	73.12
834.034	73.86
834.207	72.51
834.38	73.32
834.553	72.72
834.727	75.19
834.9	79.78
835.073	78.35
835.246	77.23
835.419	77.36
835.593	78.1
835.766	76.11
835.939	77.16
836.112	82.56
836.285	83.47
836.458	82.13
836.631	80.45
836.804	78.18
836.977	80.3
837.15	85.57
837.323	87.28
837.496	89.24
837.669	91.65
837.842	93.37
838.015	88.14
838.188	85.92
838.361	88.87
838.533	93.65
838.706	95.91
838.879	101.2
839.052	97.31
839.225	95.35
839.398	91.05
839.57	90.18
839.743	87.69
839.916	90.9
840.088	90.88
840.261	88.81
840.434	86.67
840.607	84.1
840.779	82.86
840.952	84.4
841.124	84.96
841.297	88.13
841.47	87.26
841.642	87.64
841.815	87.74
841.987	85.06
842.16	84.12
842.332	84.13
842.505	85.42
842.677	84.86
842.85	84.3
843.022	84.53
843.194	84.59
843.367	90.19
843.539	90.15
843.712	88.55
843.884	93.39
844.056	100.57
844.229	101.59
844.401	102.48
844.573	103.01
844.745	102.81
844.918	105.71
845.09	104.3
845.262	100.83
845.434	101.93
845.606	102.9
845.779	98.58
845.951	92.12
846.123	92
846.295	90.77
846.467	87.18
846.639	85.65
846.811	80.03
846.983	84.51
847.155	81
847.327	81.72
847.499	80.71
847.671	81.07
847.843	86.52
848.015	85.2
848.187	87.38
848.359	92.53
848.531	93.32
848.703	98.04
848.875	95.54
849.047	98.36
849.218	94.15
849.39	92.48
849.562	93.06
849.734	90.96
849.905	93.84
850.077	92.82
850.249	86.07
850.421	83.7
850.592	83.03
850.764	82.69
850.936	82.64
851.107	84.86
851.279	85.93
851.451	91.48
851.622	89.41
851.794	89.42
851.965	91.81
852.137	98.35
852.308	107.16
852.48	109.85
852.651	112.2
852.823	111.82
852.994	115.6
853.166	114.71
853.337	117.5
853.509	117.87
853.68	113.03
853.851	110.73
854.023	106.09
854.194	103.1
854.365	100.43
854.537	96.79
854.708	97.57
854.879	92.56
855.05	96.03
855.222	89.59
855.393	91.09
855.564	90.36
855.735	88.27
855.906	89.4
856.078	89
856.249	88.77
856.42	89.25
856.591	92.16
856.762	93.21
856.933	93.82
857.104	97.56
857.275	95.13
857.446	95.31
857.617	94.31
857.788	99.61
857.959	101.94
858.13	103.2
858.301	100.41
858.472	94.98
858.643	94.21
858.814	94.58
858.985	92.85
859.155	96.27
859.326	96.01
859.497	95.89
859.668	93.33
859.839	93.57
860.009	92.32
860.18	94.03
860.351	95.18
860.522	96.56
860.692	95.48
860.863	95
861.034	92.28
861.204	96.01
861.375	97.89
861.546	95.14
861.716	91.26
861.887	94.67
862.057	97.49
862.228	96.48
862.398	94.68
862.569	93.76
862.739	94.64
862.91	94.82
863.08	92.69
863.251	94.09
863.421	96.76
863.592	97.88
863.762	97.37
863.932	92.83
864.103	85.95
864.273	89.21
864.443	90.89
864.614	87.44
864.784	85.5
864.954	86.87
865.125	86.57
865.295	90.27
865.465	92.13
865.635	91
865.805	98.05
865.976	100.96
866.146	99.11
866.316	96.34
866.486	99.72
866.656	103.6
866.826	102.75
866.996	99.31
867.166	95.57
867.336	95.74
867.506	95.8
867.676	90.28
867.846	92.47
868.016	93
868.186	90.65
868.356	90.07
868.526	89.83
868.696	88.69
868.866	89.26
869.036	85
869.206	81.28
869.376	78.13
869.545	79.5
869.715	82.78
869.885	81.9
870.055	83.48
870.224	85.02
870.394	86.68
870.564	87.6
870.734	89.88
870.903	91.38
871.073	94.52
871.243	97.21
871.412	96.53
871.582	92.73
871.751	90.74
871.921	91.41
872.091	87.86
872.26	85.78
872.43	86.42
872.599	85.37
872.769	85.88
872.938	83.43
873.108	81.13
873.277	82.68
873.446	85.8
873.616	88.84
873.785	87.58
873.955	90.32
874.124	89.67
874.293	91.64
874.463	93.66
874.632	94.38
874.801	93.35
874.971	95.46
875.14	97.94
875.309	96.17
875.478	95.67
875.647	99.13
875.817	100.27
875.986	99.85
876.155	101.98
876.324	96.42
876.493	94.51
876.662	95.65
876.831	95.51
877	93.95
877.17	95.52
877.339	93.39
877.508	92.04
877.677	88.57
877.846	89.47
878.015	82.93
878.184	87.45
878.352	91.3
878.521	88.91
878.69	89.51
878.859	85.34
879.028	83
879.197	86.52
879.366	85.59
879.534	84.05
879.703	78.31
879.872	76.09
880.041	74.57
880.21	74.4
880.378	76.43
880.547	73.34
880.716	72.51
880.884	71.45
881.053	68.13
881.222	66.54
881.39	67.27
881.559	68.38
881.727	70.36
881.896	69.23
882.065	68.47
882.233	66.77
882.402	66.95
882.57	67.56
882.739	68.45
882.907	69.76
883.076	72.49
883.244	71.26
883.412	73.47
883.581	73.46
883.749	71.12
883.918	69.92
884.086	73.26
884.254	73
884.423	74.44
884.591	74.81
884.759	74.26
884.927	72.51
885.096	76
885.264	78.06
885.432	81.19
885.6	89.21
885.769	90.46
885.937	86.11
886.105	89.27
886.273	91.81
886.441	95.75
886.609	97.55
886.777	97.25
886.945	96.05
887.113	93.29
887.281	88.35
887.449	84.12
887.617	84.21
887.785	86.92
887.953	87.98
888.121	85.78
888.289	84.6
888.457	84.75
888.625	85.22
888.793	88.46
888.961	86.89
889.129	85.9
889.296	82.59
889.464	84.27
889.632	84.27
889.8	81.66
889.967	81.46
890.135	77.5
