Data from JASIL_2927_Reflection_1.txt Node
Date: Sat Nov 07 20:41:58 EST 2015
User: Geneva
Spectrometer: USB4E03002
Autoset integration time: false
Trigger mode: 4
Integration Time (sec): 1.000000E-1
Scans to average: 10
Electric dark correction enabled: true
Nonlinearity correction enabled: false
Boxcar width: 5
Stray light correction enabled: false
XAxis mode: Wavelengths
Stop averaging: false
Number of Pixels in Spectrum: 3648
>>>>>Begin Spectral Data<<<<<
177.575	-1144.23
177.794	-473.85
178.014	-501.83
178.233	-58.4
178.452	-84.51
178.672	11.54
178.891	122.38
179.11	0
179.33	650.77
179.549	368.72
179.768	25.57
179.987	203.63
180.207	99.62
180.426	89.23
180.645	76.67
180.864	62.65
181.084	75.94
181.303	84.05
181.522	92.1
181.741	72.32
181.96	72.79
182.179	66.92
182.398	65.94
182.618	59.71
182.837	62.25
183.056	65.54
183.275	92.36
183.494	111.57
183.713	114.47
183.932	112.1
184.151	106.35
184.37	87.37
184.589	76.3
184.808	81.21
185.027	79.09
185.246	69.43
185.465	64.75
185.684	55.17
185.903	51.55
186.122	39.76
186.341	39.4
186.56	41.69
186.779	52.06
186.998	59.83
187.216	61.2
187.435	51.31
187.654	58.74
187.873	67.98
188.092	57.9
188.311	58.81
188.53	53.23
188.748	54.56
188.967	72.37
189.186	50.97
189.405	56.14
189.623	37.15
189.842	58.41
190.061	44.43
190.28	39.3
190.498	50.88
190.717	35.81
190.936	47.2
191.154	14.33
191.373	-7.32
191.592	-13.17
191.81	-16.81
192.029	10.94
192.248	-16.5
192.466	18
192.685	21.14
192.904	27.55
193.122	24.19
193.341	28.87
193.559	44.1
193.778	42.52
193.996	44.15
194.215	40.42
194.433	30.44
194.652	35.68
194.87	31.35
195.089	44.43
195.307	46.73
195.526	59.36
195.744	55.8
195.963	58.84
196.181	68.63
196.399	55.44
196.618	73.07
196.836	88.95
197.055	80.11
197.273	91.93
197.491	103.64
197.71	106.1
197.928	96.57
198.146	87.78
198.365	81.09
198.583	85.81
198.801	77.97
199.019	70.33
199.238	60.83
199.456	58.55
199.674	51.19
199.892	25.9
200.111	-13.62
200.329	14.51
200.547	3.36
200.765	1.8
200.983	-12.6
201.202	9.08
201.42	11.69
201.638	-7.63
201.856	9.77
202.074	13.82
202.292	23.25
202.51	31.77
202.728	27.02
202.946	20.37
203.165	30.42
203.383	35.18
203.601	40.29
203.819	42.1
204.037	56.55
204.255	53.69
204.473	57.09
204.691	38.87
204.909	37.3
205.127	37.38
205.345	43.45
205.562	48.46
205.78	45.32
205.998	40.55
206.216	38.54
206.434	36.19
206.652	29.81
206.87	31.4
207.088	36.98
207.306	44.06
207.523	54.92
207.741	50.45
207.959	40.99
208.177	37.45
208.395	34.28
208.612	27.38
208.83	26.29
209.048	27.01
209.266	22.42
209.483	25.7
209.701	0.86
209.919	0.58
210.136	2.56
210.354	26.64
210.572	41
210.79	38.49
211.007	38.06
211.225	40.08
211.442	36.71
211.66	38.55
211.878	32.24
212.095	91.79
212.313	87.28
212.53	84.36
212.748	82.79
212.966	84.23
213.183	80.21
213.401	87
213.618	86.9
213.836	101.45
214.053	111.45
214.271	116.27
214.488	59.98
214.705	49.72
214.923	51.36
215.14	50.84
215.358	57.99
215.575	68.01
215.793	62.37
216.01	59.56
216.227	46.31
216.445	38.76
216.662	41.53
216.879	34.04
217.097	39.32
217.314	41.45
217.531	35.8
217.749	19.08
217.966	16.05
218.183	11.83
218.4	7.72
218.618	9.59
218.835	8.02
219.052	9.72
219.269	15.85
219.487	13.34
219.704	10.87
219.921	12.54
220.138	19.55
220.355	20.48
220.572	27.03
220.79	26.08
221.007	29.03
221.224	31.72
221.441	29.39
221.658	21.06
221.875	23.17
222.092	21.35
222.309	23.17
222.526	20.74
222.743	20.34
222.96	13.67
223.177	14.93
223.394	11.1
223.611	9.58
223.828	4.41
224.045	8.97
224.262	8.18
224.479	10.01
224.696	6.61
224.913	7.86
225.13	9.06
225.347	11.25
225.564	9.79
225.781	8.99
225.997	9.64
226.214	10.17
226.431	10.16
226.648	9.42
226.865	8.53
227.082	9.43
227.298	9.17
227.515	8.28
227.732	7.88
227.949	8.68
228.165	8.95
228.382	8.64
228.599	8.7
228.816	8.35
229.032	8.33
229.249	8.92
229.466	8.31
229.682	7.73
229.899	8.43
230.116	9.44
230.332	10.04
230.549	11.24
230.765	12.52
230.982	13.53
231.199	13.76
231.415	14.21
231.632	14.17
231.848	15.2
232.065	16.46
232.281	16.45
232.498	15.51
232.714	14.1
232.931	12.12
233.147	11.26
233.364	10.96
233.58	12.09
233.797	11.55
234.013	11.68
234.23	11.62
234.446	11.71
234.662	11.77
234.879	12.23
235.095	12.1
235.312	12.27
235.528	11.84
235.744	10.88
235.961	10.2
236.177	11.11
236.393	11.34
236.61	11.01
236.826	10.81
237.042	10.53
237.258	9.52
237.475	10
237.691	10.88
237.907	10.95
238.123	11.25
238.339	10.66
238.556	10.38
238.772	9.57
238.988	10.05
239.204	9.51
239.42	9.32
239.636	9.88
239.853	9.69
240.069	9.37
240.285	9.72
240.501	9.4
240.717	9.7
240.933	9.58
241.149	9.68
241.365	9.82
241.581	9.82
241.797	9.76
242.013	9.47
242.229	9.74
242.445	9.56
242.661	9.25
242.877	9.32
243.093	9.36
243.309	9.38
243.525	9.34
243.741	8.96
243.957	9.13
244.173	9.43
244.388	9.43
244.604	9.05
244.82	9.42
245.036	9.2
245.252	9.27
245.468	9.01
245.683	8.94
245.899	9.14
246.115	8.85
246.331	8.83
246.547	8.58
246.762	8.4
246.978	8.37
247.194	8.1
247.409	8.17
247.625	7.99
247.841	7.94
248.057	7.86
248.272	7.46
248.488	7.65
248.703	7.32
248.919	7.45
249.135	7.49
249.35	7.21
249.566	7.45
249.782	7.34
249.997	7.77
250.213	7.75
250.428	7.76
250.644	7.78
250.859	7.46
251.075	7.74
251.29	7.63
251.506	7.5
251.721	7.77
251.937	7.62
252.152	7.86
252.368	7.89
252.583	7.9
252.798	7.6
253.014	7.37
253.229	7.93
253.445	7.51
253.66	7.55
253.875	7.76
254.091	7.15
254.306	7.54
254.521	7.5
254.737	7.49
254.952	7.3
255.167	7.78
255.383	8.06
255.598	7.65
255.813	7.83
256.028	7.52
256.244	7.56
256.459	7.36
256.674	6.88
256.889	6.67
257.104	6.57
257.32	6.59
257.535	6.28
257.75	6.25
257.965	6.15
258.18	6.14
258.395	6.22
258.61	6.1
258.826	6.24
259.041	6.04
259.256	6.01
259.471	5.91
259.686	6.03
259.901	6.19
260.116	6.31
260.331	6.4
260.546	6.42
260.761	6.26
260.976	6.42
261.191	6.35
261.406	6.58
261.621	6.49
261.836	6.37
262.05	6.05
262.265	5.87
262.48	5.7
262.695	5.73
262.91	5.73
263.125	5.99
263.34	6.2
263.555	6.4
263.769	6.21
263.984	6.5
264.199	6.47
264.414	6.37
264.629	6.31
264.843	5.84
265.058	5.91
265.273	5.95
265.488	5.87
265.702	5.46
265.917	5.61
266.132	5.93
266.346	5.77
266.561	5.99
266.776	6.19
266.99	6.36
267.205	6.72
267.42	6.47
267.634	6.63
267.849	6.91
268.063	6.97
268.278	6.67
268.492	6.63
268.707	6.71
268.922	6.52
269.136	6.38
269.351	6.43
269.565	6.28
269.78	6.36
269.994	5.93
270.209	5.66
270.423	5.93
270.637	5.96
270.852	6.01
271.066	5.82
271.281	5.97
271.495	5.97
271.709	5.65
271.924	5.57
272.138	5.56
272.353	5.74
272.567	5.55
272.781	5.23
272.996	5.26
273.21	4.88
273.424	5
273.638	4.9
273.853	4.83
274.067	5.12
274.281	5.21
274.495	5.02
274.71	4.91
274.924	5.08
275.138	5.03
275.352	5.3
275.566	5.72
275.781	5.71
275.995	5.77
276.209	5.83
276.423	5.62
276.637	5.6
276.851	5.8
277.065	6.13
277.279	6.19
277.493	6.37
277.707	6.04
277.921	5.98
278.135	6.06
278.349	5.96
278.563	5.79
278.777	5.77
278.991	5.83
279.205	5.79
279.419	5.62
279.633	5.64
279.847	5.69
280.061	5.71
280.275	5.57
280.489	5.58
280.703	5.39
280.917	5.41
281.131	5.57
281.344	5.42
281.558	5.43
281.772	5.33
281.986	5.42
282.2	5.37
282.414	5.34
282.627	5.63
282.841	5.56
283.055	5.66
283.269	5.61
283.482	5.59
283.696	5.66
283.91	5.8
284.123	5.79
284.337	5.67
284.551	5.59
284.764	5.5
284.978	5.41
285.192	5.43
285.405	5.58
285.619	5.81
285.833	5.55
286.046	5.41
286.26	5.32
286.473	5.31
286.687	5.21
286.9	5.46
287.114	5.49
287.327	5.51
287.541	5.61
287.754	5.32
287.968	5.32
288.181	5.59
288.395	5.79
288.608	5.54
288.822	5.6
289.035	5.75
289.248	5.71
289.462	5.81
289.675	5.82
289.889	5.81
290.102	6.1
290.315	6.03
290.529	5.79
290.742	5.85
290.955	6.15
291.169	6.18
291.382	6.14
291.595	5.86
291.808	5.93
292.022	6
292.235	5.84
292.448	6.02
292.661	6.23
292.875	6.59
293.088	6.47
293.301	6.33
293.514	6.21
293.727	6.13
293.94	6.33
294.153	6.33
294.367	6.38
294.58	6.45
294.793	6.21
295.006	5.92
295.219	5.93
295.432	5.86
295.645	5.9
295.858	5.92
296.071	5.98
296.284	5.83
296.497	5.81
296.71	5.67
296.923	5.65
297.136	5.66
297.349	5.88
297.562	5.79
297.775	5.94
297.988	6.03
298.201	6
298.414	6.08
298.626	6.15
298.839	5.99
299.052	6.13
299.265	6.04
299.478	6.13
299.691	5.76
299.903	5.88
300.116	5.66
300.329	5.63
300.542	5.79
300.755	5.78
300.967	5.97
301.18	6.24
301.393	6.16
301.605	6.27
301.818	6.1
302.031	6.32
302.243	6.26
302.456	6.61
302.669	6.48
302.881	6.48
303.094	6.36
303.307	6.36
303.519	6.36
303.732	6.56
303.944	6.58
304.157	6.56
304.37	6.7
304.582	6.79
304.795	6.55
305.007	6.83
305.22	6.83
305.432	6.95
305.645	7.17
305.857	7.16
306.069	6.94
306.282	6.86
306.494	6.92
306.707	6.84
306.919	6.87
307.132	6.96
307.344	6.73
307.556	6.74
307.769	6.82
307.981	6.56
308.193	6.52
308.406	6.43
308.618	6.6
308.83	6.59
309.043	6.59
309.255	6.53
309.467	6.63
309.679	6.74
309.892	6.71
310.104	6.59
310.316	6.78
310.528	6.88
310.74	7.26
310.953	7.22
311.165	7.35
311.377	7.35
311.589	7.43
311.801	7.31
312.013	7.19
312.225	7.35
312.437	7.61
312.649	7.58
312.862	7.56
313.074	7.15
313.286	7.08
313.498	6.94
313.71	7.24
313.922	7.08
314.134	7.18
314.346	7.4
314.558	7.34
314.77	7.24
314.982	6.99
315.193	7.09
315.405	7.18
315.617	7.22
315.829	7.33
316.041	7.02
316.253	6.94
316.465	6.89
316.677	6.68
316.888	6.74
317.1	6.7
317.312	6.95
317.524	6.85
317.736	7.11
317.947	7.13
318.159	7.24
318.371	7.48
318.583	7.62
318.794	7.61
319.006	8.07
319.218	7.85
319.43	7.81
319.641	7.74
319.853	7.9
320.064	7.87
320.276	8.01
320.488	7.99
320.699	7.88
320.911	8.13
321.123	8.58
321.334	8.27
321.546	8.37
321.757	8.44
321.969	8.69
322.18	8.75
322.392	8.53
322.603	8.47
322.815	8.48
323.026	8.47
323.238	8.42
323.449	8.33
323.661	8.53
323.872	8.7
324.083	8.91
324.295	8.85
324.506	8.88
324.718	9.16
324.929	9.53
325.14	9.77
325.352	10.06
325.563	10.35
325.774	10.45
325.986	10.45
326.197	10.39
326.408	10.39
326.62	10.61
326.831	10.82
327.042	10.98
327.253	10.94
327.464	10.99
327.676	10.95
327.887	10.84
328.098	10.85
328.309	10.91
328.52	11.32
328.732	11.8
328.943	11.83
329.154	12.07
329.365	11.97
329.576	12.1
329.787	12.06
329.998	12.13
330.209	12.16
330.42	12.25
330.631	12.4
330.842	12.43
331.053	12.26
331.264	12.39
331.475	12.11
331.686	12.22
331.897	12.25
332.108	12.44
332.319	12.52
332.53	12.71
332.741	12.79
332.952	12.73
333.163	12.74
333.374	12.87
333.585	12.79
333.795	12.92
334.006	13.09
334.217	13.1
334.428	13.29
334.639	13.31
334.849	13.25
335.06	13.36
335.271	13.45
335.482	13.45
335.692	13.43
335.903	13.49
336.114	13.4
336.325	13.31
336.535	13.3
336.746	12.97
336.957	12.96
337.167	12.86
337.378	12.86
337.589	12.86
337.799	13.04
338.01	13.04
338.22	13.1
338.431	13.16
338.642	13.27
338.852	13.26
339.063	13.41
339.273	13.57
339.484	13.8
339.694	13.63
339.905	13.61
340.115	13.32
340.326	13.04
340.536	13.04
340.746	13.22
340.957	13.01
341.167	12.99
341.378	12.89
341.588	12.95
341.799	12.86
342.009	12.97
342.219	13.01
342.43	13.33
342.64	13.33
342.85	13.25
343.061	13.06
343.271	13.11
343.481	13.06
343.691	13.12
343.902	12.86
344.112	12.81
344.322	12.75
344.532	12.71
344.743	12.63
344.953	12.71
345.163	12.74
345.373	12.78
345.583	12.86
345.793	12.81
346.004	12.76
346.214	12.88
346.424	12.88
346.634	13.04
346.844	13.02
347.054	13
347.264	13.11
347.474	13.07
347.684	12.99
347.894	13.04
348.104	13.08
348.314	13.06
348.524	12.99
348.734	12.99
348.944	12.63
349.154	12.65
349.364	12.54
349.574	12.37
349.784	12.26
349.994	12.28
350.204	12.02
350.413	12.01
350.623	12.13
350.833	12.15
351.043	12.02
351.253	12.28
351.463	12.14
351.672	11.76
351.882	11.82
352.092	11.85
352.302	11.96
352.511	11.84
352.721	11.86
352.931	11.78
353.141	11.68
353.35	11.75
353.56	11.6
353.77	11.85
353.979	12.24
354.189	12.25
354.399	12.28
354.608	12.11
354.818	12.21
355.027	12.17
355.237	12.05
355.447	12.03
355.656	12.09
355.866	12.09
356.075	11.81
356.285	11.69
356.494	11.69
356.704	11.64
356.913	11.66
357.123	11.62
357.332	11.56
357.542	11.7
357.751	11.84
357.96	11.75
358.17	11.76
358.379	11.84
358.589	11.94
358.798	11.99
359.007	11.94
359.217	11.85
359.426	11.95
359.635	11.95
359.845	11.82
360.054	11.73
360.263	11.71
360.472	11.7
360.682	11.71
360.891	11.66
361.1	11.54
361.309	11.62
361.519	11.65
361.728	11.65
361.937	11.6
362.146	11.63
362.355	11.56
362.564	11.56
362.774	11.55
362.983	11.5
363.192	11.39
363.401	11.36
363.61	11.16
363.819	11.11
364.028	11.17
364.237	11.15
364.446	11.19
364.655	11.19
364.864	11.19
365.073	11.14
365.282	11.25
365.491	11.27
365.7	11.26
365.909	11.37
366.118	11.52
366.327	11.37
366.536	11.31
366.745	11.23
366.954	11.22
367.162	11.14
367.371	11.09
367.58	10.97
367.789	10.88
367.998	10.93
368.207	10.93
368.415	10.74
368.624	10.67
368.833	10.74
369.042	10.74
369.25	10.86
369.459	10.84
369.668	10.92
369.877	10.89
370.085	10.96
370.294	10.9
370.503	10.81
370.711	10.82
370.92	10.77
371.129	10.67
371.337	10.64
371.546	10.37
371.754	10.4
371.963	10.4
372.171	10.41
372.38	10.32
372.589	10.43
372.797	10.39
373.006	10.28
373.214	10.31
373.423	10.45
373.631	10.44
373.84	10.64
374.048	10.51
374.256	10.39
374.465	10.21
374.673	10.24
374.882	10.08
375.09	10.06
375.298	10.13
375.507	10.09
375.715	9.94
375.923	9.92
376.132	9.83
376.34	9.8
376.548	9.71
376.757	9.85
376.965	9.8
377.173	9.89
377.381	9.8
377.59	9.73
377.798	9.74
378.006	9.75
378.214	9.76
378.423	9.73
378.631	9.7
378.839	9.72
379.047	9.73
379.255	9.72
379.463	9.59
379.671	9.65
379.879	9.61
380.088	9.53
380.296	9.58
380.504	9.5
380.712	9.55
380.92	9.71
381.128	9.71
381.336	9.51
381.544	9.53
381.752	9.46
381.96	9.33
382.168	9.32
382.376	9.34
382.584	9.16
382.791	9.17
382.999	8.98
383.207	8.76
383.415	8.75
383.623	8.8
383.831	8.69
384.039	8.79
384.247	8.91
384.454	9
384.662	9.07
384.87	9.18
385.078	9.14
385.285	9.17
385.493	9.25
385.701	9.28
385.909	9.28
386.116	9.33
386.324	9.25
386.532	9.2
386.739	9.12
386.947	9.03
387.155	8.9
387.362	8.92
387.57	8.93
387.778	8.94
387.985	8.91
388.193	8.93
388.4	8.98
388.608	8.89
388.816	8.89
389.023	8.81
389.231	8.75
389.438	8.76
389.646	8.65
389.853	8.65
390.061	8.56
390.268	8.57
390.475	8.52
390.683	8.38
390.89	8.32
391.098	8.25
391.305	8.21
391.512	8.12
391.72	8.14
391.927	8.16
392.135	8.15
392.342	8.18
392.549	8.06
392.756	8.05
392.964	8.09
393.171	8.14
393.378	8.15
393.586	8.17
393.793	8.23
394	8.17
394.207	8.15
394.414	8.14
394.622	8.14
394.829	8.15
395.036	8.03
395.243	8.01
395.45	7.93
395.657	7.88
395.864	7.89
396.072	7.86
396.279	7.98
396.486	7.9
396.693	7.85
396.9	7.85
397.107	7.68
397.314	7.73
397.521	7.72
397.728	7.72
397.935	7.76
398.142	7.71
398.349	7.68
398.556	7.59
398.763	7.67
398.97	7.61
399.177	7.6
399.383	7.77
399.59	7.74
399.797	7.77
400.004	7.83
400.211	7.77
400.418	7.77
400.625	7.75
400.831	7.68
401.038	7.71
401.245	7.75
401.452	7.66
401.658	7.6
401.865	7.66
402.072	7.64
402.279	7.59
402.485	7.64
402.692	7.69
402.899	7.67
403.105	7.79
403.312	7.7
403.519	7.64
403.725	7.72
403.932	7.76
404.138	7.71
404.345	7.64
404.552	7.64
404.758	7.58
404.965	7.52
405.171	7.55
405.378	7.4
405.584	7.39
405.791	7.35
405.997	7.26
406.204	7.2
406.41	7.15
406.617	7.18
406.823	7.2
407.029	7.25
407.236	7.29
407.442	7.29
407.649	7.44
407.855	7.47
408.061	7.53
408.268	7.59
408.474	7.62
408.68	7.59
408.887	7.51
409.093	7.52
409.299	7.56
409.505	7.51
409.712	7.46
409.918	7.39
410.124	7.36
410.33	7.34
410.537	7.33
410.743	7.29
410.949	7.34
411.155	7.45
411.361	7.42
411.567	7.34
411.773	7.28
411.98	7.26
412.186	7.26
412.392	7.25
412.598	7.28
412.804	7.28
413.01	7.26
413.216	7.22
413.422	7.16
413.628	7.13
413.834	7.09
414.04	7.16
414.246	7.19
414.452	7.12
414.658	7.15
414.864	7.12
415.07	7.07
415.275	7.04
415.481	7.03
415.687	6.96
415.893	6.97
416.099	6.96
416.305	6.92
416.511	6.93
416.716	6.9
416.922	6.86
417.128	6.85
417.334	6.88
417.539	6.87
417.745	6.9
417.951	6.9
418.157	6.9
418.362	6.88
418.568	6.88
418.774	6.82
418.979	6.8
419.185	6.78
419.391	6.75
419.596	6.7
419.802	6.69
420.008	6.64
420.213	6.96
420.419	6.92
420.624	6.92
420.83	6.92
421.035	6.95
421.241	7
421.446	7.06
421.652	7.06
421.857	7.07
422.063	7.06
422.268	7.05
422.474	6.75
422.679	6.77
422.885	6.74
423.09	6.75
423.295	6.74
423.501	6.71
423.706	6.63
423.911	6.62
424.117	6.57
424.322	6.58
424.527	6.59
424.733	6.54
424.938	6.57
425.143	6.59
425.349	6.53
425.554	6.53
425.759	6.5
425.964	6.51
426.169	6.56
426.375	6.64
426.58	6.61
426.785	6.61
426.99	6.68
427.195	6.63
427.4	6.65
427.605	6.68
427.811	6.73
428.016	6.79
428.221	6.81
428.426	6.72
428.631	6.65
428.836	6.66
429.041	6.69
429.246	6.66
429.451	6.65
429.656	6.65
429.861	6.64
430.066	6.59
430.271	6.57
430.476	6.59
430.681	6.62
430.886	6.66
431.09	6.73
431.295	6.7
431.5	6.65
431.705	6.67
431.91	6.64
432.115	6.66
432.32	6.64
432.524	6.61
432.729	6.57
432.934	6.58
433.139	6.58
433.343	6.56
433.548	6.59
433.753	6.65
433.958	6.65
434.162	6.65
434.367	6.69
434.572	6.66
434.776	6.71
434.981	6.73
435.186	6.7
435.39	6.7
435.595	6.72
435.799	6.67
436.004	6.65
436.209	6.59
436.413	6.58
436.618	6.5
436.822	6.51
437.027	6.43
437.231	6.41
437.436	6.4
437.64	6.38
437.845	6.32
438.049	6.34
438.253	6.29
438.458	6.32
438.662	6.31
438.867	6.34
439.071	6.35
439.275	6.39
439.48	6.41
439.684	6.43
439.888	6.39
440.093	6.4
440.297	6.36
440.501	6.4
440.706	6.39
440.91	6.42
441.114	6.41
441.318	6.36
441.523	6.38
441.727	6.37
441.931	6.42
442.135	6.44
442.339	6.41
442.543	6.43
442.748	6.38
442.952	6.33
443.156	6.27
443.36	6.28
443.564	6.33
443.768	6.3
443.972	6.3
444.176	6.25
444.38	6.3
444.584	6.3
444.788	6.28
444.992	6.28
445.196	6.33
445.4	6.38
445.604	6.37
445.808	6.34
446.012	6.33
446.216	6.31
446.42	6.29
446.624	6.26
446.828	6.26
447.032	6.25
447.235	6.28
447.439	6.25
447.643	6.24
447.847	6.23
448.051	6.23
448.254	6.24
448.458	6.24
448.662	6.29
448.866	6.27
449.069	6.29
449.273	6.33
449.477	6.36
449.681	6.38
449.884	6.41
450.088	6.41
450.292	6.47
450.495	6.49
450.699	6.52
450.902	6.48
451.106	6.53
451.31	6.52
451.513	6.52
451.717	6.48
451.92	6.48
452.124	6.41
452.327	6.4
452.531	6.35
452.734	6.38
452.938	6.35
453.141	6.34
453.345	6.34
453.548	6.36
453.752	6.3
453.955	6.28
454.158	6.25
454.362	6.24
454.565	6.24
454.769	6.26
454.972	6.2
455.175	6.2
455.379	6.21
455.582	6.12
455.785	6.11
455.988	6.15
456.192	6.13
456.395	6.1
456.598	6.13
456.801	6.14
457.005	6.14
457.208	6.16
457.411	6.14
457.614	6.09
457.817	6.16
458.021	6.15
458.224	6.17
458.427	6.2
458.63	6.24
458.833	6.22
459.036	6.26
459.239	6.25
459.442	6.23
459.645	6.25
459.848	6.32
460.051	6.29
460.254	6.27
460.457	6.25
460.66	6.28
460.863	6.24
461.066	6.26
461.269	6.22
461.472	6.22
461.675	6.24
461.878	6.23
462.081	6.21
462.284	6.22
462.486	6.24
462.689	6.25
462.892	6.27
463.095	6.26
463.298	6.25
463.5	6.29
463.703	6.33
463.906	6.36
464.109	6.34
464.311	6.39
464.514	6.42
464.717	6.42
464.92	6.44
465.122	6.38
465.325	6.44
465.528	6.41
465.73	6.41
465.933	6.37
466.135	6.39
466.338	6.42
466.541	6.37
466.743	6.36
466.946	6.41
467.148	6.43
467.351	6.48
467.553	6.43
467.756	6.51
467.958	6.52
468.161	6.56
468.363	6.49
468.566	6.48
468.768	6.44
468.971	6.44
469.173	6.4
469.375	6.36
469.578	6.37
469.78	6.37
469.983	6.35
470.185	6.34
470.387	6.32
470.59	6.34
470.792	6.33
470.994	6.35
471.196	6.33
471.399	6.3
471.601	6.3
471.803	6.25
472.005	6.26
472.208	6.27
472.41	6.26
472.612	6.24
472.814	6.29
473.016	6.27
473.218	6.31
473.421	6.29
473.623	6.32
473.825	6.35
474.027	6.42
474.229	6.39
474.431	6.36
474.633	6.39
474.835	6.42
475.037	6.37
475.239	6.4
475.441	6.36
475.643	6.36
475.845	6.37
476.047	6.35
476.249	6.28
476.451	6.34
476.653	6.34
476.855	6.29
477.057	6.29
477.258	6.31
477.46	6.32
477.662	6.34
477.864	6.38
478.066	6.37
478.268	6.35
478.469	6.39
478.671	6.34
478.873	6.3
479.075	6.32
479.276	6.32
479.478	6.27
479.68	6.23
479.882	6.24
480.083	6.21
480.285	6.18
480.487	6.16
480.688	6.1
480.89	6.1
481.091	6.11
481.293	6.11
481.495	6.09
481.696	6.08
481.898	6.07
482.099	6.04
482.301	6.02
482.502	6.02
482.704	6.02
482.905	6.02
483.107	6.01
483.308	6.02
483.51	6
483.711	6
483.913	6.01
484.114	6.02
484.315	6.02
484.517	6.03
484.718	6.03
484.92	6.03
485.121	6.03
485.322	6.04
485.524	6.04
485.725	6.05
485.926	6.06
486.127	6.06
486.329	6.05
486.53	6.09
486.731	6.1
486.932	6.09
487.134	6.07
487.335	6.07
487.536	6.08
487.737	6.08
487.938	6.09
488.139	6.08
488.341	6.08
488.542	6.09
488.743	6.08
488.944	6.07
489.145	6.1
489.346	6.12
489.547	6.15
489.748	6.16
489.949	6.15
490.15	6.14
490.351	6.17
490.552	6.16
490.753	6.14
490.954	6.13
491.155	6.14
491.356	6.13
491.557	6.14
491.758	6.15
491.959	6.17
492.159	6.17
492.36	6.19
492.561	6.2
492.762	6.22
492.963	6.25
493.164	6.27
493.364	6.28
493.565	6.3
493.766	6.34
493.967	6.34
494.167	6.34
494.368	6.38
494.569	6.37
494.769	6.31
494.97	6.3
495.171	6.29
495.371	6.3
495.572	6.3
495.773	6.35
495.973	6.32
496.174	6.35
496.375	6.35
496.575	6.37
496.776	6.39
496.976	6.46
497.177	6.51
497.377	6.53
497.578	6.54
497.778	6.54
497.979	6.53
498.179	6.59
498.38	6.54
498.58	6.56
498.78	6.55
498.981	6.58
499.181	6.59
499.382	6.59
499.582	6.64
499.782	6.68
499.983	6.75
500.183	6.8
500.383	6.78
500.584	6.83
500.784	6.86
500.984	6.86
501.184	6.86
501.385	6.85
501.585	6.86
501.785	6.83
501.985	6.84
502.185	6.84
502.386	6.84
502.586	6.9
502.786	6.94
502.986	6.97
503.186	7.03
503.386	7.07
503.586	7.11
503.786	7.13
503.987	7.19
504.187	7.24
504.387	7.29
504.587	7.33
504.787	7.32
504.987	7.31
505.187	7.3
505.387	7.3
505.587	7.35
505.786	7.36
505.986	7.33
506.186	7.34
506.386	7.35
506.586	7.36
506.786	7.36
506.986	7.43
507.186	7.46
507.386	7.53
507.585	7.6
507.785	7.58
507.985	7.65
508.185	7.74
508.384	7.76
508.584	7.75
508.784	7.78
508.984	7.81
509.183	7.84
509.383	7.94
509.583	7.97
509.782	7.97
509.982	8.03
510.182	8.03
510.381	8.08
510.581	8.13
510.781	8.2
510.98	8.21
511.18	8.22
511.379	8.25
511.579	8.25
511.778	8.25
511.978	8.31
512.177	8.33
512.377	8.39
512.576	8.42
512.776	8.49
512.975	8.47
513.175	8.55
513.374	8.61
513.573	8.63
513.773	8.68
513.972	8.7
514.172	8.72
514.371	8.78
514.57	8.75
514.77	8.78
514.969	8.75
515.168	8.83
515.367	8.87
515.567	8.89
515.766	8.93
515.965	8.96
516.164	9.04
516.364	9.08
516.563	9.12
516.762	9.2
516.961	9.23
517.16	9.27
517.359	9.28
517.559	9.33
517.758	9.41
517.957	9.41
518.156	9.45
518.355	9.48
518.554	9.49
518.753	9.49
518.952	9.51
519.151	9.57
519.35	9.62
519.549	9.66
519.748	9.68
519.947	9.7
520.146	9.78
520.345	9.82
520.544	9.86
520.743	9.95
520.942	10.01
521.141	10.1
521.339	10.09
521.538	10.14
521.737	10.22
521.936	10.25
522.135	10.28
522.333	10.32
522.532	10.35
522.731	10.4
522.93	10.41
523.129	10.45
523.327	10.44
523.526	10.46
523.725	10.53
523.923	10.54
524.122	10.59
524.321	10.62
524.519	10.64
524.718	10.64
524.917	10.66
525.115	10.68
525.314	10.75
525.512	10.78
525.711	10.83
525.909	10.82
526.108	10.84
526.306	10.85
526.505	10.86
526.703	10.89
526.902	10.93
527.1	10.93
527.299	10.97
527.497	10.99
527.696	11.02
527.894	11.05
528.092	11.08
528.291	11.09
528.489	11.14
528.688	11.17
528.886	11.22
529.084	11.25
529.283	11.28
529.481	11.32
529.679	11.33
529.877	11.35
530.076	11.38
530.274	11.43
530.472	11.49
530.67	11.53
530.869	11.57
531.067	11.57
531.265	11.64
531.463	11.69
531.661	11.69
531.859	11.75
532.057	11.79
532.255	11.82
532.454	11.82
532.652	11.84
532.85	11.85
533.048	11.88
533.246	11.9
533.444	11.9
533.642	11.94
533.84	12
534.038	12.04
534.236	12.07
534.434	12.09
534.632	12.15
534.83	12.19
535.027	12.25
535.225	12.31
535.423	12.36
535.621	12.42
535.819	12.44
536.017	12.46
536.215	12.45
536.412	12.47
536.61	12.49
536.808	12.5
537.006	12.5
537.203	12.5
537.401	12.51
537.599	12.53
537.797	12.58
537.994	12.6
538.192	12.64
538.39	12.67
538.587	12.68
538.785	12.76
538.983	12.8
539.18	12.88
539.378	12.89
539.575	12.93
539.773	12.97
539.97	12.98
540.168	13.02
540.366	13.08
540.563	13.11
540.761	13.16
540.958	13.18
541.155	13.2
541.353	13.21
541.55	13.26
541.748	13.28
541.945	13.31
542.143	13.32
542.34	13.34
542.537	13.34
542.735	13.37
542.932	13.43
543.129	13.45
543.327	13.51
543.524	13.57
543.721	13.62
543.919	13.67
544.116	13.73
544.313	13.82
544.51	13.85
544.708	13.91
544.905	13.94
545.102	13.95
545.299	13.94
545.496	13.95
545.693	13.95
545.891	13.97
546.088	14
546.285	14
546.482	13.98
546.679	14.01
546.876	14.03
547.073	14.08
547.27	14.16
547.467	14.23
547.664	14.28
547.861	14.32
548.058	14.32
548.255	14.37
548.452	14.42
548.649	14.49
548.846	14.56
549.043	14.57
549.24	14.59
549.437	14.57
549.633	14.61
549.83	14.63
550.027	14.69
550.224	14.76
550.421	14.79
550.618	14.79
550.814	14.85
551.011	14.86
551.208	14.99
551.405	15.03
551.601	15.05
551.798	15.06
551.995	15.1
552.191	15.1
552.388	15.09
552.585	15.1
552.781	15.1
552.978	15.07
553.175	15.12
553.371	15.08
553.568	15.12
553.764	15.12
553.961	15.15
554.157	15.2
554.354	15.28
554.55	15.38
554.747	15.42
554.943	15.52
555.14	15.57
555.336	15.55
555.533	15.61
555.729	15.65
555.926	15.69
556.122	15.67
556.318	15.7
556.515	15.67
556.711	15.67
556.907	15.7
557.104	15.73
557.3	15.75
557.496	15.78
557.693	15.79
557.889	15.8
558.085	15.87
558.281	15.94
558.478	15.94
558.674	16.05
558.87	16.05
559.066	16.08
559.262	16.04
559.459	16.08
559.655	16.11
559.851	16.11
560.047	16.1
560.243	16.08
560.439	16.1
560.635	16.15
560.831	16.12
561.027	16.17
561.223	16.19
561.419	16.28
561.615	16.35
561.811	16.36
562.007	16.38
562.203	16.42
562.399	16.45
562.595	16.49
562.791	16.42
562.987	16.4
563.183	16.38
563.379	16.42
563.575	16.38
563.771	16.36
563.966	16.39
564.162	16.46
564.358	16.5
564.554	16.56
564.75	16.58
564.945	16.68
565.141	16.72
565.337	16.74
565.533	16.75
565.728	16.79
565.924	16.77
566.12	16.84
566.315	16.85
566.511	16.88
566.707	16.88
566.902	16.9
567.098	16.91
567.293	16.92
567.489	16.96
567.684	16.94
567.88	16.91
568.076	16.96
568.271	16.93
568.467	16.92
568.662	16.93
568.858	16.95
569.053	16.96
569.248	16.96
569.444	16.96
569.639	16.97
569.835	16.98
570.03	17.06
570.225	17.08
570.421	17.09
570.616	17.12
570.812	17.13
571.007	17.11
571.202	17.12
571.397	17.15
571.593	17.16
571.788	17.16
571.983	17.2
572.178	17.15
572.374	17.12
572.569	17.16
572.764	17.14
572.959	17.16
573.154	17.18
573.35	17.22
573.545	17.23
573.74	17.29
573.935	17.34
574.13	17.37
574.325	17.45
574.52	17.45
574.715	17.41
574.91	17.45
575.105	17.48
575.3	17.5
575.495	17.51
575.69	17.52
575.885	17.49
576.08	17.47
576.275	17.49
576.47	17.47
576.665	17.52
576.86	17.5
577.055	17.53
577.25	17.53
577.444	17.59
577.639	17.57
577.834	17.57
578.029	17.61
578.224	17.66
578.418	17.65
578.613	17.67
578.808	17.73
579.003	17.83
579.197	17.89
579.392	17.86
579.587	17.85
579.781	17.89
579.976	17.96
580.171	17.98
580.365	18.01
580.56	18.04
580.755	18.08
580.949	18.08
581.144	18.09
581.338	18.03
581.533	17.99
581.727	18
581.922	17.99
582.116	17.95
582.311	17.94
582.505	17.97
582.7	17.96
582.894	17.92
583.089	17.95
583.283	17.94
583.478	17.94
583.672	18.01
583.866	18.03
584.061	18.05
584.255	18.05
584.449	18.1
584.644	18.08
584.838	18.08
585.032	18.1
585.226	18.1
585.421	18.11
585.615	18.15
585.809	18.18
586.003	18.15
586.198	18.21
586.392	18.24
586.586	18.25
586.78	18.31
586.974	18.36
587.168	18.44
587.363	18.44
587.557	18.47
587.751	18.44
587.945	18.45
588.139	18.46
588.333	18.44
588.527	18.48
588.721	18.55
588.915	18.53
589.109	18.52
589.303	18.41
589.497	18.47
589.691	18.48
589.885	18.55
590.079	18.58
590.273	18.61
590.466	18.59
590.66	18.58
590.854	18.51
591.048	18.5
591.242	18.51
591.436	18.58
591.629	18.57
591.823	18.63
592.017	18.64
592.211	18.68
592.404	18.68
592.598	18.73
592.792	18.78
592.986	18.81
593.179	18.88
593.373	18.88
593.567	18.9
593.76	18.87
593.954	18.76
594.147	18.79
594.341	18.77
594.535	18.8
594.728	18.76
594.922	18.76
595.115	18.8
595.309	18.77
595.502	18.78
595.696	18.74
595.889	18.8
596.083	18.85
596.276	18.81
596.47	18.81
596.663	18.75
596.856	18.77
597.05	18.72
597.243	18.69
597.437	18.74
597.63	18.75
597.823	18.84
598.017	18.86
598.21	18.84
598.403	18.91
598.596	18.94
598.79	19.04
598.983	19.16
599.176	19.23
599.369	19.3
599.563	19.21
599.756	19.23
599.949	19.15
600.142	19.15
600.335	19.24
600.528	19.22
600.722	19.2
600.915	19.21
601.108	19.16
601.301	19.1
601.494	19.02
601.687	19.04
601.88	19.04
602.073	19.1
602.266	19.08
602.459	19.05
602.652	19.05
602.845	19.1
603.038	19.11
603.231	19.08
603.424	19.17
603.617	19.18
603.809	19.22
604.002	19.25
604.195	19.26
604.388	19.25
604.581	19.21
604.774	19.21
604.966	19.23
605.159	19.19
605.352	19.27
605.545	19.24
605.737	19.27
605.93	19.24
606.123	19.16
606.316	19.19
606.508	19.17
606.701	19.32
606.894	19.4
607.086	19.39
607.279	19.45
607.471	19.43
607.664	19.47
607.857	19.46
608.049	19.53
608.242	19.63
608.434	19.57
608.627	19.67
608.819	19.59
609.012	19.55
609.204	19.51
609.397	19.52
609.589	19.51
609.782	19.55
609.974	19.66
610.166	19.63
610.359	19.64
610.551	19.68
610.743	19.68
610.936	19.72
611.128	19.8
611.32	19.88
611.513	19.89
611.705	19.95
611.897	19.88
612.09	19.77
612.282	19.79
612.474	19.77
612.666	19.87
612.858	19.78
613.051	19.76
613.243	19.64
613.435	19.62
613.627	19.61
613.819	19.57
614.011	19.58
614.203	19.61
614.395	19.56
614.588	19.54
614.78	19.46
614.972	19.47
615.164	19.44
615.356	19.4
615.548	19.4
615.74	19.36
615.932	19.37
616.124	19.42
616.315	19.44
616.507	19.46
616.699	19.41
616.891	19.38
617.083	19.46
617.275	19.54
617.467	19.61
617.659	19.51
617.85	19.51
618.042	19.57
618.234	19.57
618.426	19.64
618.618	19.72
618.809	19.85
619.001	19.84
619.193	19.82
619.384	19.71
619.576	19.75
619.768	19.82
619.959	19.8
620.151	19.76
620.343	19.75
620.534	19.63
620.726	19.55
620.917	19.55
621.109	19.56
621.301	19.52
621.492	19.59
621.684	19.54
621.875	19.56
622.067	19.63
622.258	19.6
622.45	19.64
622.641	19.71
622.832	19.73
623.024	19.7
623.215	19.74
623.407	19.82
623.598	19.89
623.789	19.87
623.981	19.89
624.172	19.98
624.363	19.93
624.555	19.85
624.746	19.86
624.937	19.86
625.129	19.84
625.32	19.79
625.511	19.75
625.702	19.66
625.893	19.69
626.085	19.68
626.276	19.61
626.467	19.63
626.658	19.73
626.849	19.66
627.04	19.64
627.231	19.67
627.422	19.75
627.614	19.78
627.805	19.83
627.996	19.8
628.187	19.82
628.378	19.75
628.569	19.79
628.76	19.7
628.951	19.77
629.142	19.85
629.332	19.83
629.523	19.85
629.714	19.86
629.905	19.87
630.096	19.85
630.287	19.81
630.478	19.91
630.669	19.95
630.859	20
631.05	20.1
631.241	20.08
631.432	20.07
631.623	20.02
631.813	20.02
632.004	20.02
632.195	20.22
632.385	20.2
632.576	20.2
632.767	20.18
632.957	20.21
633.148	20.18
633.339	20.15
633.529	20.17
633.72	20.14
633.91	20.09
634.101	20.14
634.292	20
634.482	20.03
634.673	19.98
634.863	19.93
635.054	19.93
635.244	19.87
635.435	19.93
635.625	19.98
635.815	20
636.006	20.03
636.196	20.06
636.387	20.12
636.577	20.07
636.767	20.15
636.958	20.23
637.148	20.13
637.338	20.13
637.529	20.12
637.719	20.11
637.909	20.13
638.099	20.19
638.29	20.08
638.48	20.16
638.67	20.23
638.86	20.24
639.05	20.24
639.241	20.42
639.431	20.37
639.621	20.37
639.811	20.5
640.001	20.39
640.191	20.47
640.381	20.51
640.571	20.36
640.761	20.33
640.951	20.18
641.141	20.19
641.331	20.11
641.521	20.21
641.711	20.24
641.901	20.03
642.091	20.11
642.281	20.1
642.471	20.11
642.661	20.21
642.851	20.3
643.041	20.42
643.231	20.32
643.42	20.29
643.61	20.23
643.8	20.2
643.99	20.36
644.18	20.41
644.369	20.3
644.559	20.36
644.749	20.25
644.939	20.18
645.128	20.11
645.318	20.23
645.508	20.3
645.697	20.35
645.887	20.34
646.076	20.31
646.266	20.3
646.456	20.34
646.645	20.27
646.835	20.24
647.024	20.27
647.214	20.34
647.403	20.27
647.593	20.26
647.782	20.27
647.972	20.26
648.161	20.23
648.351	20.26
648.54	20.28
648.73	20.21
648.919	20.32
649.108	20.31
649.298	20.28
649.487	20.28
649.677	20.17
649.866	20.1
650.055	20.17
650.244	20.09
650.434	20.03
650.623	20.05
650.812	20.17
651.002	20.07
651.191	20.08
651.38	20.05
651.569	20.15
651.758	20.21
651.947	20.24
652.137	20.08
652.326	20.08
652.515	20.1
652.704	20.03
652.893	20.09
653.082	20.16
653.271	20.2
653.46	20.27
653.649	20.23
653.838	20.16
654.027	20.18
654.216	20.29
654.405	20.36
654.594	20.38
654.783	20.43
654.972	20.34
655.161	20.34
655.35	20.3
655.539	20.32
655.728	20.35
655.916	20.28
656.105	20.32
656.294	20.3
656.483	20.25
656.672	20.29
656.86	20.28
657.049	20.27
657.238	20.24
657.427	20.17
657.615	20.1
657.804	19.97
657.993	20.08
658.181	20.01
658.37	19.98
658.559	20.04
658.747	20.03
658.936	20.02
659.125	19.95
659.313	19.94
659.502	20.03
659.69	20.07
659.879	20.15
660.067	20.17
660.256	20.29
660.444	20.41
660.633	20.37
660.821	20.33
661.01	20.38
661.198	20.57
661.387	20.6
661.575	20.61
661.763	20.61
661.952	20.64
662.14	20.62
662.328	20.53
662.517	20.48
662.705	20.5
662.893	20.62
663.082	20.63
663.27	20.49
663.458	20.51
663.646	20.55
663.834	20.63
664.023	20.61
664.211	20.69
664.399	20.72
664.587	20.72
664.775	20.69
664.963	20.61
665.152	20.52
665.34	20.62
665.528	20.62
665.716	20.59
665.904	20.56
666.092	20.64
666.28	20.66
666.468	20.73
666.656	20.74
666.844	20.84
667.032	20.89
667.22	20.9
667.408	20.82
667.596	20.89
667.784	20.9
667.971	20.91
668.159	20.79
668.347	20.72
668.535	20.63
668.723	20.61
668.911	20.6
669.098	20.49
669.286	20.55
669.474	20.65
669.662	20.59
669.849	20.63
670.037	20.52
670.225	20.55
670.413	20.58
670.6	20.72
670.788	20.73
670.976	20.77
671.163	20.85
671.351	20.79
671.538	20.8
671.726	20.92
671.913	20.9
672.101	20.95
672.289	21.06
672.476	21.05
672.664	20.98
672.851	20.93
673.039	20.71
673.226	20.7
673.413	20.79
673.601	20.75
673.788	20.81
673.976	20.66
674.163	20.67
674.35	20.52
674.538	20.51
674.725	20.46
674.912	20.55
675.1	20.8
675.287	20.79
675.474	20.86
675.662	21.06
675.849	20.9
676.036	21.02
676.223	21.18
676.411	21.2
676.598	21.27
676.785	21.33
676.972	21.32
677.159	21.25
677.346	21.17
677.533	21.02
677.721	20.8
677.908	20.88
678.095	20.91
678.282	20.91
678.469	20.97
678.656	20.83
678.843	20.83
679.03	20.82
679.217	20.8
679.404	20.82
679.591	20.84
679.778	20.79
679.964	20.71
680.151	20.68
680.338	20.51
680.525	20.58
680.712	20.64
680.899	20.54
681.086	20.57
681.272	20.53
681.459	20.63
681.646	20.72
681.833	20.8
682.02	20.83
682.206	20.88
682.393	20.99
682.58	20.82
682.766	20.91
682.953	20.99
683.14	21.14
683.326	21.18
683.513	21.19
683.7	21.13
683.886	21.15
684.073	21.18
684.259	21.15
684.446	21.12
684.632	21.18
684.819	21.13
685.005	21.19
685.192	21.01
685.378	20.96
685.565	20.87
685.751	20.93
685.938	20.88
686.124	20.82
686.31	20.85
686.497	20.96
686.683	21.08
686.87	21.01
687.056	20.84
687.242	20.86
687.429	21.03
687.615	21.05
687.801	21.06
687.987	21.08
688.174	21.11
688.36	21.1
688.546	21.03
688.732	20.92
688.918	21
689.105	21.22
689.291	21.18
689.477	21.18
689.663	21.28
689.849	21.21
690.035	21.25
690.221	21.15
690.407	21.08
690.593	20.95
690.779	21.06
690.965	21.07
691.151	21.05
691.337	21.05
691.523	20.92
691.709	20.92
691.895	20.91
692.081	20.89
692.267	21.09
692.453	21.16
692.639	21.25
692.825	21.08
693.011	21.04
693.196	20.84
693.382	21
693.568	20.96
693.754	20.86
693.94	20.86
694.125	20.81
694.311	20.74
694.497	20.84
694.682	20.79
694.868	20.9
695.054	20.91
695.239	20.96
695.425	20.81
695.611	20.98
695.796	21.05
695.982	21.16
696.168	21.21
696.353	21.21
696.539	21.16
696.724	21.16
696.91	21.08
697.095	21.11
697.281	21.2
697.466	21.18
697.652	21.02
697.837	20.95
698.023	20.86
698.208	20.91
698.393	20.91
698.579	20.89
698.764	20.96
698.949	21.08
699.135	20.93
699.32	20.99
699.505	21.01
699.691	21.14
699.876	21.25
700.061	21.37
700.246	21.41
700.432	21.4
700.617	21.41
700.802	21.48
700.987	21.42
701.172	21.46
701.358	21.27
701.543	21.33
701.728	21.24
701.913	21.15
702.098	21.2
702.283	21.13
702.468	21.12
702.653	21
702.838	21.03
703.023	20.99
703.208	21.13
703.393	21.29
703.578	21.35
703.763	21.4
703.948	21.38
704.133	21.33
704.318	21.34
704.503	21.54
704.688	21.79
704.873	21.78
705.057	21.85
705.242	21.89
705.427	21.91
705.612	21.76
705.797	21.93
705.981	22
706.166	22.08
706.351	22.05
706.536	22.08
706.72	21.86
706.905	21.59
707.09	21.58
707.274	21.66
707.459	21.54
707.644	21.51
707.828	21.31
708.013	21.28
708.197	21.24
708.382	21.17
708.567	20.93
708.751	21.05
708.936	21.29
709.12	21.4
709.305	21.25
709.489	21.4
709.673	21.41
709.858	21.43
710.042	21.39
710.227	21.29
710.411	21.33
710.596	21.43
710.78	21.44
710.964	21.52
711.149	21.46
711.333	21.53
711.517	21.45
711.702	21.56
711.886	21.53
712.07	21.49
712.254	21.59
712.438	21.73
712.623	21.76
712.807	21.88
712.991	21.68
713.175	21.68
713.359	21.78
713.544	21.88
713.728	21.88
713.912	21.85
714.096	21.93
714.28	21.84
714.464	21.67
714.648	21.55
714.832	21.49
715.016	21.45
715.2	21.35
715.384	21.27
715.568	21.28
715.752	21.27
715.936	21.4
716.12	21.38
716.304	21.51
716.488	21.59
716.671	21.63
716.855	21.58
717.039	21.72
717.223	21.83
717.407	21.68
717.59	21.5
717.774	21.47
717.958	21.59
718.142	21.78
718.325	21.62
718.509	21.77
718.693	21.96
718.877	21.95
719.06	21.93
719.244	21.81
719.428	21.98
719.611	22.27
719.795	22.28
719.978	22.16
720.162	22.08
720.345	22.06
720.529	21.83
720.713	21.63
720.896	21.7
721.08	21.69
721.263	21.73
721.446	21.78
721.63	21.55
721.813	21.67
721.997	21.73
722.18	21.75
722.364	21.96
722.547	22.08
722.73	22.02
722.914	22.03
723.097	22.02
723.28	22.23
723.464	22.14
723.647	22.19
723.83	22.08
724.013	21.93
724.197	22.03
724.38	22.01
724.563	21.94
724.746	22.13
724.929	22.17
725.112	22.11
725.296	21.96
725.479	21.88
725.662	21.78
725.845	21.81
726.028	21.74
726.211	21.64
726.394	21.67
726.577	21.79
726.76	21.69
726.943	21.54
727.126	21.58
727.309	21.61
727.492	21.86
727.675	21.97
727.858	22.02
728.041	22.17
728.224	22.19
728.407	22.08
728.589	21.8
728.772	21.97
728.955	22.05
729.138	22.16
729.321	22.14
729.503	22.2
729.686	22.13
729.869	22.07
730.052	22.16
730.234	21.92
730.417	21.87
730.6	22.07
730.782	21.95
730.965	21.91
731.148	21.84
731.33	21.91
731.513	21.76
731.695	21.78
731.878	21.85
732.061	21.81
732.243	21.91
732.426	21.92
732.608	21.95
732.791	21.88
732.973	21.96
733.156	21.9
733.338	21.99
733.52	21.82
733.703	21.82
733.885	21.88
734.068	21.84
734.25	21.92
734.432	22.18
734.615	22.3
734.797	22.39
734.979	22.37
735.162	22.43
735.344	22.2
735.526	22.42
735.708	22.42
735.891	22.39
736.073	22.6
736.255	22.68
736.437	22.48
736.619	22.22
736.802	22.12
736.984	21.89
737.166	21.95
737.348	22.07
737.53	21.92
737.712	21.93
737.894	21.87
738.076	21.63
738.258	21.43
738.44	21.25
738.622	21.18
738.804	21.27
738.986	21.64
739.168	21.56
739.35	21.45
739.532	21.37
739.714	21.25
739.896	21.13
740.078	21.25
740.259	21.47
740.441	21.62
740.623	21.84
740.805	21.93
740.987	21.98
741.168	21.77
741.35	21.87
741.532	22.09
741.714	22.21
741.895	22.35
742.077	22.19
742.259	22.01
742.44	21.97
742.622	21.73
742.804	21.66
742.985	21.5
743.167	21.91
743.348	21.89
743.53	21.87
743.711	21.97
743.893	21.79
744.075	21.62
744.256	21.4
744.438	21.25
744.619	21.47
744.8	21.38
744.982	21.3
745.163	21.24
745.345	21.19
745.526	21.47
745.707	21.53
745.889	21.68
746.07	21.79
746.252	22.13
746.433	22.3
746.614	21.99
746.795	22.11
746.977	22.29
747.158	22.32
747.339	22.25
747.52	22
747.702	21.91
747.883	21.9
748.064	22
748.245	21.93
748.426	21.7
748.607	21.87
748.788	21.78
748.97	21.67
749.151	21.49
749.332	21.51
749.513	21.52
749.694	21.55
749.875	21.65
750.056	21.71
750.237	21.57
750.418	21.91
750.599	21.74
750.78	21.88
750.96	21.89
751.141	22.27
751.322	22.52
751.503	22.3
751.684	22.24
751.865	22.27
752.046	22.52
752.226	22.76
752.407	22.61
752.588	22.83
752.769	22.92
752.949	22.94
753.13	22.7
753.311	22.67
753.492	22.69
753.672	22.92
753.853	22.6
754.034	22.41
754.214	22.27
754.395	22.18
754.575	22.24
754.756	21.9
754.937	21.88
755.117	21.87
755.298	21.54
755.478	21.94
755.659	22
755.839	22.2
756.02	22.19
756.2	22.15
756.381	22.13
756.561	21.98
756.741	22.34
756.922	22.6
757.102	22.65
757.283	22.5
757.463	22.23
757.643	22.16
757.823	22.12
758.004	21.96
758.184	22.18
758.364	22.34
758.545	22.51
758.725	22.39
758.905	21.97
759.085	21.84
759.265	22.26
759.446	22.16
759.626	22.23
759.806	22.28
759.986	22.25
760.166	22.02
760.346	21.86
760.526	22.01
760.706	22.12
760.886	22.42
761.066	22.46
761.246	22.39
761.426	22.71
761.606	22.46
761.786	22.4
761.966	22.44
762.146	22.43
762.326	22.57
762.506	22.35
762.686	22.26
762.866	21.97
763.046	21.93
763.225	21.98
763.405	21.85
763.585	22.11
763.765	22.06
763.945	22.09
764.124	22.04
764.304	22.12
764.484	22.24
764.664	22.16
764.843	22.29
765.023	22.32
765.203	22.29
765.382	22.25
765.562	21.93
765.741	22.36
765.921	22.35
766.101	22.82
766.28	22.63
766.46	22.7
766.639	22.75
766.819	22.39
766.998	22.31
767.178	22.26
767.357	22.53
767.537	22.41
767.716	22.29
767.896	22.15
768.075	21.73
768.254	22.05
768.434	21.91
768.613	21.85
768.792	22.08
768.972	22.46
769.151	22.36
769.33	22.54
769.51	22.65
769.689	22.32
769.868	22.8
770.047	23.08
770.226	23.2
770.406	23.3
770.585	23.36
770.764	23.63
770.943	23.39
771.122	23.35
771.301	22.87
771.48	23.29
771.66	23.4
771.839	23.05
772.018	23.11
772.197	23.29
772.376	23.36
772.555	23.46
772.734	23.64
772.913	23.87
773.092	24.02
773.271	24.04
773.449	23.81
773.628	23.83
773.807	23.92
773.986	23.5
774.165	23.12
774.344	23.07
774.523	22.98
774.701	22.61
774.88	22.43
775.059	22.73
775.238	22.87
775.417	22.43
775.595	22.21
775.774	22.56
775.953	22.62
776.131	22.21
776.31	22.11
776.489	22.32
776.667	22.48
776.846	22.74
777.025	22.56
777.203	22.53
777.382	22.86
777.56	22.8
777.739	22.14
777.917	22.11
778.096	22.03
778.274	22.21
778.453	22.19
778.631	22.15
778.81	21.65
778.988	21.5
779.166	21.31
779.345	21.64
779.523	22.18
779.702	22.67
779.88	22.74
780.058	23.26
780.237	23.25
780.415	23.54
780.593	23.77
780.771	24.08
780.95	23.93
781.128	23.95
781.306	23.81
781.484	23.42
781.662	23.41
781.841	23.15
782.019	22.67
782.197	22.59
782.375	22.33
782.553	22.76
782.731	22.91
782.909	23.47
783.087	23.78
783.265	23.9
783.443	23.84
783.621	23.59
783.799	24.54
783.977	24.92
784.155	24.83
784.333	24.64
784.511	24.14
784.689	23.9
784.867	23.94
785.045	23.32
785.223	23.05
785.4	22.99
785.578	23.27
785.756	22.74
785.934	22.41
786.112	22.44
786.289	22.87
786.467	22.53
786.645	22.59
786.823	22.42
787	22.66
787.178	23.05
787.356	23.27
787.533	23.13
787.711	23.43
787.889	23.87
788.066	24.09
788.244	23.45
788.421	24.06
788.599	24.07
788.776	23.69
788.954	23.88
789.131	23.41
789.309	23.39
789.486	22.88
789.664	22.87
789.841	22.92
790.019	22.46
790.196	22.94
790.373	22.41
790.551	22.11
790.728	22.93
790.906	23.05
791.083	22.68
791.26	22.49
791.437	22.92
791.615	22.68
791.792	22.4
791.969	22.62
792.146	22.46
792.324	23
792.501	23.44
792.678	22.55
792.855	22.07
793.032	22.82
793.209	23.4
793.387	23.79
793.564	23.5
793.741	23.24
793.918	23.38
794.095	23.54
794.272	23.33
794.449	22.97
794.626	23.01
794.803	22.89
794.98	22.52
795.157	22.36
795.334	22.45
795.511	22.53
795.688	22.42
795.864	22.51
796.041	22.33
796.218	22.02
796.395	22.57
796.572	23.16
796.749	22.88
796.925	22.82
797.102	22.72
797.279	22.52
797.456	22.6
797.632	22.56
797.809	22.5
797.986	22.49
798.162	23.07
798.339	22.88
798.516	22.47
798.692	23.53
798.869	23.85
799.046	23.52
799.222	23.83
799.399	23.84
799.575	24.41
799.752	23.45
799.928	23.37
800.105	22.73
800.281	22.72
800.458	23.16
800.634	22.69
800.811	23
800.987	23.14
801.163	22.79
801.34	22.44
801.516	22.52
801.692	23.07
801.869	23.46
802.045	23.23
802.221	23.26
802.398	22.92
802.574	22.68
802.75	22.65
802.926	22.72
803.103	22.26
803.279	23.38
803.455	23.01
803.631	23.76
803.807	23.7
803.983	24.62
804.16	24.1
804.336	24.3
804.512	24.59
804.688	24.15
804.864	24.08
805.04	24.6
805.216	23.96
805.392	23.44
805.568	23.59
805.744	23.33
805.92	23.15
806.096	23.59
806.272	23.41
806.448	23.25
806.623	23.46
806.799	23.94
806.975	24.34
807.151	24.78
807.327	25.4
807.503	25.27
807.678	24.93
807.854	25.09
808.03	25.21
808.206	25.43
808.381	26.11
808.557	25.8
808.733	25.15
808.908	24.59
809.084	23.77
809.26	23.73
809.435	23.49
809.611	23.67
809.787	23.46
809.962	22.8
810.138	22.34
810.313	22.22
810.489	22.42
810.664	22.41
810.84	22.33
811.015	22.81
811.191	22.46
811.366	22
811.542	22.01
811.717	22.66
811.892	23.98
812.068	24.64
812.243	24.5
812.419	24.27
812.594	24.88
812.769	24.96
812.944	25.06
813.12	25.09
813.295	25.74
813.47	26.15
813.645	25.66
813.821	24.94
813.996	24.4
814.171	24.32
814.346	24.29
814.521	23.79
814.697	23.84
814.872	23.56
815.047	23.77
815.222	23.46
815.397	23.46
815.572	23.53
815.747	23.63
815.922	23.43
816.097	23.09
816.272	23.12
816.447	23.49
816.622	23.62
816.797	22.83
816.972	23.18
817.147	23.39
817.322	23.36
817.496	22.95
817.671	22.75
817.846	22.89
818.021	23.25
818.196	23.19
818.371	23.07
818.545	23.22
818.72	23.63
818.895	23.42
819.069	23.46
819.244	23.37
819.419	23.35
819.594	23.47
819.768	23.47
819.943	23.29
820.117	22.97
820.292	22.84
820.467	22.59
820.641	22.89
820.816	22.84
820.99	22.68
821.165	22.6
821.339	22.71
821.514	22.57
821.688	22.56
821.863	22.51
822.037	22.68
822.212	22.63
822.386	22.56
822.56	22.36
822.735	22.33
822.909	22.39
823.084	22.24
823.258	22.15
823.432	22.25
823.606	22.24
823.781	22.28
823.955	22.04
824.129	22.11
824.303	22.32
824.478	22.55
824.652	22.77
824.826	22.63
825	23.03
825.174	22.94
825.348	22.89
825.523	23.16
825.697	22.89
825.871	23.09
826.045	23.27
826.219	23.13
826.393	23.06
826.567	23.13
826.741	23.15
826.915	23.06
827.089	23.2
827.263	23.23
827.437	22.96
827.611	23.37
827.784	23.43
827.958	23.25
828.132	23.51
828.306	23.51
828.48	23.13
828.654	23.16
828.827	23.16
829.001	22.88
829.175	22.59
829.349	22.61
829.522	22.6
829.696	22.67
829.87	23.11
830.044	23.11
830.217	23.08
830.391	23.25
830.565	23.61
830.738	23
830.912	23.35
831.085	23.72
831.259	24.68
831.432	24.37
831.606	24.06
831.779	23.49
831.953	23.36
832.126	23.17
832.3	22.97
832.473	22.58
832.647	23.03
832.82	23.18
832.994	23.21
833.167	22.74
833.34	22.8
833.514	22.61
833.687	22.63
833.86	22.46
834.034	22.55
834.207	22.99
834.38	22.98
834.553	22.75
834.727	22.78
834.9	22.79
835.073	22.36
835.246	22.53
835.419	22.88
835.593	23.32
835.766	23.45
835.939	23.28
836.112	22.86
836.285	22.93
836.458	24.13
836.631	23.67
836.804	23.06
836.977	23.32
837.15	23.83
837.323	23.45
837.496	22.86
837.669	23.53
837.842	23.21
838.015	23.47
838.188	23.38
838.361	22.95
838.533	22.99
838.706	23.39
838.879	24.26
839.052	22.82
839.225	23.82
839.398	24.12
839.57	23.09
839.743	23.57
839.916	23.45
840.088	23.84
840.261	23.75
840.434	24
840.607	23.24
840.779	23.12
840.952	23.79
841.124	23.19
841.297	22.63
841.47	22.64
841.642	23.04
841.815	22.75
841.987	22.99
842.16	21.85
842.332	21.9
842.505	22.73
842.677	22.1
842.85	22.25
843.022	22.18
843.194	23.65
843.367	25.42
843.539	24.82
843.712	24.26
843.884	24.61
844.056	25.81
844.229	26.22
844.401	26.87
844.573	28.29
844.745	27.29
844.918	26.15
845.09	25.4
845.262	23.82
845.434	23.93
845.606	24.57
845.779	25.21
845.951	25.74
846.123	26.2
846.295	26.67
846.467	25.76
846.639	26.5
846.811	27.23
846.983	27.01
847.155	27.1
847.327	27.65
847.499	26.84
847.671	25.83
847.843	24.61
848.015	23.24
848.187	23.92
848.359	23.34
848.531	25.02
848.703	27.33
848.875	28.97
849.047	28.72
849.218	29.34
849.39	28.79
849.562	28.78
849.734	27.99
849.905	27.83
850.077	28.21
850.249	28.46
850.421	27.32
850.592	25.36
850.764	24.64
850.936	24.97
851.107	25.09
851.279	26.96
851.451	26.94
851.622	27.61
851.794	28.76
851.965	27.4
852.137	26.7
852.308	25.35
852.48	26.95
852.651	26.95
852.823	27.38
852.994	26.96
853.166	28.28
853.337	28.3
853.509	29.48
853.68	29.73
853.851	30.2
854.023	30.62
854.194	31.59
854.365	29.47
854.537	29.86
854.708	29.2
854.879	27.36
855.05	25.69
855.222	28.46
855.393	26.91
855.564	27.12
855.735	24.83
855.906	25.26
856.078	24.59
856.249	27.28
856.42	26.69
856.591	26.01
856.762	28.46
856.933	29.27
857.104	27.04
857.275	29.71
857.446	29.48
857.617	28.91
857.788	30.47
857.959	29.27
858.13	26.23
858.301	24.28
858.472	25.33
858.643	24.23
858.814	25.1
858.985	24.78
859.155	21.99
859.326	22.61
859.497	26.75
859.668	23.76
859.839	25.64
860.009	28.42
860.18	28.08
860.351	28.98
860.522	28.91
860.692	27.65
860.863	28.18
861.034	29.71
861.204	27.92
861.375	22.85
861.546	23.53
861.716	21.04
861.887	17.87
862.057	19.77
862.228	19.44
862.398	18.68
862.569	18.65
862.739	19.03
862.91	19.38
863.08	22.73
863.251	23.9
863.421	22.92
863.592	25.35
863.762	26.97
863.932	25.67
864.103	23.75
864.273	21.73
864.443	22.3
864.614	22.24
864.784	22.36
864.954	19.01
865.125	22.34
865.295	25.51
865.465	25.19
865.635	23.24
865.805	23.15
865.976	22.4
866.146	25.85
866.316	24.81
866.486	25.19
866.656	23.68
866.826	23.71
866.996	21.29
867.166	17.86
867.336	19.9
867.506	22.56
867.676	22.85
867.846	23.85
868.016	23.49
868.186	21.45
868.356	19.8
868.526	19.53
868.696	19.81
868.866	21.64
869.036	21.03
869.206	20.66
869.376	19.6
869.545	18.44
869.715	20.11
869.885	19.49
870.055	21.6
870.224	21.04
870.394	23.36
870.564	26.82
870.734	23.95
870.903	26.2
871.073	22.96
871.243	25.04
871.412	25.9
871.582	26.56
871.751	27.51
871.921	25.69
872.091	23.88
872.26	20.86
872.43	16.81
872.599	17.99
872.769	18.04
872.938	20.54
873.108	19.54
873.277	21.39
873.446	22.64
873.616	21.34
873.785	24.41
873.955	28.62
874.124	28.79
874.293	29.39
874.463	28.38
874.632	27.41
874.801	24.67
874.971	25.13
875.14	27.33
875.309	23.12
875.478	23.32
875.647	23.9
875.817	22.64
875.986	23.64
876.155	25.25
876.324	26.16
876.493	30.12
876.662	31.41
876.831	30.86
877	27.5
877.17	30.2
877.339	32.91
877.508	32.87
877.677	31.66
877.846	32.22
878.015	31.19
878.184	30.42
878.352	27.91
878.521	27.43
878.69	26.39
878.859	26.58
879.028	26.77
879.197	25.06
879.366	23.1
879.534	23.48
879.703	22.51
879.872	23.2
880.041	23.77
880.21	23.4
880.378	23.56
880.547	24.03
880.716	23.86
880.884	23.07
881.053	23.17
881.222	23.22
881.39	23.46
881.559	23.93
881.727	23.44
881.896	23.62
882.065	23.13
882.233	23.03
882.402	22.58
882.57	22.27
882.739	22.34
882.907	22.44
883.076	22.67
883.244	22.27
883.412	21.93
883.581	22
883.749	21.64
883.918	23
884.086	23.45
884.254	23.96
884.423	24.17
884.591	24.96
884.759	24.36
884.927	24.16
885.096	23.75
885.264	24.57
885.432	23.9
885.6	22.89
885.769	21.73
885.937	21.06
886.105	20.33
886.273	21.14
886.441	20.63
886.609	21.51
886.777	20.58
886.945	20.18
887.113	19.26
887.281	20.6
887.449	22.93
887.617	22.62
887.785	22.49
887.953	21.23
888.121	20.9
888.289	20.66
888.457	21.51
888.625	22.65
888.793	23.46
888.961	22.6
889.129	22.92
889.296	23.35
889.464	23.14
889.632	23.83
889.8	27.03
889.967	27.33
890.135	29.13
