Data from JASIL_3176_Reflection_1.txt Node
Date: Thu Nov 12 23:11:53 EST 2015
User: Geneva
Spectrometer: USB4E03002
Autoset integration time: false
Trigger mode: 4
Integration Time (sec): 1.000000E-1
Scans to average: 10
Electric dark correction enabled: true
Nonlinearity correction enabled: false
Boxcar width: 5
Stray light correction enabled: false
XAxis mode: Wavelengths
Stop averaging: false
Number of Pixels in Spectrum: 3648
>>>>>Begin Spectral Data<<<<<
177.575	-142.64
177.794	-111.43
178.014	-19.23
178.233	-197.94
178.452	34.54
178.672	24.38
178.891	63.86
179.11	166.8
179.33	515.06
179.549	158.33
179.768	-1678.64
179.987	-454.87
180.207	-525.09
180.426	-1194.77
180.645	1173.99
180.864	1016.84
181.084	768.56
181.303	4031.85
181.522	819.77
181.741	401.54
181.96	761.81
182.179	596.63
182.398	1804.93
182.618	1597.84
182.837	-491.05
183.056	-368.65
183.275	-119.55
183.494	-85.05
183.713	-86.93
183.932	-42.53
184.151	-15.09
184.37	-5.95
184.589	-50.67
184.808	-32.78
185.027	-1.85
185.246	-19.61
185.465	5.96
185.684	12.43
185.903	16.06
186.122	-32.52
186.341	-51.6
186.56	-99.09
186.779	-1083.72
186.998	-525.87
187.216	-247.12
187.435	-609.3
187.654	-1742.95
187.873	-1312.67
188.092	990.26
188.311	2374.82
188.53	6903.8
188.748	-9462.61
188.967	-409.08
189.186	-134.98
189.405	-219.47
189.623	-192.15
189.842	-117.56
190.061	-53.7
190.28	-79.32
190.498	-34.37
190.717	-55.3
190.936	-102.9
191.154	-110.71
191.373	-477.8
191.592	-226.42
191.81	-197.74
192.029	-1236.69
192.248	-555.42
192.466	-523.77
192.685	-593.54
192.904	-680.72
193.122	-705.82
193.341	-456.23
193.559	-808.32
193.778	-315.34
193.996	-448.16
194.215	-198.17
194.433	-219.46
194.652	-409.08
194.87	-266.44
195.089	-332.29
195.307	-514.06
195.526	-937.31
195.744	4905.3
195.963	402.41
196.181	159.1
196.399	125.29
196.618	87.57
196.836	108.91
197.055	148.5
197.273	130.56
197.491	122.55
197.71	27.22
197.928	101.8
198.146	144.88
198.365	392.06
198.583	441.27
198.801	672.63
199.019	-203.96
199.238	-7.8
199.456	-80.92
199.674	-26.89
199.892	-324.4
200.111	-266.14
200.329	-167.64
200.547	-60.07
200.765	-164.43
200.983	-85.26
201.202	-44.39
201.42	-115.5
201.638	-67.55
201.856	-82.62
202.074	-156.55
202.292	-20.87
202.51	-53.98
202.728	-70.86
202.946	-119.69
203.165	-90.81
203.383	-144.66
203.601	-96.47
203.819	-69.91
204.037	-104.98
204.255	-84.95
204.473	-100.42
204.691	-128.2
204.909	-72.91
205.127	-57.04
205.345	-64.56
205.562	-86.48
205.78	-66.01
205.998	-94.41
206.216	-128
206.434	-233.61
206.652	-285.9
206.87	-119.64
207.088	-5525.78
207.306	-968.84
207.523	1045.35
207.741	670.22
207.959	-1840.91
208.177	-343.98
208.395	-431.76
208.612	-225.19
208.83	-89.53
209.048	-152.91
209.266	-231.83
209.483	-88.14
209.701	-89.68
209.919	-86.9
210.136	-71.64
210.354	-75.82
210.572	-85.59
210.79	-52.1
211.007	-32.23
211.225	-51.7
211.442	-23.66
211.66	-40.13
211.878	-32.31
212.095	218.89
212.313	167.67
212.53	180.14
212.748	148.69
212.966	156.18
213.183	153.2
213.401	149.07
213.618	167.77
213.836	184.83
214.053	165.52
214.271	176.86
214.488	-6137.66
214.705	-1255.95
214.923	-994.78
215.14	-424.98
215.358	-389.23
215.575	-225.24
215.793	-256.88
216.01	701.72
216.227	-36763.64
216.445	-199.58
216.662	-156.94
216.879	-164.73
217.097	-89.46
217.314	-106.58
217.531	-177.78
217.749	-127
217.966	-119.94
218.183	-136.44
218.4	-141.03
218.618	-83.34
218.835	-88.85
219.052	-109.65
219.269	-70.21
219.487	-70.08
219.704	-60.75
219.921	-79.12
220.138	-162.71
220.355	-232.55
220.572	-108.78
220.79	-24.22
221.007	-48.26
221.224	-100.6
221.441	-105.93
221.658	-116.53
221.875	-87.73
222.092	-115.04
222.309	-77.39
222.526	-71.87
222.743	-72.84
222.96	-93.54
223.177	-197.37
223.394	-298.3
223.611	-134.77
223.828	-120.43
224.045	-112.89
224.262	-160.31
224.479	-139.81
224.696	-117.37
224.913	-131.37
225.13	-149.68
225.347	-121.87
225.564	-76.28
225.781	-41.86
225.997	-51.57
226.214	-57.58
226.431	-47.14
226.648	-40.68
226.865	-44.38
227.082	-51.81
227.298	-34.74
227.515	-23.32
227.732	-17.71
227.949	-30.31
228.165	-30.25
228.382	-22.12
228.599	-23.09
228.816	-31.88
229.032	-34.63
229.249	-38.32
229.466	-17.15
229.682	-33.2
229.899	-42.97
230.116	-43.72
230.332	-54.65
230.549	-51.5
230.765	-54.61
230.982	-49.71
231.199	-35.16
231.415	-39.78
231.632	-27.93
231.848	-45.9
232.065	-20.09
232.281	4.77
232.498	-2.96
232.714	3.87
232.931	-9.14
233.147	-3.35
233.364	8
233.58	-10.67
233.797	-9.05
234.013	-11.13
234.23	-15.32
234.446	-18.54
234.662	-47.64
234.879	-49.58
235.095	-35.63
235.312	-46.35
235.528	-34.16
235.744	-40.28
235.961	-37.33
236.177	-39.14
236.393	-49.54
236.61	-22.54
236.826	-23.95
237.042	-24.71
237.258	-15.79
237.475	-29.14
237.691	-28.12
237.907	-30.62
238.123	-24.63
238.339	-9.76
238.556	-19.1
238.772	-15.18
238.988	-17.55
239.204	-15.39
239.42	-11.06
239.636	-11.06
239.853	-3.24
240.069	-3.71
240.285	-7.95
240.501	-7.17
240.717	-9.32
240.933	-7.44
241.149	-3.79
241.365	-6.31
241.581	-11.89
241.797	-9.63
242.013	-9.03
242.229	-9.35
242.445	-9.11
242.661	-9.19
242.877	-15.46
243.093	-10.5
243.309	-12
243.525	-10.42
243.741	-13.99
243.957	-9.7
244.173	-12.43
244.388	-13.24
244.604	-9.22
244.82	-8.52
245.036	-8.15
245.252	-0.59
245.468	1.71
245.683	3.84
245.899	1.36
246.115	2.41
246.331	4.61
246.547	1.89
246.762	-1.75
246.978	-1.36
247.194	-3.57
247.409	-2.79
247.625	-5.17
247.841	-9.55
248.057	-11.81
248.272	-8.54
248.488	-5.57
248.703	-5.69
248.919	-3.9
249.135	1.96
249.35	-2.14
249.566	6.05
249.782	3.25
249.997	0.59
250.213	1.12
250.428	1.69
250.644	-11.92
250.859	-14.18
251.075	-21.38
251.29	-13.78
251.506	-18.21
251.721	-20.03
251.937	-22.59
252.152	-21.47
252.368	-18.5
252.583	-20.28
252.798	-22.99
253.014	-11.76
253.229	-24.79
253.445	-19.63
253.66	-27.29
253.875	-23.88
254.091	-22.32
254.306	-12.7
254.521	-13.34
254.737	-10.2
254.952	-10.18
255.167	-7.74
255.383	-7.65
255.598	-3.98
255.813	-1.73
256.028	-5.2
256.244	-7.41
256.459	-5.95
256.674	-7.94
256.889	-9.16
257.104	-4.37
257.32	0.17
257.535	5.34
257.75	-0.56
257.965	3.37
258.18	-0.38
258.395	-0.93
258.61	3.08
258.826	3.07
259.041	2.77
259.256	3.12
259.471	0.62
259.686	-1.11
259.901	-3.77
260.116	-1.37
260.331	-1.1
260.546	1.25
260.761	3.37
260.976	1.88
261.191	2.6
261.406	4.02
261.621	-2.75
261.836	-4.28
262.05	-6.02
262.265	-8.13
262.48	-2
262.695	-3.4
262.91	-3.92
263.125	-3.57
263.34	-5.78
263.555	-6.57
263.769	-17.48
263.984	-6.94
264.199	-8
264.414	-6.36
264.629	-1.03
264.843	-9.63
265.058	-9.95
265.273	-10.2
265.488	-10.16
265.702	-11.13
265.917	-12.09
266.132	-15.75
266.346	-12.81
266.561	-14.63
266.776	-14.68
266.99	-21.32
267.205	-18.95
267.42	-19.51
267.634	-18.95
267.849	-17.31
268.063	-13.18
268.278	-15.5
268.492	-13.15
268.707	-12.96
268.922	-7.89
269.136	-6.3
269.351	2.79
269.565	4.09
269.78	4.9
269.994	4.42
270.209	2.47
270.423	1.16
270.637	5.1
270.852	9.75
271.066	8.23
271.281	5.38
271.495	5.74
271.709	-0.83
271.924	-4.2
272.138	-6.19
272.353	-7.57
272.567	-7.14
272.781	-9.63
272.996	-10.67
273.21	-13.31
273.424	-11.25
273.638	-9
273.853	-12.48
274.067	-9.26
274.281	-3.35
274.495	-1.79
274.71	2.42
274.924	2.34
275.138	6.58
275.352	2.18
275.566	0.24
275.781	-3.2
275.995	-3.63
276.209	-7.48
276.423	-10.67
276.637	-17.7
276.851	-18.07
277.065	-24.73
277.279	-29.01
277.493	-29.35
277.707	-23.75
277.921	-20.6
278.135	-20.47
278.349	-11.97
278.563	-8.92
278.777	-6.48
278.991	-1.57
279.205	-1.06
279.419	0.65
279.633	2.78
279.847	2.56
280.061	0.12
280.275	2.26
280.489	0.24
280.703	-5.7
280.917	-0.33
281.131	-0.13
281.344	-6.77
281.558	-4.83
281.772	-4.24
281.986	-6.35
282.2	-6.28
282.414	-3.81
282.627	-7.25
282.841	-6.25
283.055	-6.19
283.269	-6.79
283.482	-7.89
283.696	-5.3
283.91	-4.14
284.123	-7.66
284.337	-4.07
284.551	-3.6
284.764	-2.28
284.978	-0.02
285.192	1.32
285.405	2.64
285.619	2.42
285.833	4.21
286.046	6.46
286.26	4.6
286.473	8.38
286.687	8.63
286.9	9.57
287.114	9.91
287.327	6.73
287.541	8.05
287.754	7.07
287.968	5.64
288.181	4.2
288.395	0.46
288.608	3.39
288.822	2.66
289.035	1.73
289.248	-2.2
289.462	-3.9
289.675	1.8
289.889	0.39
290.102	0.52
290.315	1.73
290.529	2.71
290.742	4
290.955	1.81
291.169	1.36
291.382	1.9
291.595	2.76
291.808	3.35
292.022	-1.76
292.235	-1.8
292.448	0.03
292.661	0.05
292.875	-0.24
293.088	0.92
293.301	-0.48
293.514	-1.06
293.727	-3.27
293.94	-2.36
294.153	-4.17
294.367	-4.38
294.58	-4.02
294.793	-7.1
295.006	-9.2
295.219	-9.79
295.432	-9.76
295.645	-9.42
295.858	-7.84
296.071	-6.68
296.284	-6.26
296.497	-3.57
296.71	-2.99
296.923	-3.12
297.136	-1.44
297.349	-1.93
297.562	0.23
297.775	0.75
297.988	0.12
298.201	-1.41
298.414	-0.27
298.626	1.54
298.839	-0.91
299.052	0.69
299.265	1.53
299.478	2.9
299.691	3.91
299.903	3.41
300.116	5.07
300.329	8.17
300.542	8.24
300.755	7.13
300.967	4.32
301.18	2.92
301.393	2.31
301.605	2.65
301.818	0.32
302.031	-1.94
302.243	-4.01
302.456	-3.17
302.669	-3.65
302.881	-5.75
303.094	-7.39
303.307	-4.03
303.519	-1.97
303.732	-3.78
303.944	-3.96
304.157	-6.63
304.37	-4.1
304.582	-1.68
304.795	-6.73
305.007	-8.74
305.22	-4.26
305.432	-2.47
305.645	-4.87
305.857	-2.93
306.069	0.51
306.282	1.16
306.494	3.89
306.707	5.49
306.919	3.05
307.132	2.74
307.344	0.87
307.556	-2.5
307.769	-4.46
307.981	-3.52
308.193	-6.64
308.406	-8.11
308.618	-8.73
308.83	-7.3
309.043	-8.83
309.255	-9.26
309.467	-7.86
309.679	-3.43
309.892	-2.09
310.104	0.14
310.316	0.92
310.528	3.51
310.74	5.95
310.953	6.56
311.165	5.17
311.377	7.97
311.589	8.24
311.801	8.8
312.013	4.4
312.225	3.48
312.437	0.36
312.649	-3.32
312.862	-2.53
313.074	-5.12
313.286	-4.23
313.498	-2.53
313.71	-7.09
313.922	-9.15
314.134	-10.33
314.346	-9.98
314.558	-8.41
314.77	-2.37
314.982	1.26
315.193	-2.6
315.405	-5.12
315.617	-5.24
315.829	-9.31
316.041	-7.99
316.253	-2.63
316.465	-2.45
316.677	-0.28
316.888	-0.22
317.1	0.92
317.312	-1.04
317.524	2.45
317.736	0.53
317.947	-3.58
318.159	1.07
318.371	4.09
318.583	2.96
318.794	3.08
319.006	3.71
319.218	4.22
319.43	2.11
319.641	3.97
319.853	4.34
320.064	8.04
320.276	11.19
320.488	8.03
320.699	5.94
320.911	4.9
321.123	5.24
321.334	-0.43
321.546	0.91
321.757	3.74
321.969	3.04
322.18	-0.82
322.392	0.11
322.603	0.69
322.815	2.42
323.026	0.16
323.238	1.7
323.449	2.22
323.661	5.59
323.872	4.43
324.083	0.13
324.295	2.36
324.506	4.28
324.718	1.86
324.929	2.04
325.14	3.1
325.352	2.48
325.563	2.02
325.774	3.17
325.986	4.39
326.197	3.18
326.408	6.63
326.62	5.53
326.831	2.76
327.042	3.16
327.253	3.46
327.464	0.63
327.676	1.73
327.887	-0.57
328.098	-1.26
328.309	-0.25
328.52	2.75
328.732	-2.12
328.943	-3.05
329.154	-0.58
329.365	-0.07
329.576	-1.8
329.787	-0.18
329.998	-0.15
330.209	3.24
330.42	3.91
330.631	2.6
330.842	2.74
331.053	4.24
331.264	6.03
331.475	5.92
331.686	7.73
331.897	9.25
332.108	8.02
332.319	10.37
332.53	10.81
332.741	12.06
332.952	12.07
333.163	9.19
333.374	9.5
333.585	6.49
333.795	4.13
334.006	3.96
334.217	2.24
334.428	3.38
334.639	0.63
334.849	-2.2
335.06	-4.26
335.271	-3.8
335.482	-4.26
335.692	-3.47
335.903	-2.91
336.114	0.34
336.325	0.44
336.535	2.28
336.746	-0.47
336.957	0.33
337.167	2.92
337.378	-0.42
337.589	0.18
337.799	1.98
338.01	2.8
338.22	4.13
338.431	3.39
338.642	1.86
338.852	2.47
339.063	4.22
339.273	6.28
339.484	6.41
339.694	10.16
339.905	9.39
340.115	6.68
340.326	6.79
340.536	5.19
340.746	4.3
340.957	4.81
341.167	3.94
341.378	4.77
341.588	4.16
341.799	2.6
342.009	1.52
342.219	1.59
342.43	4.61
342.64	4.09
342.85	4.53
343.061	5.69
343.271	4.18
343.481	3.35
343.691	2.18
343.902	2.37
344.112	4.22
344.322	4.83
344.532	4.07
344.743	3.9
344.953	4.94
345.163	5.68
345.373	5.3
345.583	5.33
345.793	4.97
346.004	6.38
346.214	6.38
346.424	6.3
346.634	6.78
346.844	6.14
347.054	8.61
347.264	7.54
347.474	8.12
347.684	9.11
347.894	9.4
348.104	9.66
348.314	9.83
348.524	10.6
348.734	10.28
348.944	9.36
349.154	10.5
349.364	6.54
349.574	6.29
349.784	6.67
349.994	7.65
350.204	8.73
350.413	7.61
350.623	5.82
350.833	4.7
351.043	4.61
351.253	5.63
351.463	5.75
351.672	4.65
351.882	3.97
352.092	2.15
352.302	0.11
352.511	0.12
352.721	0.41
352.931	2.33
353.141	3.41
353.35	2.7
353.56	2.14
353.77	2.73
353.979	4.61
354.189	4.77
354.399	4.26
354.608	3
354.818	2.44
355.027	4.07
355.237	4.03
355.447	2.53
355.656	3.33
355.866	2.6
356.075	2.6
356.285	2.84
356.494	2.88
356.704	4.28
356.913	5.46
357.123	4.62
357.332	3.98
357.542	4.35
357.751	5.8
357.96	5.05
358.17	5.98
358.379	6.91
358.589	5.73
358.798	6.69
359.007	7.24
359.217	8.29
359.426	10.34
359.635	10.37
359.845	9.9
360.054	9.45
360.263	9.96
360.472	10.93
360.682	9.83
360.891	11.01
361.1	11.17
361.309	11.97
361.519	11.03
361.728	10.24
361.937	9.97
362.146	9.3
362.355	9.78
362.564	10.02
362.774	8.67
362.983	8.74
363.192	8.1
363.401	8.26
363.61	6.06
363.819	5.03
364.028	6.14
364.237	7.52
364.446	7.95
364.655	6.43
364.864	6.48
365.073	7.43
365.282	6.69
365.491	6.74
365.7	5.16
365.909	7.11
366.118	8.27
366.327	7.12
366.536	7.02
366.745	8.1
366.954	7.3
367.162	5.71
367.371	5.57
367.58	5.84
367.789	7.45
367.998	7.45
368.207	6.65
368.415	6.67
368.624	6.74
368.833	6.33
369.042	3.87
369.25	5.22
369.459	5.77
369.668	5.21
369.877	6.35
370.085	6.05
370.294	6.63
370.503	6.36
370.711	5.37
370.92	6.15
371.129	5.94
371.337	6.87
371.546	7.48
371.754	8.31
371.963	7.53
372.171	7.11
372.38	6.4
372.589	5.39
372.797	5.73
373.006	6.99
373.214	5.17
373.423	4.16
373.631	4.47
373.84	4.06
374.048	3.5
374.256	4.79
374.465	3.99
374.673	3.35
374.882	3.84
375.09	3.45
375.298	5.02
375.507	8.08
375.715	8.84
375.923	9.9
376.132	10.96
376.34	12.13
376.548	11.43
376.757	10.55
376.965	11.96
377.173	13.21
377.381	12.9
377.59	10.62
377.798	7.95
378.006	9.16
378.214	6.87
378.423	6.39
378.631	6.21
378.839	6.57
379.047	7.98
379.255	7.14
379.463	7.23
379.671	6.69
379.879	7.86
380.088	10.03
380.296	9.21
380.504	10.31
380.712	9.69
380.92	9.24
381.128	10.49
381.336	11
381.544	11.65
381.752	9.35
381.96	10.35
382.168	10.29
382.376	8.73
382.584	7.92
382.791	7.07
382.999	8.59
383.207	7.59
383.415	7.3
383.623	5.23
383.831	4.44
384.039	4.77
384.247	4.47
384.454	4.15
384.662	4.81
384.87	6.91
385.078	8.35
385.285	6.46
385.493	7.01
385.701	6.1
385.909	7.5
386.116	8.22
386.324	9.8
386.532	10.91
386.739	11.47
386.947	10.85
387.155	9.62
387.362	8.86
387.57	8.98
387.778	8.95
387.985	8.6
388.193	8.43
388.4	7.24
388.608	6.57
388.816	5.76
389.023	5.93
389.231	6.04
389.438	4.94
389.646	5.82
389.853	5.73
390.061	6.54
390.268	6.03
390.475	7.34
390.683	7.07
390.89	7.25
391.098	6.64
391.305	6.68
391.512	7.08
391.72	7.49
391.927	7.31
392.135	7.55
392.342	6.95
392.549	8.23
392.756	8.28
392.964	9.32
393.171	8.28
393.378	9.07
393.586	7.97
393.793	8.35
394	8.35
394.207	8.64
394.414	9.01
394.622	9.45
394.829	9.07
395.036	7.23
395.243	5.54
395.45	7.35
395.657	7.06
395.864	8
396.072	7.01
396.279	7.94
396.486	6.94
396.693	7.05
396.9	6.9
397.107	6.66
397.314	8.69
397.521	10.55
397.728	10.35
397.935	9.49
398.142	8.28
398.349	8.87
398.556	8.9
398.763	10.38
398.97	8.83
399.177	9.5
399.383	9.97
399.59	10.03
399.797	9.43
400.004	9.18
400.211	9.66
400.418	11.23
400.625	11.01
400.831	10.21
401.038	9.24
401.245	10.2
401.452	9.39
401.658	8.75
401.865	7.7
402.072	7.69
402.279	7.44
402.485	6.87
402.692	6.61
402.899	5.5
403.105	6.79
403.312	7.21
403.519	6.28
403.725	5.57
403.932	5.22
404.138	5.26
404.345	5.86
404.552	6.58
404.758	6.47
404.965	6.15
405.171	7.85
405.378	7.11
405.584	7.02
405.791	8.23
405.997	9.25
406.204	9.78
406.41	9.18
406.617	9.28
406.823	8.48
407.029	9.89
407.236	9.58
407.442	8.46
407.649	8.41
407.855	7.93
408.061	7.32
408.268	8.26
408.474	9.24
408.68	9.96
408.887	9.47
409.093	9.28
409.299	7.96
409.505	8.75
409.712	9.78
409.918	9.9
410.124	8.92
410.33	9.63
410.537	9.19
410.743	8.85
410.949	9.08
411.155	9.4
411.361	10.27
411.567	11.15
411.773	11.77
411.98	12.57
412.186	11.93
412.392	13.49
412.598	13.8
412.804	13.51
413.01	13.55
413.216	13.57
413.422	14.12
413.628	12.76
413.834	11.69
414.04	11.19
414.246	10.82
414.452	11.51
414.658	11.98
414.864	10.9
415.07	11.46
415.275	11.28
415.481	10.97
415.687	9.94
415.893	10.28
416.099	11.6
416.305	11.34
416.511	11.28
416.716	11.06
416.922	9.76
417.128	10.06
417.334	9.89
417.539	9.84
417.745	10.36
417.951	10.94
418.157	11.19
418.362	10.92
418.568	10.75
418.774	10.5
418.979	10.28
419.185	11.01
419.391	11.55
419.596	11.3
419.802	11.39
420.008	10.93
420.213	11.28
420.419	11.08
420.624	11.37
420.83	11.97
421.035	11.91
421.241	12.2
421.446	11.87
421.652	11.73
421.857	12.01
422.063	12.17
422.268	12.4
422.474	11.61
422.679	12.36
422.885	12.21
423.09	11.85
423.295	12.13
423.501	11.75
423.706	12.27
423.911	12.08
424.117	11.87
424.322	11.74
424.527	11.91
424.733	11.97
424.938	11.76
425.143	11.3
425.349	11.15
425.554	10.62
425.759	11.2
425.964	10.53
426.169	10.86
426.375	10.76
426.58	11.05
426.785	10.78
426.99	10.86
427.195	10.45
427.4	11.01
427.605	10.53
427.811	11.54
428.016	11.24
428.221	11.45
428.426	10.78
428.631	10.92
428.836	10.87
429.041	10.8
429.246	11.17
429.451	11.57
429.656	12.35
429.861	13.15
430.066	12.54
430.271	13.07
430.476	12.86
430.681	12.95
430.886	13.41
431.09	13.04
431.295	13.46
431.5	13.62
431.705	13.5
431.91	12.97
432.115	12.92
432.32	12.7
432.524	12.54
432.729	12.46
432.934	12.65
433.139	12.34
433.343	12.04
433.548	11.82
433.753	11.13
433.958	11.04
434.162	10.65
434.367	11.22
434.572	11.11
434.776	11.33
434.981	11.89
435.186	12.55
435.39	12.53
435.595	12.48
435.799	12.56
436.004	13.01
436.209	13.56
436.413	13.8
436.618	13.13
436.822	13.71
437.027	13.1
437.231	13.01
437.436	12.31
437.64	11.53
437.845	12.09
438.049	12.37
438.253	12.67
438.458	11.97
438.662	11.86
438.867	11.88
439.071	11.1
439.275	11.23
439.48	11.07
439.684	10.94
439.888	11.25
440.093	10.82
440.297	10.5
440.501	10.37
440.706	10.13
440.91	10.03
441.114	10.19
441.318	10.25
441.523	10.28
441.727	10.74
441.931	11.17
442.135	11.85
442.339	12.18
442.543	12.39
442.748	12.52
442.952	13.1
443.156	12.78
443.36	12.56
443.564	13.04
443.768	12.85
443.972	12.55
444.176	12.8
444.38	12.49
444.584	12.48
444.788	12.16
444.992	12.06
445.196	12.01
445.4	12.55
445.604	12.69
445.808	12.42
446.012	12.79
446.216	12.69
446.42	12.64
446.624	12.81
446.828	12.46
447.032	12.42
447.235	12.34
447.439	12.08
447.643	12.12
447.847	11.53
448.051	11.52
448.254	11.42
448.458	11.61
448.662	11.2
448.866	11.04
449.069	11.5
449.273	11.93
449.477	12.1
449.681	11.95
449.884	11.36
450.088	11.48
450.292	11.9
450.495	12.13
450.699	12.27
450.902	12.35
451.106	12.53
451.31	12.83
451.513	12.51
451.717	12.59
451.92	12.66
452.124	13.08
452.327	13.58
452.531	13.5
452.734	13.01
452.938	12.54
453.141	12.7
453.345	12.69
453.548	12.62
453.752	12.37
453.955	12.21
454.158	12.48
454.362	12.3
454.565	12.46
454.769	12.5
454.972	12.01
455.175	12.49
455.379	12.8
455.582	12.1
455.785	11.48
455.988	11.52
456.192	11.18
456.395	11.31
456.598	11.27
456.801	11.33
457.005	11.03
457.208	11.47
457.411	11.45
457.614	10.87
457.817	10.94
458.021	10.95
458.224	11.12
458.427	11.15
458.63	10.8
458.833	11.12
459.036	10.78
459.239	10.87
459.442	10.96
459.645	10.88
459.848	10.94
460.051	10.82
460.254	11.41
460.457	11.25
460.66	11.38
460.863	11.71
461.066	11.49
461.269	11.6
461.472	11.43
461.675	10.98
461.878	10.77
462.081	10.67
462.284	11.08
462.486	10.5
462.689	10.69
462.892	10.27
463.095	10.03
463.298	9.81
463.5	9.74
463.703	9.43
463.906	9.83
464.109	9.69
464.311	10.23
464.514	10.16
464.717	10.12
464.92	10.97
465.122	11.49
465.325	11.8
465.528	11.87
465.73	12.09
465.933	13.09
466.135	12.52
466.338	12.76
466.541	12.56
466.743	12.81
466.946	12.85
467.148	12.5
467.351	12.1
467.553	11.66
467.756	11.63
467.958	11.47
468.161	10.73
468.363	11.51
468.566	10.91
468.768	10.64
468.971	11.19
469.173	11.24
469.375	11.43
469.578	11.28
469.78	11.85
469.983	11.86
470.185	11.48
470.387	11.11
470.59	11.53
470.792	11.84
470.994	11.66
471.196	10.43
471.399	9.99
471.601	9.2
471.803	9.9
472.005	9.38
472.208	9.22
472.41	9.24
472.612	9.86
472.814	8.91
473.016	8.99
473.218	9.37
473.421	9.89
473.623	10.41
473.825	10.62
474.027	10.26
474.229	10.49
474.431	10.45
474.633	11.11
474.835	11.57
475.037	11.83
475.239	11.84
475.441	11.61
475.643	11.21
475.845	10.94
476.047	11.27
476.249	11.14
476.451	11.4
476.653	12.01
476.855	11.8
477.057	11.13
477.258	11.79
477.46	11.65
477.662	11.98
477.864	12.75
478.066	12.79
478.268	12.51
478.469	12.6
478.671	12.68
478.873	12.32
479.075	12.44
479.276	12.85
479.478	12.3
479.68	12.64
479.882	12.37
480.083	12.42
480.285	12.69
480.487	12.82
480.688	12.98
480.89	12.46
481.091	12.4
481.293	12.1
481.495	12.07
481.696	11.88
481.898	11.95
482.099	12.06
482.301	11.66
482.502	11.81
482.704	11.78
482.905	11.55
483.107	11.78
483.308	11.85
483.51	11.98
483.711	11.91
483.913	12.09
484.114	12.06
484.315	11.92
484.517	12.09
484.718	11.88
484.92	12.05
485.121	12.19
485.322	12.31
485.524	12.43
485.725	12.31
485.926	12.34
486.127	12.2
486.329	12.15
486.53	12.12
486.731	12.02
486.932	12.17
487.134	11.97
487.335	12.04
487.536	12.03
487.737	11.99
487.938	12.11
488.139	11.9
488.341	11.9
488.542	11.91
488.743	11.88
488.944	11.77
489.145	11.73
489.346	11.71
489.547	11.49
489.748	11.27
489.949	11.19
490.15	11.28
490.351	11.68
490.552	11.72
490.753	11.6
490.954	11.54
491.155	11.83
491.356	11.73
491.557	11.59
491.758	11.66
491.959	11.67
492.159	11.36
492.36	11.06
492.561	10.84
492.762	10.66
492.963	10.66
493.164	10.98
493.364	10.76
493.565	10.75
493.766	11.04
493.967	11.35
494.167	11.35
494.368	11.9
494.569	11.9
494.769	11.77
494.97	11.94
495.171	12.37
495.371	12.55
495.572	12.31
495.773	12.02
495.973	11.99
496.174	11.74
496.375	11.72
496.575	11.81
496.776	12.14
496.976	12.16
497.177	12.04
497.377	11.65
497.578	11.13
497.778	11.09
497.979	11.09
498.179	11.34
498.38	11.36
498.58	11.23
498.78	11.14
498.981	11.08
499.181	11.1
499.382	11.06
499.582	11.25
499.782	11.79
499.983	12.04
500.183	12.2
500.383	11.9
500.584	12.15
500.784	12.09
500.984	11.93
501.184	11.33
501.385	11.65
501.585	11.74
501.785	12.17
501.985	12.4
502.185	12.41
502.386	12.7
502.586	12.46
502.786	12.34
502.986	12.38
503.186	12.07
503.386	12.49
503.586	11.97
503.786	12.27
503.987	11.81
504.187	11.19
504.387	11.22
504.587	11.18
504.787	11.68
504.987	12.27
505.187	12.35
505.387	12.75
505.587	12.94
505.786	13.26
505.986	12.85
506.186	12.82
506.386	12.95
506.586	13.17
506.786	13.47
506.986	13.48
507.186	13.16
507.386	13.17
507.585	12.76
507.785	12.79
507.985	12.87
508.185	13.2
508.384	13.2
508.584	12.88
508.784	13.09
508.984	12.76
509.183	12.27
509.383	12.19
509.583	12.09
509.782	12.95
509.982	13.01
510.182	13.39
510.381	13.22
510.581	13.16
510.781	13.32
510.98	12.57
511.18	12.68
511.379	13.04
511.579	13.08
511.778	13.35
511.978	12.92
512.177	13.05
512.377	12.47
512.576	12.58
512.776	13.07
512.975	13.43
513.175	14.05
513.374	14.07
513.573	13.87
513.773	13.8
513.972	14.11
514.172	14.09
514.371	13.89
514.57	14.28
514.77	13.98
514.969	14.11
515.168	14.45
515.367	14.53
515.567	14.31
515.766	14.57
515.965	14.39
516.164	13.74
516.364	13.61
516.563	13.47
516.762	13.52
516.961	13.81
517.16	13.68
517.359	13.69
517.559	13.48
517.758	13.4
517.957	13.33
518.156	13.66
518.355	13.86
518.554	14.3
518.753	14.59
518.952	14.56
519.151	14.22
519.35	13.98
519.549	13.85
519.748	13.95
519.947	14.14
520.146	14.41
520.345	14.31
520.544	14.43
520.743	14.04
520.942	13.99
521.141	13.86
521.339	14.42
521.538	14.63
521.737	14.29
521.936	14.32
522.135	14.69
522.333	14.49
522.532	14.66
522.731	14.95
522.93	14.92
523.129	14.36
523.327	14.79
523.526	14.58
523.725	14.74
523.923	14.93
524.122	14.59
524.321	14.75
524.519	14.82
524.718	14.89
524.917	14.53
525.115	14.57
525.314	14.98
525.512	14.71
525.711	14.76
525.909	14.59
526.108	14.62
526.306	14.71
526.505	14.76
526.703	14.71
526.902	14.6
527.1	14.81
527.299	14.66
527.497	14.77
527.696	14.82
527.894	14.91
528.092	14.99
528.291	15.01
528.489	15.21
528.688	15.12
528.886	15.27
529.084	15.29
529.283	15.32
529.481	15.66
529.679	15.6
529.877	15.62
530.076	15.75
530.274	15.84
530.472	16.06
530.67	15.84
530.869	15.87
531.067	15.76
531.265	15.81
531.463	15.94
531.661	15.86
531.859	15.56
532.057	15.51
532.255	15.4
532.454	15.51
532.652	15.48
532.85	15.68
533.048	15.72
533.246	15.71
533.444	15.78
533.642	15.63
533.84	15.79
534.038	15.99
534.236	16.17
534.434	15.98
534.632	15.93
534.83	16.02
535.027	16
535.225	16.09
535.423	16.14
535.621	16.44
535.819	16.37
536.017	16.24
536.215	16.61
536.412	16.58
536.61	16.93
536.808	17.17
537.006	17.15
537.203	17.42
537.401	16.75
537.599	16.82
537.797	16.65
537.994	17.09
538.192	17.2
538.39	17.31
538.587	17.53
538.785	17.4
538.983	16.97
539.18	16.81
539.378	16.75
539.575	17.34
539.773	17.28
539.97	17.18
540.168	17.14
540.366	16.86
540.563	16.82
540.761	16.73
540.958	16.76
541.155	16.73
541.353	16.8
541.55	16.69
541.748	16.63
541.945	16.76
542.143	16.74
542.34	16.45
542.537	16.88
542.735	16.7
542.932	16.7
543.129	16.85
543.327	17
543.524	16.72
543.721	16.92
543.919	17
544.116	16.72
544.313	16.57
544.51	16.86
544.708	16.41
544.905	16.49
545.102	16.41
545.299	16.21
545.496	16.39
545.693	16.7
545.891	16.48
546.088	16.54
546.285	16.81
546.482	16.99
546.679	16.73
546.876	16.9
547.073	16.98
547.27	17.02
547.467	17.08
547.664	17
547.861	16.85
548.058	17.41
548.255	17.66
548.452	17.56
548.649	17.43
548.846	17.48
549.043	17.99
549.24	18.22
549.437	18.95
549.633	19.01
549.83	19.09
550.027	19.51
550.224	18.81
550.421	18.7
550.618	19.06
550.814	19.17
551.011	19.69
551.208	19.37
551.405	19.39
551.601	18.76
551.798	19.28
551.995	18.98
552.191	18.68
552.388	18.92
552.585	18.48
552.781	18.39
552.978	18.48
553.175	18.53
553.371	18.52
553.568	18.61
553.764	18.67
553.961	18.08
554.157	18.51
554.354	18.65
554.55	18.53
554.747	19.16
554.943	19.11
555.14	18.6
555.336	18.41
555.533	18.21
555.729	17.79
555.926	18.18
556.122	18.6
556.318	18.48
556.515	18.88
556.711	19.26
556.907	18.43
557.104	18.42
557.3	19.03
557.496	19.09
557.693	19.33
557.889	19.12
558.085	19.46
558.281	19.69
558.478	19.59
558.674	19.53
558.87	19.39
559.066	19.51
559.262	19.96
559.459	20.38
559.655	20.3
559.851	20.6
560.047	21.01
560.243	20.22
560.439	19.87
560.635	20.4
560.831	20.26
561.027	20.29
561.223	20.4
561.419	20.55
561.615	20.34
561.811	20.03
562.007	20.1
562.203	20.45
562.399	20.65
562.595	20.93
562.791	20.53
562.987	20.74
563.183	21.16
563.379	21.29
563.575	20.95
563.771	20.89
563.966	21.36
564.162	21.35
564.358	21.34
564.554	21.62
564.75	21.89
564.945	22.23
565.141	22.2
565.337	21.62
565.533	21.78
565.728	21.83
565.924	22.39
566.12	22.44
566.315	21.88
566.511	21.74
566.707	21.92
566.902	21.68
567.098	21.34
567.293	21.26
567.489	21.84
567.684	22
567.88	21.95
568.076	21.14
568.271	21.34
568.467	22.27
568.662	22.55
568.858	22.68
569.053	22.79
569.248	23.15
569.444	23.99
569.639	23.94
569.835	24.21
570.03	24.16
570.225	24.35
570.421	24.35
570.616	24.27
570.812	23.68
571.007	23.59
571.202	23.3
571.397	23.32
571.593	22.57
571.788	22.61
571.983	22.17
572.178	22.2
572.374	22.4
572.569	21.82
572.764	21.66
572.959	22.72
573.154	22.95
573.35	23.45
573.545	23.69
573.74	23.86
573.935	23.62
574.13	23.79
574.325	24.47
574.52	24.27
574.715	24.87
574.91	24.76
575.105	23.92
575.3	23.86
575.495	23.76
575.69	23.44
575.885	23.77
576.08	24.11
576.275	24.54
576.47	23.72
576.665	24.14
576.86	23.73
577.055	24.08
577.25	24.74
577.444	24.47
577.639	23.69
577.834	23.32
578.029	22.83
578.224	22.38
578.418	21.97
578.613	22.48
578.808	22.6
579.003	22.98
579.197	22.99
579.392	23.01
579.587	23.52
579.781	24.31
579.976	24.71
580.171	25.87
580.365	26.59
580.56	27.09
580.755	26.95
580.949	27.04
581.144	27.1
581.338	26.99
581.533	26.53
581.727	25.63
581.922	25.42
582.116	25.25
582.311	24.53
582.505	23.92
582.7	24.38
582.894	24.15
583.089	24.15
583.283	23.64
583.478	23.9
583.672	23.45
583.866	24.31
584.061	24.49
584.255	24.98
584.449	24.94
584.644	24.51
584.838	23.51
585.032	23.93
585.226	23.19
585.421	23.57
585.615	22.88
585.809	23.61
586.003	23.24
586.198	23.12
586.392	22.96
586.586	23.47
586.78	24.58
586.974	24.55
587.168	24.31
587.363	25.28
587.557	25.63
587.751	25.5
587.945	25.06
588.139	24.83
588.333	24.99
588.527	24.88
588.721	24.05
588.915	23.86
589.109	24.47
589.303	24.92
589.497	24.6
589.691	24.59
589.885	25.16
590.079	25.93
590.273	26.11
590.466	26.28
590.66	26.12
590.854	26.52
591.048	26.35
591.242	26.42
591.436	26.11
591.629	26.13
591.823	26.11
592.017	26.1
592.211	25.98
592.404	26.29
592.598	25.88
592.792	26.36
592.986	26.42
593.179	27.3
593.373	27.67
593.567	27.79
593.76	27.42
593.954	27.26
594.147	27.2
594.341	27.5
594.535	27.79
594.728	27.49
594.922	27.54
595.115	27.97
595.309	27.55
595.502	27.35
595.696	27.07
595.889	27.57
596.083	27.79
596.276	27.83
596.47	27.51
596.663	27.43
596.856	28.72
597.05	28.77
597.243	28.85
597.437	28.1
597.63	26.89
597.823	26.92
598.017	26.81
598.21	26.96
598.403	27.67
598.596	27.52
598.79	27.34
598.983	27.18
599.176	26.25
599.369	25.77
599.563	26.51
599.756	27.85
599.949	27.82
600.142	26.95
600.335	27.55
600.528	26.81
600.722	27.06
600.915	27.36
601.108	26.57
601.301	27.83
601.494	27.34
601.687	27.26
601.88	27.42
602.073	27.5
602.266	28.32
602.459	28.18
602.652	28.23
602.845	27.79
603.038	27.99
603.231	28.23
603.424	27.89
603.617	27.79
603.809	28.37
604.002	28.1
604.195	28.36
604.388	28.74
604.581	28.76
604.774	28.8
604.966	28.96
605.159	28.78
605.352	29.41
605.545	29.29
605.737	29.75
605.93	29.19
606.123	28.58
606.316	28.61
606.508	27.77
606.701	26.39
606.894	26.3
607.086	26.74
607.279	25.76
607.471	25.63
607.664	26.38
607.857	26.05
608.049	26.2
608.242	26.72
608.434	27.35
608.627	28.32
608.819	28.88
609.012	29.16
609.204	29.2
609.397	29.91
609.589	29.73
609.782	29.63
609.974	29.86
610.166	30.48
610.359	30.64
610.551	29.93
610.743	29.82
610.936	30.97
611.128	30.35
611.32	29.92
611.513	30.45
611.705	29.91
611.897	29.82
612.09	30.3
612.282	30.16
612.474	29.98
612.666	30
612.858	28.96
613.051	27.3
613.243	27.57
613.435	27.68
613.627	27.12
613.819	27.27
614.011	26.43
614.203	26.12
614.395	24.67
614.588	24.88
614.78	25.41
614.972	25.86
615.164	26.42
615.356	27
615.548	27.03
615.74	26.89
615.932	26.47
616.124	27.67
616.315	28.01
616.507	27.87
616.699	27.73
616.891	27.51
617.083	27.15
617.275	27.58
617.467	27.67
617.659	27.61
617.85	28.08
618.042	27.39
618.234	26.7
618.426	27.12
618.618	28.15
618.809	28.78
619.001	28.04
619.193	28.6
619.384	28.75
619.576	28.64
619.768	29.41
619.959	28.65
620.151	29.8
620.343	29.49
620.534	28.87
620.726	28.7
620.917	28.13
621.109	29.41
621.301	29.81
621.492	29.69
621.684	29.18
621.875	28.24
622.067	28.85
622.258	28.45
622.45	28.5
622.641	28.69
622.832	28.29
623.024	28.06
623.215	27
623.407	26.31
623.598	26.03
623.789	24.97
623.981	25.29
624.172	25.18
624.363	25.62
624.555	26.07
624.746	25.88
624.937	26.6
625.129	27.14
625.32	27.34
625.511	27.51
625.702	27.67
625.893	28.1
626.085	29.09
626.276	29.31
626.467	29.42
626.658	29.52
626.849	30.17
627.04	30.1
627.231	30.16
627.422	30.53
627.614	30.61
627.805	30.13
627.996	31.02
628.187	29.95
628.378	30.27
628.569	29.9
628.76	30.26
628.951	30.18
629.142	30.53
629.332	29.88
629.523	29.5
629.714	29.37
629.905	31.02
630.096	31.36
630.287	31.79
630.478	31.3
630.669	31.55
630.859	30.71
631.05	30.75
631.241	30.55
631.432	31.75
631.623	31.57
631.813	32.01
632.004	31.67
632.195	31.58
632.385	31.47
632.576	31.11
632.767	32.34
632.957	33.21
633.148	33.1
633.339	33.29
633.529	33.07
633.72	33.46
633.91	33.83
634.101	33.13
634.292	33.19
634.482	33.38
634.673	33.7
634.863	32.4
635.054	31.9
635.244	32.03
635.435	31.58
635.625	31.71
635.815	32.14
636.006	31.32
636.196	31.55
636.387	30.7
636.577	30.78
636.767	31.43
636.958	31.49
637.148	32.19
637.338	31.63
637.529	32.31
637.719	32.34
637.909	31.95
638.099	32.29
638.29	32.15
638.48	33.17
638.67	32.93
638.86	32.37
639.05	32.49
639.241	31.26
639.431	32.23
639.621	33.08
639.811	33.34
640.001	33.95
640.191	33.85
640.381	33.07
640.571	32.98
640.761	32.61
640.951	32.07
641.141	32.14
641.331	32.82
641.521	30.99
641.711	29.49
641.901	28.46
642.091	27.73
642.281	27.93
642.471	28.66
642.661	27.85
642.851	29.23
643.041	29.86
643.231	30.2
643.42	30.83
643.61	30.7
643.8	30.77
643.99	31.11
644.18	31.27
644.369	30.57
644.559	31.16
644.749	31.18
644.939	30.39
645.128	30.68
645.318	30.43
645.508	29.75
645.697	29.67
645.887	30.15
646.076	29.71
646.266	30.01
646.456	31
646.645	29.6
646.835	30.19
647.024	30.06
647.214	28.76
647.403	28.51
647.593	28.92
647.782	29.78
647.972	29.46
648.161	29.18
648.351	29.13
648.54	28.44
648.73	28.69
648.919	28.33
649.108	28.8
649.298	29.89
649.487	30.24
649.677	29.24
649.866	29.61
650.055	29.54
650.244	30.42
650.434	31.08
650.623	31.69
650.812	32.54
651.002	32.9
651.191	32.92
651.38	32.14
651.569	31.19
651.758	32.01
651.947	32.61
652.137	32.27
652.326	32.14
652.515	31.59
652.704	30.82
652.893	29.77
653.082	30.16
653.271	29.26
653.46	30.26
653.649	31.62
653.838	31.31
654.027	30.46
654.216	30.78
654.405	30.97
654.594	30.35
654.783	31.2
654.972	32.6
655.161	32.02
655.35	32.28
655.539	32.23
655.728	30.25
655.916	30.27
656.105	29.28
656.294	29.36
656.483	28.67
656.672	29.05
656.86	28.73
657.049	27.55
657.238	27.97
657.427	29.35
657.615	28.86
657.804	30.02
657.993	29.94
658.181	29.97
658.37	29.89
658.559	30.16
658.747	30.12
658.936	29.26
659.125	29.38
659.313	28.44
659.502	26.84
659.69	27.3
659.879	27.42
660.067	27.8
660.256	28.59
660.444	29.13
660.633	29.24
660.821	29.55
661.01	30.15
661.198	30.35
661.387	31.35
661.575	31.99
661.763	31.62
661.952	31.52
662.14	30.86
662.328	30.52
662.517	30.7
662.705	30.46
662.893	30.55
663.082	31.13
663.27	30.77
663.458	30.36
663.646	30.8
663.834	30.08
664.023	29.95
664.211	29.85
664.399	31.74
664.587	31.5
664.775	31.92
664.963	32.66
665.152	31.79
665.34	32.67
665.528	33.44
665.716	32.95
665.904	33.37
666.092	35.21
666.28	35.66
666.468	33.77
666.656	32.89
666.844	33.79
667.032	33.3
667.22	34.46
667.408	34.27
667.596	33.81
667.784	34.57
667.971	35.03
668.159	32.31
668.347	32.2
668.535	32.61
668.723	33.11
668.911	31.93
669.098	31.03
669.286	30.53
669.474	31.84
669.662	32.12
669.849	30.8
670.037	29.29
670.225	30.52
670.413	30.61
670.6	29.43
670.788	29.74
670.976	29.59
671.163	30.13
671.351	28.65
671.538	27.07
671.726	27.68
671.913	27.3
672.101	29.02
672.289	29.37
672.476	29.86
672.664	31.9
672.851	31.21
673.039	32.26
673.226	31.37
673.413	32.93
673.601	34.17
673.788	33.18
673.976	35.16
674.163	34.69
674.35	34.87
674.538	33.54
674.725	33.97
674.912	33.8
675.1	32.5
675.287	33.15
675.474	32.45
675.662	30.79
675.849	29.91
676.036	29.45
676.223	29.31
676.411	29.14
676.598	30.56
676.785	28.23
676.972	29.02
677.159	29.85
677.346	29.6
677.533	30.68
677.721	30.5
677.908	30.87
678.095	30.71
678.282	31.16
678.469	30.42
678.656	29.39
678.843	31.84
679.03	30.82
679.217	30.82
679.404	31.71
679.591	30.81
679.778	31.61
679.964	31.68
680.151	31.38
680.338	31.99
680.525	33.01
680.712	32.89
680.899	31.71
681.086	31.28
681.272	31.5
681.459	29.83
681.646	31.1
681.833	31.77
682.02	31.89
682.206	32.72
682.393	31.11
682.58	29.93
682.766	31.25
682.953	30.99
683.14	32.18
683.326	31.53
683.513	32.57
683.7	32.77
683.886	32.03
684.073	31.71
684.259	31.28
684.446	32.33
684.632	32.52
684.819	32.72
685.005	33.38
685.192	33.75
685.378	33.7
685.565	34.3
685.751	33.62
685.938	33.41
686.124	33.54
686.31	34.14
686.497	34.52
686.683	34.17
686.87	32.83
687.056	33.06
687.242	33.51
687.429	33.83
687.615	32.81
687.801	32.9
687.987	32.86
688.174	34.27
688.36	33.99
688.546	33.83
688.732	33.81
688.918	34.78
689.105	33.48
689.291	33.18
689.477	33.05
689.663	33.32
689.849	33.49
690.035	33.29
690.221	32.49
690.407	32.43
690.593	32.07
690.779	32.94
690.965	32.23
691.151	33.03
691.337	33.34
691.523	34.05
691.709	34.12
691.895	33.42
692.081	34.29
692.267	32.67
692.453	32.01
692.639	32.4
692.825	32.37
693.011	33.11
693.196	32.64
693.382	31.82
693.568	31.89
693.754	31.7
693.94	33.12
694.125	31.77
694.311	32.88
694.497	32.23
694.682	31.59
694.868	30.4
695.054	29.97
695.239	30.54
695.425	30.12
695.611	29.05
695.796	29.18
695.982	28.98
696.168	29.5
696.353	29.75
696.539	30.88
696.724	31.47
696.91	32.08
697.095	30.99
697.281	31.34
697.466	32.36
697.652	32.12
697.837	31.79
698.023	31.16
698.208	31.08
698.393	31.02
698.579	30.87
698.764	30.1
698.949	31.11
699.135	32.56
699.32	32.16
699.505	31.7
699.691	32.2
699.876	33.01
700.061	34.59
700.246	34.63
700.432	35.52
700.617	35.92
700.802	38.14
700.987	36.83
701.172	36.62
701.358	37.4
701.543	36.72
701.728	37.5
701.913	34.37
702.098	31.52
702.283	30.82
702.468	28.63
702.653	28.74
702.838	27.47
703.023	26.7
703.208	26.47
703.393	25.22
703.578	24.07
703.763	24.48
703.948	28.51
704.133	29.93
704.318	31.13
704.503	31.59
704.688	29.59
704.873	29.37
705.057	30.92
705.242	29.81
705.427	29.77
705.612	31.24
705.797	30.77
705.981	29.96
706.166	29.4
706.351	30.13
706.536	31.08
706.72	32.86
706.905	31.7
707.09	32.12
707.274	32.6
707.459	32.88
707.644	32.73
707.828	31.02
708.013	30.69
708.197	31.51
708.382	30.33
708.567	30.87
708.751	30.86
708.936	33.13
709.12	32.85
709.305	33.16
709.489	32.41
709.673	32.61
709.858	34.88
710.042	35.02
710.227	34.84
710.411	36.4
710.596	35.16
710.78	34.97
710.964	33.7
711.149	35.04
711.333	34.26
711.517	35.01
711.702	35.07
711.886	33.14
712.07	32.2
712.254	32.57
712.438	31.48
712.623	32.06
712.807	32.59
712.991	33.78
713.175	33.51
713.359	33.42
713.544	33.43
713.728	33.16
713.912	34.14
714.096	35.33
714.28	35.55
714.464	33.58
714.648	33.56
714.832	34.13
715.016	33.82
715.2	32.61
715.384	32.76
715.568	32.91
715.752	34.36
715.936	34.1
716.12	34.79
716.304	34.34
716.488	36.87
716.671	36.69
716.855	33.76
717.039	34.18
717.223	34.35
717.407	34.55
717.59	35.09
717.774	34.32
717.958	34.22
718.142	33.28
718.325	35.22
718.509	33.99
718.693	33.89
718.877	36.06
719.06	33.83
719.244	35
719.428	36.42
719.611	36.41
719.795	35.16
719.978	35.24
720.162	35.61
720.345	32.88
720.529	33.46
720.713	34.87
720.896	36.44
721.08	37.59
721.263	34.86
721.446	35.59
721.63	34.35
721.813	36.91
721.997	38.75
722.18	37.94
722.364	38.17
722.547	37.3
722.73	36.87
722.914	34.82
723.097	34.46
723.28	36.41
723.464	36.52
723.647	37.15
723.83	35.75
724.013	36.6
724.197	38.21
724.38	37.78
724.563	39.06
724.746	38.39
724.929	36.8
725.112	37.67
725.296	38
725.479	35.91
725.662	36.25
725.845	38.49
726.028	35.72
726.211	34.04
726.394	32.17
726.577	31.9
726.76	32.06
726.943	33.78
727.126	33.38
727.309	32.21
727.492	31.05
727.675	28.89
727.858	24.8
728.041	24.87
728.224	23.2
728.407	26.64
728.589	25.79
728.772	24.94
728.955	23.38
729.138	23.37
729.321	23.56
729.503	26.13
729.686	27.31
729.869	26.99
730.052	26.72
730.234	29.8
730.417	27.64
730.6	26.43
730.782	25.32
730.965	25.25
731.148	24.23
731.33	24.03
731.513	22.39
731.695	23.69
731.878	24.71
732.061	24.43
732.243	21.75
732.426	23.13
732.608	24.27
732.791	23.7
732.973	25.78
733.156	26.65
733.338	24.65
733.52	26.47
733.703	26.2
733.885	24.2
734.068	27.69
734.25	28.53
734.432	28.03
734.615	28.73
734.797	29.38
734.979	29.49
735.162	29.85
735.344	32.42
735.526	30.79
735.708	32.02
735.891	33.56
736.073	31.84
736.255	32.19
736.437	31.74
736.619	33.41
736.802	36.26
736.984	36.76
737.166	35.6
737.348	37.06
737.53	36.61
737.712	33.16
737.894	33
738.076	31.91
738.258	33.45
738.44	33.86
738.622	33.18
738.804	33.32
738.986	32.14
739.168	32.88
739.35	29.04
739.532	26.91
739.714	30.02
739.896	32.51
740.078	33.05
740.259	33.82
740.441	33.94
740.623	32.76
740.805	32.13
740.987	30.08
741.168	29.93
741.35	31.52
741.532	34.6
741.714	34.18
741.895	33.08
742.077	32.57
742.259	30.36
742.44	28.79
742.622	29.6
742.804	28.06
742.985	28.07
743.167	29.61
743.348	31.05
743.53	31.64
743.711	30.5
743.893	31.95
744.075	31.86
744.256	33.95
744.438	34.45
744.619	32.44
744.8	34.59
744.982	37.84
745.163	38.01
745.345	35.81
745.526	34.49
745.707	35.14
745.889	32.04
746.07	30.66
746.252	28.26
746.433	29.2
746.614	29.32
746.795	25.95
746.977	20.77
747.158	19.65
747.339	21.51
747.52	23.5
747.702	24.8
747.883	27.21
748.064	30.23
748.245	30.43
748.426	32.93
748.607	33.39
748.788	33.58
748.97	36.88
749.151	34.41
749.332	35.05
749.513	31.58
749.694	29.7
749.875	25.96
750.056	24.88
750.237	25.53
750.418	24.23
750.599	25.56
750.78	22.6
750.96	20.68
751.141	21.72
751.322	21.8
751.503	20.6
751.684	20.17
751.865	22.54
752.046	19.3
752.226	19.81
752.407	18.86
752.588	18.64
752.769	22.95
752.949	22.8
753.13	27.67
753.311	26.08
753.492	28.19
753.672	30.8
753.853	31.44
754.034	33.42
754.214	26.19
754.395	27.19
754.575	25.85
754.756	26.3
754.937	28.57
755.117	27.26
755.298	28.8
755.478	26.87
755.659	25.29
755.839	25.59
756.02	26.34
756.2	31.9
756.381	29.17
756.561	27.94
756.741	25.63
756.922	26.21
757.102	24.39
757.283	23.79
757.463	27.87
757.643	24.76
757.823	21.32
758.004	20.7
758.184	22.59
758.364	24.56
758.545	29.32
758.725	30.84
758.905	30.05
759.085	29.52
759.265	27.98
759.446	27.18
759.626	28.75
759.806	32.45
759.986	33.66
760.166	31.35
760.346	31.75
760.526	29.88
760.706	29.89
760.886	33.3
761.066	30.88
761.246	31.97
761.426	31.29
761.606	30.68
761.786	31.13
761.966	30.33
762.146	31.41
762.326	27.86
762.506	29.25
762.686	28.82
762.866	25.48
763.046	27.17
763.225	27.53
763.405	25.45
763.585	26.34
763.765	24.08
763.945	24.16
764.124	25.56
764.304	28.05
764.484	25.39
764.664	24.4
764.843	25.23
765.023	24.65
765.203	23.66
765.382	26.73
765.562	26.84
765.741	28.45
765.921	27.6
766.101	24.8
766.28	26.79
766.46	26.68
766.639	29.16
766.819	29.87
766.998	28.79
767.178	32.66
767.357	34.06
767.537	34.68
767.716	34.35
767.896	34.22
768.075	33.06
768.254	33.22
768.434	32.52
768.613	29.69
768.792	27.2
768.972	27.36
769.151	28.12
769.33	28.78
769.51	29.33
769.689	27.35
769.868	28.45
770.047	26.95
770.226	28.59
770.406	28.4
770.585	29.93
770.764	32.49
770.943	36.11
771.122	31.68
771.301	29.03
771.48	28.82
771.66	29.8
771.839	32.29
772.018	33.39
772.197	32.9
772.376	33.85
772.555	33.25
772.734	34.07
772.913	32.28
773.092	34.26
773.271	34.89
773.449	36.36
773.628	36.79
773.807	34.75
773.986	39.43
774.165	37.52
774.344	42.12
774.523	40.7
774.701	41.73
774.88	39.54
775.059	39.24
775.238	38.43
775.417	35.02
775.595	36.98
775.774	35.69
775.953	28.34
776.131	24.71
776.31	17.85
776.489	20.83
776.667	8.78
776.846	12.27
777.025	12.63
777.203	8.68
777.382	9.28
777.56	10.42
777.739	9.76
777.917	16.03
778.096	17.71
778.274	21.68
778.453	22.07
778.631	31.9
778.81	32.08
778.988	30.07
779.166	29.36
779.345	27.33
779.523	26.68
779.702	26.36
779.88	26.06
780.058	23.79
780.237	23.1
780.415	21.89
780.593	20.38
780.771	19.67
780.95	21.47
781.128	24.99
781.306	28.72
781.484	32.08
781.662	32.88
781.841	33.04
782.019	36.69
782.197	40.2
782.375	40.34
782.553	37.09
782.731	38.76
782.909	37.79
783.087	33.52
783.265	32.54
783.443	32.65
783.621	30.71
783.799	29.03
783.977	30.37
784.155	26.9
784.333	28.58
784.511	36.41
784.689	37.5
784.867	36.65
785.045	37.49
785.223	35.41
785.4	34.22
785.578	35.27
785.756	32.63
785.934	27.55
786.112	27.78
786.289	24.12
786.467	15.54
786.645	14.89
786.823	16.12
787	18.19
787.178	22.41
787.356	22.3
787.533	24.61
787.711	28.73
787.889	28.77
788.066	30.52
788.244	33.55
788.421	35.68
788.599	36.14
788.776	38.16
788.954	38.73
789.131	35.48
789.309	35.57
789.486	34.95
789.664	36.95
789.841	39.99
790.019	38.07
790.196	33.01
790.373	31.52
790.551	28.27
790.728	28.44
790.906	28.74
791.083	41.08
791.26	40.43
791.437	37.17
791.615	35.94
791.792	39.46
791.969	40.21
792.146	42.11
792.324	43.23
792.501	42
792.678	40.2
792.855	38.98
793.032	32.19
793.209	32.72
793.387	35.02
793.564	35.14
793.741	32.8
793.918	34.37
794.095	40.06
794.272	44.52
794.449	49.43
794.626	48.06
794.803	50.73
794.98	46.71
795.157	42.26
795.334	44.97
795.511	41.95
795.688	40.25
795.864	36.86
796.041	32.91
796.218	26.39
796.395	20.06
796.572	23.14
796.749	23.17
796.925	21.07
797.102	20.51
797.279	17.45
797.456	18.12
797.632	16.42
797.809	15.19
797.986	9.97
798.162	12.97
798.339	13.28
798.516	13.35
798.692	7.16
798.869	15.85
799.046	25.3
799.222	28.11
799.399	30.58
799.575	32.15
799.752	30.38
799.928	33.54
800.105	35.63
800.281	36.25
800.458	29.6
800.634	33.01
800.811	26.49
800.987	22.55
801.163	23.74
801.34	23
801.516	22.96
801.692	24.21
801.869	28.93
802.045	25.68
802.221	22.68
802.398	23.44
802.574	21.74
802.75	23.68
802.926	21.58
803.103	19.05
803.279	15.2
803.455	23.06
803.631	19.14
803.807	15.32
803.983	12.57
804.16	13.11
804.336	16.79
804.512	20.38
804.688	14.7
804.864	3.55
805.04	2.21
805.216	7.69
805.392	-1.26
805.568	3.63
805.744	-1.68
805.92	8
806.096	12.17
806.272	3.23
806.448	-2.75
806.623	7.21
806.799	23.45
806.975	22.69
807.151	18.79
807.327	22.28
807.503	26.51
807.678	25.21
807.854	21.47
808.03	23.05
808.206	33.41
808.381	39.77
808.557	38.19
808.733	42.24
808.908	41.78
809.084	43.33
809.26	38.66
809.435	36.12
809.611	35.89
809.787	37.4
809.962	37.94
810.138	37.24
810.313	26.03
810.489	24.05
810.664	16.17
810.84	19.19
811.015	14.43
811.191	17.9
811.366	22.03
811.542	19.97
811.717	15.68
811.892	14.86
812.068	14.32
812.243	22.01
812.419	21.7
812.594	21.59
812.769	16.47
812.944	20.61
813.12	18.29
813.295	9.23
813.47	20.84
813.645	16.02
813.821	22.09
813.996	20.05
814.171	18.53
814.346	22.9
814.521	29.51
814.697	26.06
814.872	25.09
815.047	24.14
815.222	30.52
815.397	26.88
815.572	32.7
815.747	27.38
815.922	28.26
816.097	24.1
816.272	18.87
816.447	14.03
816.622	12.4
816.797	11.23
816.972	11.16
817.147	10.26
817.322	8.05
817.496	5.35
817.671	-1.71
817.846	-8.62
818.021	-4.29
818.196	5.63
818.371	9.16
818.545	17.18
818.72	15.49
818.895	15.56
819.069	11.4
819.244	14.54
819.419	14.86
819.594	22.27
819.768	26.56
819.943	24.1
820.117	22.8
820.292	23.47
820.467	24.33
820.641	25.49
820.816	26.04
820.99	26.56
821.165	26.6
821.339	26.83
821.514	27.21
821.688	27.09
821.863	28.84
822.037	28.47
822.212	27.67
822.386	27.34
822.56	27.32
822.735	27.65
822.909	27.75
823.084	27.72
823.258	27.35
823.432	28.11
823.606	27.49
823.781	25.52
823.955	25.17
824.129	26.15
824.303	27.08
824.478	26.65
824.652	25.36
824.826	27.17
825	28.24
825.174	29.11
825.348	28.85
825.523	30.16
825.697	30.7
825.871	32.89
826.045	32.9
826.219	29.07
826.393	28.27
826.567	30.09
826.741	28.1
826.915	29.14
827.089	27.44
827.263	26.29
827.437	26.47
827.611	28.26
827.784	26.11
827.958	26.49
828.132	30.12
828.306	32.06
828.48	28.95
828.654	29.63
828.827	26.28
829.001	28.15
829.175	26.42
829.349	24.51
829.522	20.69
829.696	22.72
829.87	16.18
830.044	12.97
830.217	8.39
830.391	7.41
830.565	8.58
830.738	7.37
830.912	9.87
831.085	7.84
831.259	4.04
831.432	9.75
831.606	6.31
831.779	14.22
831.953	14.41
832.126	23.11
832.3	23.55
832.473	19.91
832.647	18.77
832.82	16.79
832.994	16.22
833.167	17.89
833.34	15.48
833.514	14.46
833.687	12.47
833.86	15.23
834.034	9.03
834.207	13.71
834.38	16
834.553	18.69
834.727	18.31
834.9	23.48
835.073	26.88
835.246	27.94
835.419	29.09
835.593	30.8
835.766	29.57
835.939	33.24
836.112	33.52
836.285	36.37
836.458	34.31
836.631	34.09
836.804	30.77
836.977	32.31
837.15	31.07
837.323	28.57
837.496	24.47
837.669	14.53
837.842	14.99
838.015	18.5
838.188	10.49
838.361	7.66
838.533	9.28
838.706	19.41
838.879	12.63
839.052	14.03
839.225	11.03
839.398	21.4
839.57	31.26
839.743	25.1
839.916	20
840.088	17.87
840.261	24.72
840.434	22.31
840.607	20.95
840.779	24.37
840.952	24.12
841.124	26.31
841.297	27.5
841.47	25.24
841.642	30.28
841.815	28.17
841.987	28.23
842.16	27.75
842.332	34.09
842.505	32.41
842.677	29.85
842.85	24.7
843.022	27
843.194	10.36
843.367	10.48
843.539	17.4
843.712	30.49
843.884	30.75
844.056	26.4
844.229	25.67
844.401	10.28
844.573	11.84
844.745	9.42
844.918	18.68
845.09	37.41
845.262	39.12
845.434	33.61
845.606	-1.52
845.779	-4.55
845.951	-18.08
846.123	-10.49
846.295	7.17
846.467	0.71
846.639	10.3
846.811	1.22
846.983	-5.86
847.155	6.19
847.327	7.65
847.499	31.26
847.671	22.14
847.843	24.82
848.015	7.68
848.187	10
848.359	-1.67
848.531	-4.94
848.703	-0.95
848.875	-19.66
849.047	-32.78
849.218	-31.81
849.39	-82.78
849.562	-68.93
849.734	-85.29
849.905	-70.72
850.077	-69.65
850.249	-66.39
850.421	-67.79
850.592	-85.39
850.764	-75.58
850.936	-98.03
851.107	-126.92
851.279	-19.24
851.451	11.25
851.622	52.17
851.794	59.59
851.965	23.93
852.137	28.86
852.308	32.68
852.48	25.56
852.651	-1.87
852.823	5.48
852.994	-8.71
853.166	-40.35
853.337	-40.28
853.509	-47.74
853.68	-68.55
853.851	-18.75
854.023	-10.02
854.194	-5.14
854.365	4.83
854.537	36.92
854.708	42.12
854.879	35.85
855.05	35.19
855.222	27.34
855.393	18.76
855.564	16.3
855.735	5.62
855.906	-2.34
856.078	-11.63
856.249	-7.85
856.42	-10.82
856.591	-8.06
856.762	-4.54
856.933	5.78
857.104	14.6
857.275	40.16
857.446	41.85
857.617	34.38
857.788	47.89
857.959	40.06
858.13	36.75
858.301	28.95
858.472	24.55
858.643	16
858.814	4.09
858.985	2.07
859.155	-13.69
859.326	-22.72
859.497	-13.87
859.668	-36.72
859.839	-34.94
860.009	-54.82
860.18	-40.19
860.351	-40.07
860.522	-6.75
860.692	-5.58
860.863	-43.36
861.034	-47.7
861.204	-80.66
861.375	-136.1
861.546	-58.74
861.716	-119.5
861.887	-97.59
862.057	-98.33
862.228	-43.34
862.398	-60.34
862.569	-42.09
862.739	-27.44
862.91	-24.15
863.08	-23.2
863.251	-5.54
863.421	-2.02
863.592	12.9
863.762	14.49
863.932	16.86
864.103	-3.51
864.273	-24.47
864.443	-50.48
864.614	-20.79
864.784	-14.63
864.954	4.7
865.125	-32.03
865.295	-42.72
865.465	-33.39
865.635	-32.65
865.805	-13.79
865.976	-1.23
866.146	2.91
866.316	-1.32
866.486	-11.31
866.656	-21.35
866.826	-35.75
866.996	-18.68
867.166	-44.39
867.336	-49.17
867.506	-27.26
867.676	-101.28
867.846	-150.98
868.016	-152.1
868.186	-153.16
868.356	-121.15
868.526	-200.14
868.696	-162.48
868.866	-398.53
869.036	-121.6
869.206	-134.93
869.376	-153.22
869.545	-51.44
869.715	-16.57
869.885	-1.04
870.055	-13.78
870.224	-24.34
870.394	20.33
870.564	12.22
870.734	20.04
870.903	32.69
871.073	29.08
871.243	8.76
871.412	12.71
871.582	9.38
871.751	6.59
871.921	6.33
872.091	12.44
872.26	-16.6
872.43	-3.74
872.599	16.9
872.769	22.8
872.938	15.91
873.108	25.22
873.277	10.08
873.446	-4.04
873.616	1.03
873.785	-5.82
873.955	-4.29
874.124	7.77
874.293	5.73
874.463	-9.53
874.632	-27.45
874.801	-22.9
874.971	-29.61
875.14	-33.81
875.309	-25.35
875.478	-23.31
875.647	-4.27
875.817	-2.57
875.986	-0.3
876.155	5.06
876.324	23.15
876.493	30.09
876.662	38.77
876.831	22.39
877	32.81
877.17	41.7
877.339	36.56
877.508	31.35
877.677	21.61
877.846	15.36
878.015	20.33
878.184	6.61
878.352	8.62
878.521	-2.83
878.69	7.11
878.859	19.01
879.028	16.13
879.197	20.13
879.366	32.9
879.534	33.2
879.703	35.34
879.872	19.41
880.041	17.6
880.21	10.71
880.378	10.88
880.547	18.36
880.716	12.15
880.884	15.48
881.053	16.62
881.222	16.52
881.39	17.28
881.559	18.73
881.727	21.24
881.896	22.3
882.065	25.18
882.233	26.57
882.402	23.95
882.57	24.4
882.739	23.33
882.907	23.12
883.076	21.49
883.244	22.41
883.412	16.51
883.581	13.45
883.749	14.68
883.918	8.9
884.086	6.07
884.254	7.26
884.423	9.74
884.591	8.08
884.759	7.9
884.927	6.54
885.096	9.4
885.264	15.55
885.432	18.38
885.6	13.99
885.769	19.28
885.937	23.14
886.105	18.56
886.273	10.16
886.441	1.69
886.609	-2.7
886.777	-8.12
886.945	-23.1
887.113	-52.35
887.281	-86.41
887.449	-51.07
887.617	-13.16
887.785	-18.91
887.953	-8.29
888.121	-23.68
888.289	-34.07
888.457	-36.47
888.625	-45.4
888.793	-43.98
888.961	-13.59
889.129	11.16
889.296	16.66
889.464	0.18
889.632	5.44
889.8	-4.65
889.967	9.56
890.135	16.84
