Data from JASIL_3159_Reflection_1.txt Node
Date: Thu Nov 12 21:48:03 EST 2015
User: Geneva
Spectrometer: USB4E03002
Autoset integration time: false
Trigger mode: 4
Integration Time (sec): 1.000000E-1
Scans to average: 10
Electric dark correction enabled: true
Nonlinearity correction enabled: false
Boxcar width: 5
Stray light correction enabled: false
XAxis mode: Wavelengths
Stop averaging: false
Number of Pixels in Spectrum: 3648
>>>>>Begin Spectral Data<<<<<
177.575	284.88
177.794	198.43
178.014	136.51
178.233	375.26
178.452	115.31
178.672	117.32
178.891	-29.65
179.11	-140.49
179.33	-293.72
179.549	-146.32
179.768	1147.06
179.987	303.54
180.207	217.72
180.426	139.35
180.645	112.26
180.864	151.7
181.084	187.39
181.303	783.21
181.522	226.3
181.741	104.19
181.96	254.44
182.179	195.91
182.398	631.39
182.618	568.94
182.837	-106.48
183.056	-78.64
183.275	-8.11
183.494	5.92
183.713	7.43
183.932	3.93
184.151	18.31
184.37	27.98
184.589	-5.3
184.808	18.5
185.027	25.01
185.246	40.69
185.465	63.77
185.684	56.03
185.903	59.43
186.122	20.2
186.341	32.39
186.56	31.1
186.779	-302.33
186.998	-66.49
187.216	-61.49
187.435	-224.53
187.654	-951.01
187.873	-551.52
188.092	451.86
188.311	545.62
188.53	872.15
188.748	-960.87
188.967	11.93
189.186	59.87
189.405	89.75
189.623	109.27
189.842	87.16
190.061	114.38
190.28	49.45
190.498	60.02
190.717	17.62
190.936	-10.38
191.154	20.35
191.373	-90.35
191.592	-63.36
191.81	-90.02
192.029	-378.74
192.248	-140.3
192.466	-103
192.685	-96.22
192.904	-117.97
193.122	-109.89
193.341	-63.5
193.559	-227.1
193.778	-64.61
193.996	-58.57
194.215	-1.44
194.433	-4.63
194.652	-27.77
194.87	-50.49
195.089	-111.24
195.307	-231.13
195.526	-536.04
195.744	3821.21
195.963	461.07
196.181	182.72
196.399	162.75
196.618	117.44
196.836	157.62
197.055	205.68
197.273	185.66
197.491	176.2
197.71	104.37
197.928	115.45
198.146	136.26
198.365	150.47
198.583	84.83
198.801	58.65
199.019	99.24
199.238	107.83
199.456	155.27
199.674	141.08
199.892	167.48
200.111	100.72
200.329	129.19
200.547	117.03
200.765	94.14
200.983	12.97
201.202	38.28
201.42	2.26
201.638	8.06
201.856	10.63
202.074	-4.2
202.292	43.3
202.51	40.99
202.728	38.7
202.946	26.88
203.165	51.14
203.383	66.36
203.601	9.55
203.819	6.72
204.037	5.55
204.255	28.58
204.473	6.15
204.691	-20.19
204.909	10.31
205.127	17.77
205.345	35.74
205.562	40.95
205.78	52.82
205.998	63.39
206.216	62.63
206.434	104.68
206.652	66.39
206.87	43.32
207.088	-172.66
207.306	-158.67
207.523	374.24
207.741	372.3
207.959	-948.41
208.177	-195.06
208.395	-206.82
208.612	-42.13
208.83	4.76
209.048	21.89
209.266	46.18
209.483	51.14
209.701	45.89
209.919	45.11
210.136	33.1
210.354	32.32
210.572	25.75
210.79	45.98
211.007	46.13
211.225	15.35
211.442	-6.08
211.66	-24.16
211.878	-45.41
212.095	214.11
212.313	179.14
212.53	193.64
212.748	166.9
212.966	167.43
213.183	167.23
213.401	155.66
213.618	163.66
213.836	148.91
214.053	142.92
214.271	139.38
214.488	-2633.77
214.705	-557.39
214.923	-437.96
215.14	-304.45
215.358	-283.03
215.575	-160.37
215.793	-167.07
216.01	562.3
216.227	-36045.45
216.445	-216.78
216.662	-176.52
216.879	-168.17
217.097	-93.98
217.314	-36.84
217.531	-16.84
217.749	-2.99
217.966	-19.52
218.183	-25.82
218.4	-11.01
218.618	21.42
218.835	52.11
219.052	55.76
219.269	58.52
219.487	69.21
219.704	75.22
219.921	69.73
220.138	65.14
220.355	87.13
220.572	11.63
220.79	5.07
221.007	0.14
221.224	-36.47
221.441	-40.11
221.658	-54.29
221.875	-33.89
222.092	-56.22
222.309	-15.2
222.526	-10.95
222.743	-14.86
222.96	-9.59
223.177	-36.52
223.394	-130.5
223.611	-42.41
223.828	-35.2
224.045	-20.17
224.262	-23.54
224.479	-12.71
224.696	-34.06
224.913	-17.57
225.13	-18.94
225.347	2.48
225.564	25.54
225.781	35.6
225.997	27.06
226.214	14.34
226.431	11.31
226.648	3.73
226.865	12.61
227.082	15.62
227.298	17.37
227.515	28.67
227.732	29.27
227.949	17.78
228.165	18.21
228.382	22.76
228.599	25.5
228.816	16.87
229.032	17.7
229.249	0.59
229.466	3.7
229.682	-2.71
229.899	-21.24
230.116	-23.76
230.332	-20.64
230.549	-25.32
230.765	-18.82
230.982	-22.46
231.199	-5.78
231.415	-10.98
231.632	6.87
231.848	-0.19
232.065	0
232.281	16.23
232.498	8.57
232.714	4.98
232.931	13.38
233.147	2.66
233.364	23.56
233.58	38.65
233.797	34.12
234.013	16.81
234.23	24.96
234.446	11.67
234.662	1.4
234.879	3.65
235.095	6.53
235.312	-10.43
235.528	7.32
235.744	-1.73
235.961	-19.05
236.177	-15.96
236.393	-4.73
236.61	3.74
236.826	13.74
237.042	13.75
237.258	19.52
237.475	36.27
237.691	44.85
237.907	52.38
238.123	46.23
238.339	40.87
238.556	44.77
238.772	44.28
238.988	43.2
239.204	39.31
239.42	41.1
239.636	34.24
239.853	24.42
240.069	22.31
240.285	14.78
240.501	12.79
240.717	15.89
240.933	11.99
241.149	12.04
241.365	6.89
241.581	6.12
241.797	0.39
242.013	-2.6
242.229	-1.7
242.445	-0.18
242.661	-0.18
242.877	-1.22
243.093	-2.86
243.309	-8.73
243.525	-5.46
243.741	-8.17
243.957	-9.14
244.173	-5.59
244.388	-3.31
244.604	-2.8
244.82	-4.28
245.036	-2.62
245.252	0.19
245.468	3.56
245.683	7.28
245.899	7.7
246.115	8.93
246.331	11.87
246.547	9.87
246.762	8.53
246.978	8.39
247.194	4.5
247.409	5.35
247.625	4.76
247.841	4.07
248.057	3.53
248.272	2.56
248.488	7.01
248.703	6.53
248.919	10.38
249.135	16.22
249.35	17.15
249.566	26.96
249.782	24.73
249.997	25.33
250.213	21.23
250.428	21.41
250.644	13.85
250.859	13.53
251.075	8.68
251.29	9.01
251.506	5.7
251.721	7.93
251.937	4.34
252.152	8.65
252.368	7.25
252.583	8.77
252.798	3.57
253.014	4.73
253.229	-6.14
253.445	-3.01
253.66	-4.52
253.875	-13.61
254.091	-19.76
254.306	-17.36
254.521	-21.34
254.737	-14.45
254.952	-12.87
255.167	-6.17
255.383	-2.56
255.598	0.71
255.813	3.58
256.028	3.08
256.244	7.78
256.459	11.5
256.674	11.93
256.889	12
257.104	14.03
257.32	12.72
257.535	10.14
257.75	6.46
257.965	7.69
258.18	5.8
258.395	3.18
258.61	7.69
258.826	7.48
259.041	6.24
259.256	4.16
259.471	4.51
259.686	3.38
259.901	5
260.116	7.96
260.331	6.76
260.546	10.4
260.761	14.26
260.976	12.06
261.191	12.1
261.406	14.46
261.621	14.04
261.836	14.67
262.05	17.55
262.265	13.79
262.48	13.48
262.695	15.61
262.91	12.58
263.125	7.71
263.34	8
263.555	8.12
263.769	0.71
263.984	2.07
264.199	-0.77
264.414	-4.26
264.629	-2.55
264.843	-1.69
265.058	-3.67
265.273	-4.06
265.488	-4.77
265.702	-4.75
265.917	-6.12
266.132	-7.48
266.346	-3.75
266.561	-5.17
266.776	-4.97
266.99	-9.99
267.205	-9.47
267.42	-8.62
267.634	-7.37
267.849	-5.08
268.063	-4.15
268.278	-4.12
268.492	0.24
268.707	1.32
268.922	1.18
269.136	5.37
269.351	14.74
269.565	15.39
269.78	13.95
269.994	11.77
270.209	12.35
270.423	12.26
270.637	13.83
270.852	11.28
271.066	7.96
271.281	7.94
271.495	4.14
271.709	-0.98
271.924	-4.89
272.138	-4.18
272.353	-2.37
272.567	-2.76
272.781	-2.89
272.996	-2.13
273.21	-0.75
273.424	1.99
273.638	2.39
273.853	3.59
274.067	8.76
274.281	12.38
274.495	11.73
274.71	14.33
274.924	11.73
275.138	10.86
275.352	5.14
275.566	3.05
275.781	2.96
275.995	3.31
276.209	0.34
276.423	-6.83
276.637	-8.44
276.851	-8.8
277.065	-18.54
277.279	-20.56
277.493	-14.32
277.707	-6.89
277.921	-4.03
278.135	-7.43
278.349	-2.62
278.563	0
278.777	3.97
278.991	5.05
279.205	5.95
279.419	9.03
279.633	10.79
279.847	8.87
280.061	5.42
280.275	5.98
280.489	6.97
280.703	-2.44
280.917	2.83
281.131	0.97
281.344	-1.32
281.558	0.45
281.772	0.55
281.986	1.31
282.2	-1.33
282.414	-2.14
282.627	-2.27
282.841	-2.5
283.055	5.58
283.269	1.27
283.482	2.09
283.696	1.14
283.91	1.32
284.123	-0.38
284.337	-0.08
284.551	-0.1
284.764	4.64
284.978	6.17
285.192	9.3
285.405	7.45
285.619	9.76
285.833	11.78
286.046	15.96
286.26	16.72
286.473	17.15
286.687	16.83
286.9	19.92
287.114	17.48
287.327	14.85
287.541	10.85
287.754	9.82
287.968	8.57
288.181	5.23
288.395	-0.29
288.608	-0.17
288.822	-0.02
289.035	-0.12
289.248	-1.15
289.462	-1.16
289.675	1.7
289.889	1.2
290.102	4.8
290.315	6.39
290.529	9.11
290.742	9.14
290.955	7.29
291.169	5.82
291.382	7.79
291.595	9.73
291.808	10.39
292.022	8.9
292.235	11.9
292.448	9.03
292.661	5.74
292.875	2.77
293.088	5.57
293.301	5.33
293.514	6.8
293.727	2
293.94	-4.65
294.153	-3.53
294.367	-4.3
294.58	-2.4
294.793	-1.75
295.006	-1.2
295.219	-1.3
295.432	0.27
295.645	1.42
295.858	2.05
296.071	1.92
296.284	4.6
296.497	5.71
296.71	6.18
296.923	5.22
297.136	5.8
297.349	5.15
297.562	8.45
297.775	8.19
297.988	7.93
298.201	7.28
298.414	11.27
298.626	12.48
298.839	8.57
299.052	10.41
299.265	9.66
299.478	10.13
299.691	10.9
299.903	7.35
300.116	9.38
300.329	11.18
300.542	10.54
300.755	8.22
300.967	8.32
301.18	9.49
301.393	8.86
301.605	7.98
301.818	6.33
302.031	7.07
302.243	6.43
302.456	2.82
302.669	2.54
302.881	1.77
303.094	3.25
303.307	0.86
303.519	1.79
303.732	-0.05
303.944	1.81
304.157	0.72
304.37	-0.88
304.582	2.91
304.795	1.42
305.007	-0.11
305.22	3.73
305.432	2.35
305.645	2.61
305.857	4.09
306.069	4.92
306.282	6.61
306.494	9.84
306.707	12.28
306.919	9.51
307.132	10.6
307.344	10.07
307.556	7.62
307.769	7
307.981	6.68
308.193	3.98
308.406	4.06
308.618	2.42
308.83	2.96
309.043	3.23
309.255	3.26
309.467	2.36
309.679	3.67
309.892	4.43
310.104	4.33
310.316	5.94
310.528	6.65
310.74	5.95
310.953	5.5
311.165	3.9
311.377	4.44
311.589	5.16
311.801	6.3
312.013	4.19
312.225	4.89
312.437	6.1
312.649	1.39
312.862	5.06
313.074	6.45
313.286	6.18
313.498	7.82
313.71	4
313.922	4.3
314.134	1.76
314.346	1.22
314.558	1.99
314.77	1.58
314.982	5.69
315.193	1.02
315.405	-2.53
315.617	1.64
315.829	-1.68
316.041	-0.31
316.253	1.87
316.465	5.5
316.677	8.79
316.888	7.8
317.1	11.8
317.312	12.01
317.524	13.86
317.736	14.35
317.947	7.75
318.159	10.74
318.371	14.92
318.583	16.25
318.794	15.16
319.006	14.84
319.218	14.9
319.43	12.93
319.641	11.01
319.853	13.84
320.064	18.89
320.276	23.86
320.488	19.6
320.699	17.49
320.911	14.12
321.123	12.92
321.334	10.27
321.546	11.58
321.757	11.8
321.969	14.89
322.18	9.79
322.392	4.4
322.603	3.23
322.815	8.53
323.026	6.23
323.238	4.67
323.449	8.12
323.661	10.73
323.872	9.19
324.083	6.52
324.295	7.61
324.506	6.9
324.718	8.71
324.929	10
325.14	8.36
325.352	9.15
325.563	12.75
325.774	11.69
325.986	10.55
326.197	10.7
326.408	13.31
326.62	11.49
326.831	12.65
327.042	12.97
327.253	12.18
327.464	12.44
327.676	12.64
327.887	10.12
328.098	9.06
328.309	8.27
328.52	8.17
328.732	9.01
328.943	7.06
329.154	10.11
329.365	8.55
329.576	9.56
329.787	10.26
329.998	13.35
330.209	15.4
330.42	19.7
330.631	20.78
330.842	21.93
331.053	18.55
331.264	22.79
331.475	23.74
331.686	23.96
331.897	25.3
332.108	25.31
332.319	25.6
332.53	25.72
332.741	23.29
332.952	23.34
333.163	21.8
333.374	22.27
333.585	20.57
333.795	16.7
334.006	17.84
334.217	19.04
334.428	19.03
334.639	14.37
334.849	12.94
335.06	13.48
335.271	12.36
335.482	13.22
335.692	13.41
335.903	13.12
336.114	12.9
336.325	14.42
336.535	14.79
336.746	12.49
336.957	14.36
337.167	14.68
337.378	11.88
337.589	14.97
337.799	15.96
338.01	16.11
338.22	16.65
338.431	19.62
338.642	18.78
338.852	17.56
339.063	17.65
339.273	17.86
339.484	18.69
339.694	19.89
339.905	16.52
340.115	14.22
340.326	15.11
340.536	14.72
340.746	12.81
340.957	14.17
341.167	12.55
341.378	14.37
341.588	14.39
341.799	13.99
342.009	15.05
342.219	17.03
342.43	17.15
342.64	19.52
342.85	20.33
343.061	19.29
343.271	16.36
343.481	15.59
343.691	13.73
343.902	13.78
344.112	14.8
344.322	13.29
344.532	13.49
344.743	16.01
344.953	14.79
345.163	14.76
345.373	16.5
345.583	15.88
345.793	17.29
346.004	18.27
346.214	18.18
346.424	18.57
346.634	20.26
346.844	18.73
347.054	19.55
347.264	17.92
347.474	18.28
347.684	18.82
347.894	20.51
348.104	18.49
348.314	17.31
348.524	17.65
348.734	17.56
348.944	18.05
349.154	19.81
349.364	18.44
349.574	20.01
349.784	19.51
349.994	19.78
350.204	19.95
350.413	20.91
350.623	23.19
350.833	22.86
351.043	22.97
351.253	21.67
351.463	19.29
351.672	19.74
351.882	17.99
352.092	17.04
352.302	15.5
352.511	14.93
352.721	14.02
352.931	15.48
353.141	15.31
353.35	13.85
353.56	14.94
353.77	15.2
353.979	14.46
354.189	13.91
354.399	14.13
354.608	13.02
354.818	12.78
355.027	12.79
355.237	12.56
355.447	11.44
355.656	12.15
355.866	10.29
356.075	9.94
356.285	12.21
356.494	13.37
356.704	13.02
356.913	15.18
357.123	15.75
357.332	17.08
357.542	16.1
357.751	17.96
357.96	17.06
358.17	17.73
358.379	20.22
358.589	18.54
358.798	17.94
359.007	18.32
359.217	17.94
359.426	17.96
359.635	17.16
359.845	16.53
360.054	15.7
360.263	15.62
360.472	16.2
360.682	14.82
360.891	14.55
361.1	15.76
361.309	16.49
361.519	16.28
361.728	15.33
361.937	15.77
362.146	16.18
362.355	17.63
362.564	18.16
362.774	18.38
362.983	19.11
363.192	19.09
363.401	17.94
363.61	16.44
363.819	15.88
364.028	17.02
364.237	15.7
364.446	15.63
364.655	13.73
364.864	12.75
365.073	13.42
365.282	12.89
365.491	13.21
365.7	13.4
365.909	14.16
366.118	15
366.327	14.65
366.536	16.18
366.745	16.72
366.954	17
367.162	18.02
367.371	16.88
367.58	16.81
367.789	16.99
367.998	16.65
368.207	17.24
368.415	16.04
368.624	16.08
368.833	15.51
369.042	13.69
369.25	13.46
369.459	14.23
369.668	12.5
369.877	13.2
370.085	14.86
370.294	15.07
370.503	15.01
370.711	15.18
370.92	16.68
371.129	18.06
371.337	17.75
371.546	18.7
371.754	17.73
371.963	17.99
372.171	18.32
372.38	17.51
372.589	16.28
372.797	15.07
373.006	14.81
373.214	13.72
373.423	12.08
373.631	13.42
373.84	14.63
374.048	14.31
374.256	16.31
374.465	14.83
374.673	13.81
374.882	14.34
375.09	14.75
375.298	16.41
375.507	17.41
375.715	17.36
375.923	18.83
376.132	17.72
376.34	18.36
376.548	17.73
376.757	17.73
376.965	17.32
377.173	17.87
377.381	17.03
377.59	15.64
377.798	14.68
378.006	14.99
378.214	12.79
378.423	12.19
378.631	12.09
378.839	10.89
379.047	12.15
379.255	12.85
379.463	14.21
379.671	14.37
379.879	15.07
380.088	14.23
380.296	14.75
380.504	15.39
380.712	15.29
380.92	15.83
381.128	17.93
381.336	17.1
381.544	16.72
381.752	14.29
381.96	15.54
382.168	15.57
382.376	16.39
382.584	16.08
382.791	15.28
382.999	15.09
383.207	13.47
383.415	12.82
383.623	13.27
383.831	13.77
384.039	14.58
384.247	14.38
384.454	13.89
384.662	13.25
384.87	14.16
385.078	14.55
385.285	14.97
385.493	15.12
385.701	16.25
385.909	15.19
386.116	14.39
386.324	15.04
386.532	15.11
386.739	16.04
386.947	15.56
387.155	13.73
387.362	13.03
387.57	12.81
387.778	13.01
387.985	11.79
388.193	12.03
388.4	11.42
388.608	10.33
388.816	10.18
389.023	10.37
389.231	10.77
389.438	11.15
389.646	11.94
389.853	11.07
390.061	11.4
390.268	10.3
390.475	11.32
390.683	12.21
390.89	12.58
391.098	12.83
391.305	12.1
391.512	11.31
391.72	11.58
391.927	12.72
392.135	13.89
392.342	13.82
392.549	14.48
392.756	14.01
392.964	13.87
393.171	14.78
393.378	14.42
393.586	14.57
393.793	15.67
394	16.27
394.207	15.57
394.414	15.03
394.622	14.77
394.829	13.92
395.036	13.98
395.243	13.89
395.45	13.32
395.657	12.89
395.864	12.5
396.072	12.39
396.279	11.83
396.486	10.59
396.693	10.03
396.9	10.47
397.107	10.96
397.314	10.99
397.521	11.5
397.728	10.76
397.935	10.45
398.142	9.61
398.349	9.29
398.556	9.11
398.763	9.94
398.97	9.74
399.177	9.14
399.383	9.76
399.59	10.49
399.797	10.14
400.004	11.11
400.211	11.55
400.418	12.62
400.625	12.81
400.831	12.77
401.038	12.68
401.245	12.64
401.452	12.5
401.658	12.12
401.865	11.03
402.072	10.64
402.279	10.01
402.485	9.74
402.692	8.95
402.899	7.55
403.105	8.09
403.312	7.93
403.519	7.95
403.725	8.26
403.932	8.12
404.138	8.2
404.345	8.49
404.552	8.2
404.758	7.89
404.965	8.84
405.171	9.76
405.378	9.14
405.584	10.09
405.791	10.48
405.997	10
406.204	9.52
406.41	9.07
406.617	7.96
406.823	8
407.029	9.03
407.236	8.57
407.442	8.44
407.649	7.79
407.855	6.78
408.061	5.94
408.268	7.13
408.474	7.95
408.68	7.67
408.887	8.9
409.093	9
409.299	7.68
409.505	7.5
409.712	7.8
409.918	8.76
410.124	8.72
410.33	9.7
410.537	9.43
410.743	9.53
410.949	10.58
411.155	10.91
411.361	12.12
411.567	12.42
411.773	13.18
411.98	12.72
412.186	12.34
412.392	12.55
412.598	12.93
412.804	13.52
413.01	13.11
413.216	12.93
413.422	12.07
413.628	10.69
413.834	11.79
414.04	11.21
414.246	12.26
414.452	12.21
414.658	12.15
414.864	10.9
415.07	10.59
415.275	10.82
415.481	10.59
415.687	10.21
415.893	10.59
416.099	10.41
416.305	10.81
416.511	10.82
416.716	10.74
416.922	10.48
417.128	10.53
417.334	10.24
417.539	9.88
417.745	10.33
417.951	10.83
418.157	10.95
418.362	10.61
418.568	10.3
418.774	10.13
418.979	9.7
419.185	9.91
419.391	10.09
419.596	10.11
419.802	10.31
420.008	9.89
420.213	5.04
420.419	5.17
420.624	5.21
420.83	5.7
421.035	5.71
421.241	6.46
421.446	6.08
421.652	6.39
421.857	6.71
422.063	6.56
422.268	6.49
422.474	10.91
422.679	10.98
422.885	11.13
423.09	10.6
423.295	10.7
423.501	10.04
423.706	10.55
423.911	10.73
424.117	10.1
424.322	9.98
424.527	9.89
424.733	9.93
424.938	9.92
425.143	9.35
425.349	9.19
425.554	9.21
425.759	9.8
425.964	9.31
426.169	9.11
426.375	9.41
426.58	9.63
426.785	9.79
426.99	10.12
427.195	9.89
427.4	10.58
427.605	10.53
427.811	10.4
428.016	10.34
428.221	9.96
428.426	9.17
428.631	8.66
428.836	8.33
429.041	9.11
429.246	7.82
429.451	7.32
429.656	8.14
429.861	8.1
430.066	7.3
430.271	7.8
430.476	7.95
430.681	8.09
430.886	8.49
431.09	8.78
431.295	8.1
431.5	9.07
431.705	9.9
431.91	9.13
432.115	9.68
432.32	9.93
432.524	9.33
432.729	9.56
432.934	9.7
433.139	9.47
433.343	9.4
433.548	9.02
433.753	8.55
433.958	8.58
434.162	8.13
434.367	8.26
434.572	7.73
434.776	8.16
434.981	8.33
435.186	9.24
435.39	9.15
435.595	9.47
435.799	10.2
436.004	10.61
436.209	10.98
436.413	11.22
436.618	10.55
436.822	11
437.027	10.31
437.231	10.51
437.436	9.54
437.64	9.81
437.845	9.17
438.049	8.81
438.253	9.23
438.458	8.29
438.662	8.5
438.867	8.43
439.071	8.24
439.275	8.25
439.48	7.96
439.684	7.87
439.888	7.86
440.093	8.1
440.297	8.36
440.501	8.15
440.706	7.75
440.91	7.44
441.114	7.15
441.318	7.46
441.523	7.46
441.727	7.28
441.931	7.94
442.135	8.76
442.339	8.56
442.543	8.68
442.748	9.03
442.952	9.48
443.156	9.23
443.36	9.99
443.564	10.25
443.768	10.35
443.972	10.13
444.176	9.64
444.38	9.39
444.584	9.83
444.788	9.64
444.992	9.36
445.196	9.36
445.4	9.72
445.604	9.89
445.808	9.51
446.012	9.44
446.216	9.74
446.42	9.77
446.624	9.59
446.828	9.06
447.032	9.15
447.235	9.1
447.439	9.14
447.643	8.95
447.847	8.13
448.051	7.9
448.254	8.26
448.458	8.66
448.662	8.95
448.866	8.71
449.069	8.68
449.273	8.51
449.477	8.38
449.681	8.15
449.884	7.53
450.088	8
450.292	8.49
450.495	8.26
450.699	7.62
450.902	7.73
451.106	7.86
451.31	9.17
451.513	8.97
451.717	9.08
451.92	9.47
452.124	10.42
452.327	10.89
452.531	10.49
452.734	10.48
452.938	10.92
453.141	10.86
453.345	10.67
453.548	10.37
453.752	10.21
453.955	9.75
454.158	9.87
454.362	9.63
454.565	10.01
454.769	10.39
454.972	10.03
455.175	9.08
455.379	8.75
455.582	8.64
455.785	7.56
455.988	7.66
456.192	7.66
456.395	7.42
456.598	8.05
456.801	7.71
457.005	7.27
457.208	7.52
457.411	8.22
457.614	8.2
457.817	7.91
458.021	8.35
458.224	8.76
458.427	9.57
458.63	9.57
458.833	8.96
459.036	8.19
459.239	8.73
459.442	9
459.645	9.18
459.848	8.93
460.051	9.14
460.254	9.38
460.457	8.73
460.66	8.18
460.863	8.35
461.066	8.4
461.269	8.7
461.472	8.48
461.675	8.27
461.878	8.07
462.081	8.54
462.284	8.56
462.486	8.03
462.689	8.35
462.892	8.35
463.095	7.82
463.298	8.3
463.5	8.22
463.703	7.97
463.906	7.79
464.109	7.28
464.311	7.06
464.514	7.61
464.717	7.78
464.92	8.34
465.122	7.91
465.325	8.15
465.528	8.06
465.73	8.45
465.933	8.7
466.135	8.38
466.338	9.25
466.541	9.56
466.743	9.21
466.946	9.43
467.148	9.25
467.351	10.14
467.553	9.94
467.756	9.99
467.958	9.58
468.161	9.77
468.363	10.38
468.566	9.64
468.768	9.75
468.971	9.65
469.173	10.05
469.375	10.08
469.578	9.46
469.78	9.31
469.983	9.15
470.185	9.33
470.387	8.76
470.59	8.87
470.792	9
470.994	8.51
471.196	8.08
471.399	7.03
471.601	6.93
471.803	7.25
472.005	7.68
472.208	7.57
472.41	7.68
472.612	8.07
472.814	7.48
473.016	7.16
473.218	7.8
473.421	8.54
473.623	9.18
473.825	9.39
474.027	9.37
474.229	9.69
474.431	9.36
474.633	9.92
474.835	10.36
475.037	10.43
475.239	10.86
475.441	10.73
475.643	10.57
475.845	10.19
476.047	10.17
476.249	9.64
476.451	9.84
476.653	10.13
476.855	9.99
477.057	9.6
477.258	9.63
477.46	9.65
477.662	9.73
477.864	9.92
478.066	10.16
478.268	9.84
478.469	9.74
478.671	9.22
478.873	9.64
479.075	9.3
479.276	9.67
479.478	10.34
479.68	9.92
479.882	9.43
480.083	9.55
480.285	9.82
480.487	10.01
480.688	10.26
480.89	10.4
481.091	10.1
481.293	10.34
481.495	10.02
481.696	9.73
481.898	9.94
482.099	10.31
482.301	10.02
482.502	9.91
482.704	9.96
482.905	9.89
483.107	9.75
483.308	9.73
483.51	9.64
483.711	9.65
483.913	9.73
484.114	9.71
484.315	9.56
484.517	9.72
484.718	9.65
484.92	9.63
485.121	9.53
485.322	9.65
485.524	9.68
485.725	9.56
485.926	9.46
486.127	9.43
486.329	9.47
486.53	9.4
486.731	9.17
486.932	9.11
487.134	9.14
487.335	9.38
487.536	9.31
487.737	9.45
487.938	9.45
488.139	9.35
488.341	9.39
488.542	9.33
488.743	9.25
488.944	9.21
489.145	9.33
489.346	9.08
489.547	8.98
489.748	8.83
489.949	8.64
490.15	8.89
490.351	8.96
490.552	8.64
490.753	8.73
490.954	8.69
491.155	9.02
491.356	8.91
491.557	8.95
491.758	8.89
491.959	9.06
492.159	9.23
492.36	9.19
492.561	9.23
492.762	9.25
492.963	9.06
493.164	9.42
493.364	9.26
493.565	9.33
493.766	9.35
493.967	9.78
494.167	9.5
494.368	9.2
494.569	9.06
494.769	9.09
494.97	9.26
495.171	9.48
495.371	9.09
495.572	9.19
495.773	9.66
495.973	9.96
496.174	9.49
496.375	9.94
496.575	10.23
496.776	9.78
496.976	9.94
497.177	9.97
497.377	9.99
497.578	10.22
497.778	9.74
497.979	9.08
498.179	9.01
498.38	9.6
498.58	9.65
498.78	9.6
498.981	10.37
499.181	10.65
499.382	10.48
499.582	10.46
499.782	10.46
499.983	10.77
500.183	11.24
500.383	11.08
500.584	10.56
500.784	10.27
500.984	10.2
501.184	9.54
501.385	9.31
501.585	9.6
501.785	9.73
501.985	10.08
502.185	10.05
502.386	10.09
502.586	10.34
502.786	10.4
502.986	10.34
503.186	9.81
503.386	10.65
503.586	10.04
503.786	10.13
503.987	9.92
504.187	9.57
504.387	9.87
504.587	9.8
504.787	10.34
504.987	10.37
505.187	10.43
505.387	11.21
505.587	10.88
505.786	11.33
505.986	11.26
506.186	10.84
506.386	10.93
506.586	10.82
506.786	10.74
506.986	10.33
507.186	10.87
507.386	10.95
507.585	10.66
507.785	10.98
507.985	11.37
508.185	11.32
508.384	11.95
508.584	11.86
508.784	12.01
508.984	12.2
509.183	11.82
509.383	11.92
509.583	12.07
509.782	12.72
509.982	12.53
510.182	12.59
510.381	12.98
510.581	12.94
510.781	13.03
510.98	13.1
511.18	12.91
511.379	13.38
511.579	12.87
511.778	13.3
511.978	12.74
512.177	12.69
512.377	12.41
512.576	12.23
512.776	12.48
512.975	12.75
513.175	12.82
513.374	13.22
513.573	12.91
513.773	12.84
513.972	12.84
514.172	12.96
514.371	13.18
514.57	13.38
514.77	13.2
514.969	13.23
515.168	13.42
515.367	13.44
515.567	13.39
515.766	13.95
515.965	14.38
516.164	14.22
516.364	14.42
516.563	14.82
516.762	15.12
516.961	15.68
517.16	15.55
517.359	15.43
517.559	15.16
517.758	15.23
517.957	15.63
518.156	15.68
518.355	15.99
518.554	16.16
518.753	16.01
518.952	15.95
519.151	15.7
519.35	15.79
519.549	15.8
519.748	16.28
519.947	16.33
520.146	15.91
520.345	15.86
520.544	15.36
520.743	14.87
520.942	14.95
521.141	14.94
521.339	14.9
521.538	14.83
521.737	14.84
521.936	14.87
522.135	15.24
522.333	15.1
522.532	15.42
522.731	15.94
522.93	16.28
523.129	16.36
523.327	16.59
523.526	16.84
523.725	17.31
523.923	17.62
524.122	17.38
524.321	17.44
524.519	17.75
524.718	17.89
524.917	17.73
525.115	17.94
525.314	17.74
525.512	17.79
525.711	17.87
525.909	18.13
526.108	18.03
526.306	18.25
526.505	18.72
526.703	18.71
526.902	18.64
527.1	18.75
527.299	18.79
527.497	18.91
527.696	19.06
527.894	19.3
528.092	19.15
528.291	19.35
528.489	19.46
528.688	19.21
528.886	19.25
529.084	19.36
529.283	19.52
529.481	19.63
529.679	19.76
529.877	19.87
530.076	19.75
530.274	20.09
530.472	20.15
530.67	20.18
530.869	20.13
531.067	20.38
531.265	20.48
531.463	20.37
531.661	20.35
531.859	20.55
532.057	20.57
532.255	20.62
532.454	20.61
532.652	20.69
532.85	20.78
533.048	21.05
533.246	21.03
533.444	21.11
533.642	21.49
533.84	21.76
534.038	21.7
534.236	21.97
534.434	21.93
534.632	21.91
534.83	22.14
535.027	22.5
535.225	22.65
535.423	22.63
535.621	22.65
535.819	22.8
536.017	22.6
536.215	22.84
536.412	22.64
536.61	22.72
536.808	22.98
537.006	23.07
537.203	23.33
537.401	23.12
537.599	23.7
537.797	24.02
537.994	23.93
538.192	24.35
538.39	24.58
538.587	24.56
538.785	24.76
538.983	24.75
539.18	24.52
539.378	24.29
539.575	24.46
539.773	23.99
539.97	23.63
540.168	23.63
540.366	23.43
540.563	23.4
540.761	23.49
540.958	23.71
541.155	23.65
541.353	23.79
541.55	23.62
541.748	23.65
541.945	23.78
542.143	24.1
542.34	24.03
542.537	24.21
542.735	24.15
542.932	24.17
543.129	24.29
543.327	24.46
543.524	24.4
543.721	24.67
543.919	24.79
544.116	24.82
544.313	24.78
544.51	25.24
544.708	25.16
544.905	25.42
545.102	25.58
545.299	25.34
545.496	24.85
545.693	25.05
545.891	24.94
546.088	24.69
546.285	25.14
546.482	25.04
546.679	24.71
546.876	25.12
547.073	24.97
547.27	24.83
547.467	24.85
547.664	25.25
547.861	25.09
548.058	25.85
548.255	25.88
548.452	25.73
548.649	26.17
548.846	26.52
549.043	26.24
549.24	26.07
549.437	26.88
549.633	27.06
549.83	27.28
550.027	27.55
550.224	27.12
550.421	27.4
550.618	27.37
550.814	27.57
551.011	27.77
551.208	27.97
551.405	28.16
551.601	27.69
551.798	27.57
551.995	27.81
552.191	27.44
552.388	27.12
552.585	27.45
552.781	27.81
552.978	27.58
553.175	27.37
553.371	27.79
553.568	28.2
553.764	28.21
553.961	28.39
554.157	28.01
554.354	28.41
554.55	28.99
554.747	29.81
554.943	29.67
555.14	29.9
555.336	29.76
555.533	28.97
555.729	29.41
555.926	29.9
556.122	30.38
556.318	30.88
556.515	31.1
556.711	30.96
556.907	29.96
557.104	30.46
557.3	30.69
557.496	30.98
557.693	31.36
557.889	31.09
558.085	30.71
558.281	30.8
558.478	30.77
558.674	30.8
558.87	30.95
559.066	31.54
559.262	31.1
559.459	31.32
559.655	31.88
559.851	32.66
560.047	32.48
560.243	32.43
560.439	32.45
560.635	32.42
560.831	32.45
561.027	32.76
561.223	32.86
561.419	32.68
561.615	32.73
561.811	32.11
562.007	31.88
562.203	32.45
562.399	32.85
562.595	33.15
562.791	33.34
562.987	33.85
563.183	34.04
563.379	33.96
563.575	34.68
563.771	34.14
563.966	35.12
564.162	35.08
564.358	34.97
564.554	35.05
564.75	34.37
564.945	34.69
565.141	34.95
565.337	35.13
565.533	34.81
565.728	34.94
565.924	35.65
566.12	35.25
566.315	35.07
566.511	35.73
566.707	36.41
566.902	36.96
567.098	36.96
567.293	36.54
567.489	36.29
567.684	37.14
567.88	36.45
568.076	35.91
568.271	35.92
568.467	36.74
568.662	36.1
568.858	35.26
569.053	35.6
569.248	35.64
569.444	36.41
569.639	36.86
569.835	36.37
570.03	37.39
570.225	37.75
570.421	37.78
570.616	37.47
570.812	37.63
571.007	38.3
571.202	37.91
571.397	38.33
571.593	37.59
571.788	37.84
571.983	38.19
572.178	37.87
572.374	37.7
572.569	37.27
572.764	37.43
572.959	37.78
573.154	37.6
573.35	38.12
573.545	38.23
573.74	39.01
573.935	38.61
574.13	38.96
574.325	38.9
574.52	39.18
574.715	40.08
574.91	39.8
575.105	39.44
575.3	39.69
575.495	39.46
575.69	39.23
575.885	39.36
576.08	39.53
576.275	39.64
576.47	40.06
576.665	40.71
576.86	40.4
577.055	40.84
577.25	41.59
577.444	41.58
577.639	41.98
577.834	41.67
578.029	41.16
578.224	40.95
578.418	40.85
578.613	40.75
578.808	40.81
579.003	41.41
579.197	41.96
579.392	42.17
579.587	42.14
579.781	42.19
579.976	42.66
580.171	43.17
580.365	43.31
580.56	43.47
580.755	43.18
580.949	43.11
581.144	43.42
581.338	43
581.533	42.59
581.727	42.51
581.922	42.56
582.116	42.78
582.311	42.71
582.505	43.38
582.7	43.14
582.894	43.42
583.089	43.12
583.283	42.26
583.478	42.42
583.672	42.18
583.866	42.33
584.061	42.19
584.255	42.31
584.449	42.99
584.644	42.47
584.838	43.06
585.032	43.14
585.226	42.7
585.421	43.44
585.615	43.78
585.809	44.16
586.003	43.87
586.198	43.67
586.392	43.61
586.586	43.14
586.78	43.18
586.974	42.35
587.168	42.39
587.363	43.4
587.557	43.09
587.751	42.83
587.945	42.78
588.139	44.01
588.333	44.6
588.527	44.34
588.721	43.94
588.915	44.11
589.109	44.96
589.303	44.57
589.497	44.33
589.691	44.73
589.885	45.05
590.079	45.84
590.273	45.22
590.466	44.97
590.66	45.2
590.854	45.67
591.048	45.3
591.242	44.6
591.436	45.47
591.629	45.35
591.823	44.55
592.017	44.72
592.211	44.69
592.404	44.86
592.598	44.72
592.792	44.84
592.986	44.45
593.179	44.95
593.373	45.81
593.567	46.14
593.76	45.71
593.954	46.4
594.147	46.1
594.341	45.56
594.535	45.37
594.728	45.54
594.922	45.78
595.115	46.42
595.309	46.16
595.502	45.88
595.696	44.97
595.889	45.44
596.083	45.18
596.276	45.06
596.47	45.11
596.663	45.42
596.856	46.07
597.05	45.55
597.243	45.47
597.437	45.42
597.63	45.43
597.823	45.5
598.017	45.68
598.21	46.37
598.403	47.02
598.596	47.52
598.79	47.03
598.983	47.07
599.176	47.79
599.369	47.24
599.563	47.98
599.756	48.15
599.949	48.92
600.142	48.77
600.335	48.29
600.528	47.65
600.722	47.46
600.915	48.28
601.108	47.41
601.301	47.98
601.494	48.91
601.687	48.16
601.88	48.3
602.073	47.69
602.266	48.34
602.459	48.13
602.652	48.33
602.845	47.94
603.038	47.9
603.231	48
603.424	47.28
603.617	46.62
603.809	47.16
604.002	46.39
604.195	47.35
604.388	47.41
604.581	48.03
604.774	48.27
604.966	48.28
605.159	48.01
605.352	48.41
605.545	48.29
605.737	48.44
605.93	48.7
606.123	48.96
606.316	48.42
606.508	48.11
606.701	47.17
606.894	47.27
607.086	47.53
607.279	47.25
607.471	47.9
607.664	48.13
607.857	48.11
608.049	47.8
608.242	48.05
608.434	48.69
608.627	48.25
608.819	48.75
609.012	49.1
609.204	49.24
609.397	49.3
609.589	48.95
609.782	49.12
609.974	48.97
610.166	49.06
610.359	49.58
610.551	49.33
610.743	50.47
610.936	50.74
611.128	49.78
611.32	49.13
611.513	49.23
611.705	48.95
611.897	49.61
612.09	50.82
612.282	51.83
612.474	51.42
612.666	51.13
612.858	49.42
613.051	48.86
613.243	49.01
613.435	49.67
613.627	49.82
613.819	50.09
614.011	50.77
614.203	49.78
614.395	48.29
614.588	47.55
614.78	47.43
614.972	48.22
615.164	47.83
615.356	48.67
615.548	49.83
615.74	49.88
615.932	48.59
616.124	47.73
616.315	47.93
616.507	47.73
616.699	48.45
616.891	48.32
617.083	48.36
617.275	48.96
617.467	48.5
617.659	46.64
617.85	47.2
618.042	47.2
618.234	47.4
618.426	47.71
618.618	48.43
618.809	48.04
619.001	48.17
619.193	47.89
619.384	48.91
619.576	49.17
619.768	50.48
619.959	49.78
620.151	50.88
620.343	49.85
620.534	48.86
620.726	48.14
620.917	48.52
621.109	47.97
621.301	48.63
621.492	48.39
621.684	47.58
621.875	46.82
622.067	47.57
622.258	47.59
622.45	47.4
622.641	48.37
622.832	49.14
623.024	49.52
623.215	49.9
623.407	50.01
623.598	49.95
623.789	50.15
623.981	50.25
624.172	49.92
624.363	49.95
624.555	50.39
624.746	49.92
624.937	50.57
625.129	50.56
625.32	51.46
625.511	51.63
625.702	51.64
625.893	51.5
626.085	51.41
626.276	51.43
626.467	51.28
626.658	51.44
626.849	52.06
627.04	52.2
627.231	52.24
627.422	51.71
627.614	50.88
627.805	49.94
627.996	50.94
628.187	50.96
628.378	50.75
628.569	50.27
628.76	50.24
628.951	50.88
629.142	50.53
629.332	50.23
629.523	50.05
629.714	50.68
629.905	51.61
630.096	50.87
630.287	51.91
630.478	52.34
630.669	53.14
630.859	53.42
631.05	52.86
631.241	52.75
631.432	52.74
631.623	52.76
631.813	52.96
632.004	53.2
632.195	53.73
632.385	53.88
632.576	53.9
632.767	54.5
632.957	55.4
633.148	54.85
633.339	54.41
633.529	54.45
633.72	55.58
633.91	55.33
634.101	54.57
634.292	54.87
634.482	53.75
634.673	52.91
634.863	51.79
635.054	50.94
635.244	51.22
635.435	51.15
635.625	51.44
635.815	51.51
636.006	51.95
636.196	52.54
636.387	52.33
636.577	52.72
636.767	53.45
636.958	53.83
637.148	54.87
637.338	55.4
637.529	55.46
637.719	55.41
637.909	54.41
638.099	53.07
638.29	53.44
638.48	52.93
638.67	52.49
638.86	53.52
639.05	53.39
639.241	51.93
639.431	51.97
639.621	52.76
639.811	53.44
640.001	53.58
640.191	55.33
640.381	54.72
640.571	54.73
640.761	54.54
640.951	52.95
641.141	53.43
641.331	53.76
641.521	53.26
641.711	53.18
641.901	52.93
642.091	52.08
642.281	51.31
642.471	51.43
642.661	51.79
642.851	52.66
643.041	53.6
643.231	53.18
643.42	54.17
643.61	52.32
643.8	52.09
643.99	51.66
644.18	52.55
644.369	51.37
644.559	51.5
644.749	51.26
644.939	50.65
645.128	50.75
645.318	50.5
645.508	50.45
645.697	52.18
645.887	51.96
646.076	52.92
646.266	52.39
646.456	53.94
646.645	54
646.835	53.61
647.024	54.1
647.214	53.22
647.403	53.46
647.593	52.94
647.782	53.94
647.972	54.09
648.161	53.43
648.351	52.82
648.54	53.07
648.73	52.4
648.919	53.27
649.108	53.1
649.298	53.42
649.487	53.93
649.677	53.99
649.866	54.1
650.055	55.1
650.244	55.46
650.434	56.35
650.623	56.23
650.812	56.32
651.002	56.34
651.191	55.89
651.38	56
651.569	54.78
651.758	54.14
651.947	53.15
652.137	52.67
652.326	52.75
652.515	52.64
652.704	51.82
652.893	52.3
653.082	52.21
653.271	53.49
653.46	53.21
653.649	54.27
653.838	54.29
654.027	53.88
654.216	52.96
654.405	52.39
654.594	52.59
654.783	52.78
654.972	53.11
655.161	52.58
655.35	51.55
655.539	52.57
655.728	51.71
655.916	52.56
656.105	53.1
656.294	53.96
656.483	53.76
656.672	54.36
656.86	55.52
657.049	54.62
657.238	54.16
657.427	55.04
657.615	54.13
657.804	54.98
657.993	54.26
658.181	53.54
658.37	53.94
658.559	54.07
658.747	54.48
658.936	53.28
659.125	55.27
659.313	54.84
659.502	54.83
659.69	55.29
659.879	55.43
660.067	55.78
660.256	57.32
660.444	56.45
660.633	57.18
660.821	56.02
661.01	56.64
661.198	54.53
661.387	55.91
661.575	56.12
661.763	56.37
661.952	56.14
662.14	56.03
662.328	54.48
662.517	55.12
662.705	54.65
662.893	54.78
663.082	55.22
663.27	54.7
663.458	54.89
663.646	53.65
663.834	53.45
664.023	52.78
664.211	52.62
664.399	53.73
664.587	53.63
664.775	54.9
664.963	56.36
665.152	56
665.34	58.08
665.528	57.46
665.716	57.74
665.904	57.92
666.092	59.32
666.28	59.77
666.468	59.17
666.656	59.82
666.844	58.72
667.032	57.27
667.22	57.8
667.408	56.72
667.596	56.89
667.784	57.72
667.971	57.12
668.159	57.57
668.347	56.61
668.535	56.14
668.723	55.7
668.911	56
669.098	55.65
669.286	54.84
669.474	55.52
669.662	55.92
669.849	55.44
670.037	55.24
670.225	55.23
670.413	55.41
670.6	54.82
670.788	55.71
670.976	54.8
671.163	54.9
671.351	53.51
671.538	52.5
671.726	52.83
671.913	51.41
672.101	50.89
672.289	51.14
672.476	51.79
672.664	52.87
672.851	52.43
673.039	52.74
673.226	53.39
673.413	55.23
673.601	55.06
673.788	54.63
673.976	55.59
674.163	56.96
674.35	56.1
674.538	55.69
674.725	55.57
674.912	54.08
675.1	53.56
675.287	53.62
675.474	52.28
675.662	53.4
675.849	52.95
676.036	54.53
676.223	54.25
676.411	54.04
676.598	53.68
676.785	53.57
676.972	53.32
677.159	53.96
677.346	54.48
677.533	55.31
677.721	54.53
677.908	54.6
678.095	53.39
678.282	53.36
678.469	53.5
678.656	53.71
678.843	54.55
679.03	55.65
679.217	56.24
679.404	55.33
679.591	55.47
679.778	55.16
679.964	55.14
680.151	56.17
680.338	56.43
680.525	55.63
680.712	56.12
680.899	57.17
681.086	56.39
681.272	55.44
681.459	55.3
681.646	55.24
681.833	55.71
682.02	55.81
682.206	54.41
682.393	54.11
682.58	53.88
682.766	53.91
682.953	52.38
683.14	53.72
683.326	53.83
683.513	55.2
683.7	56.27
683.886	56.61
684.073	56.47
684.259	57.67
684.446	57.56
684.632	57.69
684.819	55.99
685.005	54.72
685.192	54.59
685.378	55.46
685.565	54.39
685.751	53.53
685.938	54.06
686.124	55.32
686.31	55.38
686.497	55.17
686.683	55.75
686.87	56.76
687.056	57.02
687.242	57.3
687.429	57.27
687.615	57.35
687.801	57.53
687.987	56.86
688.174	57.5
688.36	56.27
688.546	57.33
688.732	56.88
688.918	57.18
689.105	58.98
689.291	58.19
689.477	58.1
689.663	58.61
689.849	57.75
690.035	56.93
690.221	53.63
690.407	54.9
690.593	54.35
690.779	56.08
690.965	56.01
691.151	55.51
691.337	55.93
691.523	54.23
691.709	53.6
691.895	55.3
692.081	56.72
692.267	57.83
692.453	57.79
692.639	57.71
692.825	57.2
693.011	56.55
693.196	55.53
693.382	54.31
693.568	54.65
693.754	55.95
693.94	56.27
694.125	57.03
694.311	57.21
694.497	56.09
694.682	55.63
694.868	53.66
695.054	55.28
695.239	55.9
695.425	56.77
695.611	57.9
695.796	55.06
695.982	55.33
696.168	53.56
696.353	54.42
696.539	55.27
696.724	56.11
696.91	57.34
697.095	56.33
697.281	55.75
697.466	56.6
697.652	56.93
697.837	58.69
698.023	57.73
698.208	57.2
698.393	57.1
698.579	57.22
698.764	57.58
698.949	57.14
699.135	57.95
699.32	58.98
699.505	57.39
699.691	55.32
699.876	55.6
700.061	56.32
700.246	57.08
700.432	57.13
700.617	55.66
700.802	55.25
700.987	54.66
701.172	55.14
701.358	54.5
701.543	54.84
701.728	56.53
701.913	55.39
702.098	54.47
702.283	54.57
702.468	53.7
702.653	56.24
702.838	57.26
703.023	58.02
703.208	57.3
703.393	58.12
703.578	59.8
703.763	60.92
703.948	60.42
704.133	61.27
704.318	60.61
704.503	62.36
704.688	61.19
704.873	59.6
705.057	59.75
705.242	58.48
705.427	56.94
705.612	55.95
705.797	55.05
705.981	56.02
706.166	55.24
706.351	56.96
706.536	55.28
706.72	54.79
706.905	53.33
707.09	54.89
707.274	56.02
707.459	55.82
707.644	57.21
707.828	55.49
708.013	55.46
708.197	54.38
708.382	54.62
708.567	54.5
708.751	55.77
708.936	57.68
709.12	54.61
709.305	54.32
709.489	54.91
709.673	53.53
709.858	55.82
710.042	55.02
710.227	55.13
710.411	55.66
710.596	56.22
710.78	55.13
710.964	55.01
711.149	57.67
711.333	58.32
711.517	60.33
711.702	61.29
711.886	60.31
712.07	59.48
712.254	60.52
712.438	58.9
712.623	57.17
712.807	56.89
712.991	55.94
713.175	54.82
713.359	54.94
713.544	53.17
713.728	51.87
713.912	51.68
714.096	53.74
714.28	54.14
714.464	52.87
714.648	54.98
714.832	56.99
715.016	58.56
715.2	59.36
715.384	58.63
715.568	60.2
715.752	60.79
715.936	62.12
716.12	61.64
716.304	60.42
716.488	63.15
716.671	61.15
716.855	59.36
717.039	59.64
717.223	58.56
717.407	57.95
717.59	56.97
717.774	56.17
717.958	54.22
718.142	53.19
718.325	54.24
718.509	53.08
718.693	55.09
718.877	55.74
719.06	53.18
719.244	55.14
719.428	55.27
719.611	53.81
719.795	55.98
719.978	56.47
720.162	57.84
720.345	56.55
720.529	56.99
720.713	56.74
720.896	56.92
721.08	58.14
721.263	55.51
721.446	56.87
721.63	57.2
721.813	56.03
721.997	57.65
722.18	58.41
722.364	58.96
722.547	57.15
722.73	56.91
722.914	55.67
723.097	56.63
723.28	58.55
723.464	60.18
723.647	58.7
723.83	57.15
724.013	56.45
724.197	55.37
724.38	55.92
724.563	57.37
724.746	56.57
724.929	56.33
725.112	54.64
725.296	51.46
725.479	50.37
725.662	53.83
725.845	54.51
726.028	54.79
726.211	53.23
726.394	52.31
726.577	52.88
726.76	53.11
726.943	53.56
727.126	53.61
727.309	56.8
727.492	56.2
727.675	53.55
727.858	52.48
728.041	51.58
728.224	51.84
728.407	52.45
728.589	52.44
728.772	53.29
728.955	51.58
729.138	51.27
729.321	48.59
729.503	46.28
729.686	47.84
729.869	48.72
730.052	48.95
730.234	50.33
730.417	49.9
730.6	50.24
730.782	48.64
730.965	51.78
731.148	51.52
731.33	53.6
731.513	55.5
731.695	56.59
731.878	55.64
732.061	55.33
732.243	55.48
732.426	54.18
732.608	54.69
732.791	55.72
732.973	54.48
733.156	54.88
733.338	52.83
733.52	52.19
733.703	51.22
733.885	53.08
734.068	53.59
734.25	52.85
734.432	55.54
734.615	53.66
734.797	54.01
734.979	53.91
735.162	54.88
735.344	57.4
735.526	58.29
735.708	58.19
735.891	57.11
736.073	57.62
736.255	59.12
736.437	57.39
736.619	59.01
736.802	58.5
736.984	57.82
737.166	58.81
737.348	58.63
737.53	59.59
737.712	58.53
737.894	58.52
738.076	56.65
738.258	54.68
738.44	55.76
738.622	54.38
738.804	53.9
738.986	53.62
739.168	53.26
739.35	50.34
739.532	46.45
739.714	48.18
739.896	48.45
740.078	50.68
740.259	53.35
740.441	52.21
740.623	53.44
740.805	55.18
740.987	53.06
741.168	51.58
741.35	50.92
741.532	51.93
741.714	50.53
741.895	49.65
742.077	47.56
742.259	45.97
742.44	46.78
742.622	46.79
742.804	45.17
742.985	48.06
743.167	48.83
743.348	51.68
743.53	54.68
743.711	55.83
743.893	59.74
744.075	62.04
744.256	64.79
744.438	64.8
744.619	62.71
744.8	64.58
744.982	67.45
745.163	67.52
745.345	67.95
745.526	67.21
745.707	68.64
745.889	66.57
746.07	66.36
746.252	62.9
746.433	61.25
746.614	61.98
746.795	59.51
746.977	56.63
747.158	54.59
747.339	55.49
747.52	56.58
747.702	55.24
747.883	56.32
748.064	55.72
748.245	56.52
748.426	59.8
748.607	56.65
748.788	56.62
748.97	55.83
749.151	55.96
749.332	55.54
749.513	54.75
749.694	53.45
749.875	48.82
750.056	48.83
750.237	50.55
750.418	50.77
750.599	55.19
750.78	55.14
750.96	57.24
751.141	60.97
751.322	60.97
751.503	56.38
751.684	58
751.865	61.65
752.046	62.55
752.226	60.31
752.407	57.33
752.588	55.85
752.769	59.83
752.949	58.65
753.13	56.57
753.311	56.3
753.492	59.13
753.672	61.4
753.853	63.69
754.034	62.06
754.214	62.33
754.395	63.47
754.575	65.11
754.756	65.3
754.937	65.74
755.117	64.32
755.298	65.47
755.478	64.76
755.659	63.27
755.839	58.73
756.02	61.8
756.2	59.91
756.381	59.62
756.561	57.1
756.741	56.01
756.922	54.98
757.102	56.9
757.283	52.13
757.463	54.98
757.643	52.51
757.823	54.14
758.004	53.1
758.184	54.49
758.364	54.69
758.545	56.59
758.725	55.7
758.905	55.59
759.085	55.63
759.265	58.44
759.446	58.42
759.626	57.2
759.806	56.88
759.986	57
760.166	55.77
760.346	55.02
760.526	53.48
760.706	52.44
760.886	54.26
761.066	52.69
761.246	55.05
761.426	56.03
761.606	58.1
761.786	59.48
761.966	60.17
762.146	60.9
762.326	58.54
762.506	58.42
762.686	57.55
762.866	56.98
763.046	58.5
763.225	58.16
763.405	57.09
763.585	57.69
763.765	57.37
763.945	56.09
764.124	54.62
764.304	57.48
764.484	55.94
764.664	57.84
764.843	57.97
765.023	56.95
765.203	55.96
765.382	56.16
765.562	56.46
765.741	56.33
765.921	55.73
766.101	57.89
766.28	57.64
766.46	59.78
766.639	58.64
766.819	59.41
766.998	58.07
767.178	58.91
767.357	59.2
767.537	55.62
767.716	53.63
767.896	52.83
768.075	51.02
768.254	52.79
768.434	50.96
768.613	49.83
768.792	46.87
768.972	47.18
769.151	46.15
769.33	47.28
769.51	50.98
769.689	52.66
769.868	55.18
770.047	55.17
770.226	52.79
770.406	53.99
770.585	57.92
770.764	58.98
770.943	59.6
771.122	58.56
771.301	54.96
771.48	55.27
771.66	58.11
771.839	61.06
772.018	60.68
772.197	63
772.376	64.36
772.555	64.47
772.734	68.79
772.913	69.28
773.092	69.42
773.271	70.76
773.449	67.62
773.628	63.13
773.807	58.65
773.986	62.43
774.165	64.61
774.344	65.64
774.523	67.77
774.701	64.98
774.88	65.82
775.059	63.66
775.238	62.62
775.417	63.1
775.595	66.11
775.774	67.95
775.953	61.76
776.131	55.61
776.31	54.67
776.489	50.39
776.667	43.21
776.846	45.07
777.025	45.73
777.203	45.82
777.382	43.24
777.56	44.57
777.739	40.91
777.917	47.42
778.096	48.48
778.274	50.36
778.453	50.76
778.631	60.77
778.81	58.35
778.988	61.85
779.166	66.27
779.345	69.7
779.523	65.1
779.702	70.32
779.88	71.78
780.058	72.73
780.237	70.68
780.415	72.6
780.593	71.63
780.771	73.14
780.95	71.04
781.128	66.38
781.306	67.62
781.484	70.96
781.662	65.8
781.841	61.67
782.019	64.74
782.197	69.87
782.375	68.81
782.553	65.39
782.731	63.77
782.909	60.41
783.087	61.76
783.265	67.16
783.443	67.33
783.621	68.29
783.799	69.41
783.977	67.78
784.155	64.04
784.333	59.54
784.511	64.08
784.689	65.3
784.867	68.08
785.045	67.75
785.223	56.22
785.4	54.63
785.578	56.84
785.756	59.06
785.934	56.85
786.112	56.28
786.289	59.63
786.467	57.46
786.645	56.15
786.823	57.73
787	59.88
787.178	64.1
787.356	65.77
787.533	63.11
787.711	59.32
787.889	59.99
788.066	58.38
788.244	57.89
788.421	57.9
788.599	58.19
788.776	59.42
788.954	57.41
789.131	52.46
789.309	51.94
789.486	52.42
789.664	57.45
789.841	62.71
790.019	64.39
790.196	63.86
790.373	63.36
790.551	65.41
790.728	65.34
790.906	66.22
791.083	73.11
791.26	72.54
791.437	71.48
791.615	70.58
791.792	65.72
791.969	63.33
792.146	68.23
792.324	69.7
792.501	63.39
792.678	60.42
792.855	59.43
793.032	61.46
793.209	60.6
793.387	61.26
793.564	64.13
793.741	63.61
793.918	66.84
794.095	64.16
794.272	63.31
794.449	68.43
794.626	70.16
794.803	72.37
794.98	74.87
795.157	74.64
795.334	75.08
795.511	68.76
795.688	65.35
795.864	61.83
796.041	61.9
796.218	59.65
796.395	57.58
796.572	58.71
796.749	53.99
796.925	52.51
797.102	52.96
797.279	55.24
797.456	54.97
797.632	56.97
797.809	60.99
797.986	57.13
798.162	57.23
798.339	57.83
798.516	60.36
798.692	63.37
798.869	64.96
799.046	60.97
799.222	59.49
799.399	59.49
799.575	61.45
799.752	57.93
799.928	58.94
800.105	60.6
800.281	61.65
800.458	52.29
800.634	52.13
800.811	48.19
800.987	51.98
801.163	49.69
801.34	52.05
801.516	52.92
801.692	54.49
801.869	58.8
802.045	57.61
802.221	60.81
802.398	60.88
802.574	58.4
802.75	55.87
802.926	48
803.103	46.26
803.279	37.47
803.455	37.05
803.631	39.02
803.807	39.14
803.983	37.81
804.16	32.34
804.336	39.32
804.512	41.45
804.688	44.8
804.864	49.76
805.04	56.88
805.216	66.79
805.392	66.1
805.568	63.38
805.744	64.97
805.92	66.53
806.096	65.08
806.272	61.02
806.448	53.77
806.623	60.77
806.799	60.88
806.975	56.37
807.151	51.25
807.327	49.19
807.503	49.71
807.678	42.05
807.854	41.96
808.03	46.58
808.206	50.25
808.381	55.61
808.557	47.91
808.733	47.21
808.908	46.64
809.084	47.89
809.26	47.27
809.435	48.65
809.611	47.68
809.787	48.85
809.962	48.1
810.138	46.24
810.313	45.73
810.489	44.66
810.664	47.05
810.84	53.5
811.015	53.49
811.191	58.14
811.366	55.34
811.542	64.79
811.717	68.3
811.892	69.74
812.068	77.37
812.243	77.44
812.419	74.85
812.594	74.31
812.769	62.13
812.944	65.6
813.12	67.82
813.295	67.08
813.47	64.68
813.645	57.31
813.821	50.92
813.996	42.79
814.171	40.65
814.346	48.83
814.521	50.31
814.697	52.93
814.872	54.87
815.047	47.91
815.222	46.46
815.397	43.05
815.572	47.87
815.747	51.39
815.922	54.88
816.097	53.13
816.272	50.35
816.447	50.37
816.622	49.46
816.797	45.99
816.972	49.33
817.147	53.02
817.322	53.69
817.496	54.25
817.671	43.42
817.846	36.48
818.021	37.01
818.196	46.11
818.371	43.47
818.545	45.08
818.72	46.17
818.895	44.01
819.069	41.49
819.244	43.52
819.419	44.45
819.594	53.9
819.768	53.72
819.943	53.85
820.117	49.89
820.292	48.63
820.467	49.3
820.641	49.49
820.816	51.21
820.99	51.79
821.165	51.41
821.339	51.39
821.514	50.18
821.688	49.19
821.863	49.62
822.037	49.72
822.212	49.55
822.386	49.84
822.56	49.22
822.735	48.89
822.909	49.09
823.084	50.38
823.258	49.21
823.432	49.6
823.606	50.11
823.781	49.81
823.955	50.56
824.129	52.34
824.303	51.91
824.478	53.34
824.652	51.59
824.826	51.91
825	51.03
825.174	53.02
825.348	53.72
825.523	54.93
825.697	53.88
825.871	53.54
826.045	53.19
826.219	53.21
826.393	52.71
826.567	55.9
826.741	55.66
826.915	55.91
827.089	53.99
827.263	53.25
827.437	53.6
827.611	55.61
827.784	54.09
827.958	53.87
828.132	53.91
828.306	54.38
828.48	51.29
828.654	52.02
828.827	49.53
829.001	52.53
829.175	55.21
829.349	55.21
829.522	49.95
829.696	50.75
829.87	50.82
830.044	55.01
830.217	55.11
830.391	51.58
830.565	49.83
830.738	49.13
830.912	48.95
831.085	42.29
831.259	37.44
831.432	47.93
831.606	50.63
831.779	51.17
831.953	50.11
832.126	58.61
832.3	64.7
832.473	64.09
832.647	67.66
832.82	65.95
832.994	63.22
833.167	63.27
833.34	58.43
833.514	55.64
833.687	54.46
833.86	52.15
834.034	42.06
834.207	42.39
834.38	42.02
834.553	38.13
834.727	38.96
834.9	43.54
835.073	46.01
835.246	52.01
835.419	53.15
835.593	57.17
835.766	60.56
835.939	63.54
836.112	62.57
836.285	68.28
836.458	69.83
836.631	67.15
836.804	62.46
836.977	63.41
837.15	54.14
837.323	59.09
837.496	55.92
837.669	48.22
837.842	49.93
838.015	56.08
838.188	57.2
838.361	57
838.533	59.82
838.706	69.36
838.879	67.86
839.052	65.76
839.225	61.04
839.398	59.31
839.57	54.33
839.743	58.57
839.916	61.78
840.088	49.75
840.261	57.17
840.434	61.38
840.607	62.82
840.779	66.26
840.952	67.2
841.124	69.86
841.297	68
841.47	74.51
841.642	75.06
841.815	71.93
841.987	83.91
842.16	84.43
842.332	80.46
842.505	82.89
842.677	77.75
842.85	88.6
843.022	94.13
843.194	88.27
843.367	94.58
843.539	92.6
843.712	96.65
843.884	83.32
844.056	73.41
844.229	77.54
844.401	61.93
844.573	68.36
844.745	60.73
844.918	40.53
845.09	65.14
845.262	61.67
845.434	55.32
845.606	29.94
845.779	31.14
845.951	40.19
846.123	45.02
846.295	63.58
846.467	73
846.639	78.59
846.811	83.11
846.983	76.76
847.155	79.36
847.327	72.41
847.499	74.88
847.671	73.57
847.843	76.24
848.015	73.07
848.187	72.74
848.359	52.18
848.531	41.03
848.703	51.72
848.875	44.59
849.047	38.84
849.218	47.36
849.39	65.95
849.562	73.12
849.734	72.51
849.905	64.03
850.077	60.1
850.249	82.58
850.421	80.25
850.592	71.83
850.764	80.98
850.936	93.67
851.107	134.58
851.279	96.7
851.451	120.42
851.622	141.28
851.794	122.71
851.965	105.78
852.137	62
852.308	76.75
852.48	63.87
852.651	43.98
852.823	43.59
852.994	21.55
853.166	10.26
853.337	7.74
853.509	6.28
853.68	-0.39
853.851	32.17
854.023	57.21
854.194	61.64
854.365	77.09
854.537	91.81
854.708	85.46
854.879	95.16
855.05	83.37
855.222	69.64
855.393	67.92
855.564	70.68
855.735	68.33
855.906	61.79
856.078	55.86
856.249	60.4
856.42	69.3
856.591	69.33
856.762	70.64
856.933	76.62
857.104	72.28
857.275	81.53
857.446	88.15
857.617	89.32
857.788	87.29
857.959	86.14
858.13	88.04
858.301	64.63
858.472	75.73
858.643	65.51
858.814	68.48
858.985	76.94
859.155	64.64
859.326	58
859.497	45.34
859.668	33.84
859.839	22.42
860.009	-0.82
860.18	24.43
860.351	21.97
860.522	50.92
860.692	45.14
860.863	53.12
861.034	55.7
861.204	63.04
861.375	45.36
861.546	57.11
861.716	66.23
861.887	73.56
862.057	77.5
862.228	91.36
862.398	57.91
862.569	72.33
862.739	79.95
862.91	77.98
863.08	70.25
863.251	78.09
863.421	74.82
863.592	91.77
863.762	85.52
863.932	88.55
864.103	86.85
864.273	76.14
864.443	75.25
864.614	61.23
864.784	74.71
864.954	85.77
865.125	62.77
865.295	88.75
865.465	42.36
865.635	48.26
865.805	46.48
865.976	52
866.146	65.2
866.316	56.95
866.486	49.69
866.656	45.59
866.826	27.55
866.996	46.31
867.166	39.65
867.336	36.91
867.506	43.73
867.676	28.04
867.846	34.02
868.016	24.8
868.186	44.12
868.356	75.86
868.526	113.45
868.696	121.6
868.866	155.57
869.036	84.5
869.206	70
869.376	52.81
869.545	82.96
869.715	43.85
869.885	68.81
870.055	63.7
870.224	66.01
870.394	53.53
870.564	27.72
870.734	38.78
870.903	41.52
871.073	46.3
871.243	44.75
871.412	33
871.582	34.07
871.751	22.69
871.921	15.09
872.091	-8.95
872.26	-2.2
872.43	21.33
872.599	26.43
872.769	35.81
872.938	33.27
873.108	51.02
873.277	45.87
873.446	46.61
873.616	48.97
873.785	51.15
873.955	52.8
874.124	42.61
874.293	48.14
874.463	31.75
874.632	12.82
874.801	18.99
874.971	11.34
875.14	-2.74
875.309	-14.88
875.478	-15.67
875.647	-10.15
875.817	0.32
875.986	2.66
876.155	-0.32
876.324	9.97
876.493	11.99
876.662	13.64
876.831	6.19
877	19.15
877.17	22.58
877.339	24.96
877.508	16.19
877.677	7.9
877.846	21.48
878.015	11.69
878.184	6.35
878.352	13.78
878.521	7.96
878.69	7.94
878.859	13.4
879.028	23.43
879.197	22.85
879.366	31.12
879.534	48.84
879.703	43.24
879.872	35.05
880.041	37.95
880.21	35.82
880.378	39.2
880.547	39.14
880.716	38.7
880.884	41.46
881.053	37.86
881.222	38.33
881.39	32.92
881.559	31.78
881.727	35.71
881.896	36.65
882.065	38.27
882.233	35.2
882.402	38.19
882.57	39.56
882.739	35.06
882.907	38.23
883.076	39.07
883.244	41.8
883.412	46.98
883.581	47.12
883.749	49.29
883.918	49.61
884.086	53.33
884.254	50.46
884.423	51.47
884.591	52.95
884.759	47.51
884.927	39.8
885.096	42.27
885.264	34.06
885.432	29.81
885.6	29.46
885.769	22.55
885.937	26.07
886.105	25.9
886.273	20.05
886.441	27
886.609	30.61
886.777	48.39
886.945	38.41
887.113	37.29
887.281	30.1
887.449	3.75
887.617	24.57
887.785	14.15
887.953	20.23
888.121	7.14
888.289	-16.92
888.457	1.29
888.625	-20.38
888.793	-14.44
888.961	-7.46
889.129	21.71
889.296	47.96
889.464	38.06
889.632	51.71
889.8	43.06
889.967	48.13
890.135	57.71
