Data from JASIL_2931_Reflection_1.txt Node
Date: Sat Nov 07 20:50:35 EST 2015
User: Geneva
Spectrometer: USB4E03002
Autoset integration time: false
Trigger mode: 4
Integration Time (sec): 1.000000E-1
Scans to average: 10
Electric dark correction enabled: true
Nonlinearity correction enabled: false
Boxcar width: 5
Stray light correction enabled: false
XAxis mode: Wavelengths
Stop averaging: false
Number of Pixels in Spectrum: 3648
>>>>>Begin Spectral Data<<<<<
177.575	-605.29
177.794	-108.31
178.014	-167.77
178.233	12.2
178.452	-16.5
178.672	37.42
178.891	106.85
179.11	0
179.33	694.46
179.549	-430.77
179.768	622.4
179.987	-568.38
180.207	-60.12
180.426	29.49
180.645	30.32
180.864	21.25
181.084	36.07
181.303	27.5
181.522	16.76
181.741	28.25
181.96	14.17
182.179	23.84
182.398	28.1
182.618	26.21
182.837	-2.2
183.056	-7.7
183.275	5.85
183.494	-18.07
183.713	6.31
183.932	3.18
184.151	3.31
184.37	18.74
184.589	14.64
184.808	18.85
185.027	31.77
185.246	30.29
185.465	30.24
185.684	29.73
185.903	36.59
186.122	45.02
186.341	50.46
186.56	36.73
186.779	17.7
186.998	24.73
187.216	17.6
187.435	-4.96
187.654	8.42
187.873	18.36
188.092	-14.27
188.311	-15.05
188.53	-9.97
188.748	-20.19
188.967	-22.28
189.186	4.11
189.405	10.41
189.623	-0.58
189.842	14.24
190.061	6.34
190.28	-16.63
190.498	-20.45
190.717	-33.6
190.936	-37.55
191.154	-44.99
191.373	-49
191.592	-62.43
191.81	-70.67
192.029	-57.91
192.248	-87.26
192.466	-46.48
192.685	-31.11
192.904	-15.56
193.122	-8.35
193.341	-24.61
193.559	-20.56
193.778	-20.41
193.996	-5.85
194.215	-6.59
194.433	-15.51
194.652	-14.56
194.87	-25.21
195.089	-10.58
195.307	-1.81
195.526	-0.96
195.744	12.1
195.963	20.18
196.181	38.58
196.399	13.41
196.618	10.91
196.836	27.07
197.055	18.09
197.273	30.41
197.491	27.17
197.71	21.26
197.928	7.46
198.146	-6.53
198.365	-23.16
198.583	-61.69
198.801	-41.26
199.019	-48.16
199.238	-52.39
199.456	-74.09
199.674	-82.3
199.892	-86.67
200.111	-102.97
200.329	-60.66
200.547	-64.31
200.765	-49.13
200.983	-37.15
201.202	-6.79
201.42	21.61
201.638	-4.35
201.856	7.04
202.074	20.58
202.292	26.81
202.51	12.26
202.728	-3.79
202.946	-1.84
203.165	-10.33
203.383	-19.16
203.601	-25.62
203.819	-35.03
204.037	-15.85
204.255	-6.14
204.473	-5.98
204.691	-18.63
204.909	-24.35
205.127	-6.13
205.345	6.29
205.562	15.88
205.78	22.73
205.998	19.39
206.216	14.22
206.434	16.59
206.652	19.72
206.87	19.76
207.088	26.98
207.306	32.94
207.523	37.34
207.741	20.61
207.959	10.16
208.177	14.35
208.395	2.12
208.612	-24.91
208.83	-28.89
209.048	-12.68
209.266	-43.86
209.483	-50.64
209.701	-56.02
209.919	-61.66
210.136	-49.62
210.354	-10.8
210.572	-7.33
210.79	5.34
211.007	14.2
211.225	23.94
211.442	5.4
211.66	17.13
211.878	17.77
212.095	78.54
212.313	76.22
212.53	77.77
212.748	74.64
212.966	72.94
213.183	68.7
213.401	71.85
213.618	66.81
213.836	76.96
214.053	70.33
214.271	69.9
214.488	11.14
214.705	3.55
214.923	2.54
215.14	10.89
215.358	18.54
215.575	24.72
215.793	29.58
216.01	27.16
216.227	26.06
216.445	20.35
216.662	19.43
216.879	16.76
217.097	20.19
217.314	14.88
217.531	4.23
217.749	-9.36
217.966	-12.91
218.183	-14.59
218.4	-16.91
218.618	-24.93
218.835	-9.03
219.052	-4.51
219.269	-4.63
219.487	-1.22
219.704	2.76
219.921	0.13
220.138	8.36
220.355	12.31
220.572	12.59
220.79	11.11
221.007	19.4
221.224	16.05
221.441	15.61
221.658	13.19
221.875	12.43
222.092	8.4
222.309	11.03
222.526	7.7
222.743	6.65
222.96	1.17
223.177	2.79
223.394	2.22
223.611	2.65
223.828	0.34
224.045	0.12
224.262	2.89
224.479	6.61
224.696	7.99
224.913	8.44
225.13	10.62
225.347	13.79
225.564	14.06
225.781	11.19
225.997	12.17
226.214	11.85
226.431	12.57
226.648	11.15
226.865	10.72
227.082	10.78
227.298	10.8
227.515	10.06
227.732	9.5
227.949	9.51
228.165	9.77
228.382	9.65
228.599	9.53
228.816	9.78
229.032	9.73
229.249	9.6
229.466	9.15
229.682	8.89
229.899	9.23
230.116	9.84
230.332	10.25
230.549	11.31
230.765	11.78
230.982	12.39
231.199	11.96
231.415	12.16
231.632	12.12
231.848	12.2
232.065	12.32
232.281	11.41
232.498	10.11
232.714	10.19
232.931	9.02
233.147	9.31
233.364	9.3
233.58	9.72
233.797	10.4
234.013	10.42
234.23	10.54
234.446	10.82
234.662	11.66
234.879	12.47
235.095	12.02
235.312	13.07
235.528	12.14
235.744	11.33
235.961	11.71
236.177	10.77
236.393	9.7
236.61	10.12
236.826	10.86
237.042	9.96
237.258	10.67
237.475	10.64
237.691	9.14
237.907	8.89
238.123	9.5
238.339	8.5
238.556	9.48
238.772	9.98
238.988	10.05
239.204	9.04
239.42	9.53
239.636	9.62
239.853	9.98
240.069	9.94
240.285	10.22
240.501	10.31
240.717	10.59
240.933	10.66
241.149	10.79
241.365	10.74
241.581	10.91
241.797	10.67
242.013	10.38
242.229	10.04
242.445	10.31
242.661	10.26
242.877	10.08
243.093	10.03
243.309	9.62
243.525	9.29
243.741	8.83
243.957	9.13
244.173	9.62
244.388	9.47
244.604	9.6
244.82	9.61
245.036	9.49
245.252	9.68
245.468	9.57
245.683	9.62
245.899	9.96
246.115	10.19
246.331	10.21
246.547	9.87
246.762	9.76
246.978	9.78
247.194	9.53
247.409	9.52
247.625	9.3
247.841	9.15
248.057	9.02
248.272	8.61
248.488	8.12
248.703	7.5
248.919	7.59
249.135	7.23
249.35	6.99
249.566	7.37
249.782	7.3
249.997	7.62
250.213	7.55
250.428	7.89
250.644	7.82
250.859	8.1
251.075	8.36
251.29	8.28
251.506	8.37
251.721	8.39
251.937	8.11
252.152	7.94
252.368	7.37
252.583	7.6
252.798	7.16
253.014	7.29
253.229	7.45
253.445	6.62
253.66	6.53
253.875	6.27
254.091	5.26
254.306	5.18
254.521	4.52
254.737	4.82
254.952	4.55
255.167	4.64
255.383	4.47
255.598	4.79
255.813	5.41
256.028	5.22
256.244	5.9
256.459	6.62
256.674	6.94
256.889	7.21
257.104	7.41
257.32	7.61
257.535	7.36
257.75	7.41
257.965	7.34
258.18	7.28
258.395	7.18
258.61	7.05
258.826	7.12
259.041	6.96
259.256	6.92
259.471	6.92
259.686	7.02
259.901	7.13
260.116	7.04
260.331	6.81
260.546	6.87
260.761	6.93
260.976	6.89
261.191	6.56
261.406	6.44
261.621	6.53
261.836	6.11
262.05	5.46
262.265	5.07
262.48	5.3
262.695	5.39
262.91	5.42
263.125	5.35
263.34	5.46
263.555	5.78
263.769	5.8
263.984	5.77
264.199	5.84
264.414	5.85
264.629	6.08
264.843	5.59
265.058	5.52
265.273	5.52
265.488	5.82
265.702	5.68
265.917	5.87
266.132	6.03
266.346	6.17
266.561	6.53
266.776	6.64
266.99	6.84
267.205	7.08
267.42	6.89
267.634	6.83
267.849	6.71
268.063	6.65
268.278	6.43
268.492	6.45
268.707	6.26
268.922	6.1
269.136	5.86
269.351	5.62
269.565	5.44
269.78	5.45
269.994	5.2
270.209	5.19
270.423	5.64
270.637	5.64
270.852	5.57
271.066	5.68
271.281	5.6
271.495	5.91
271.709	5.95
271.924	6.1
272.138	6
272.353	6.22
272.567	6.16
272.781	5.74
272.996	5.74
273.21	5.64
273.424	5.54
273.638	5.61
273.853	5.47
274.067	5.23
274.281	5.2
274.495	5.53
274.71	5.4
274.924	5.43
275.138	5.33
275.352	5.17
275.566	5.35
275.781	5.38
275.995	5.39
276.209	5.45
276.423	5.35
276.637	4.97
276.851	4.79
277.065	4.85
277.279	4.81
277.493	5.08
277.707	5.22
277.921	5.1
278.135	5.4
278.349	5.2
278.563	5.03
278.777	4.92
278.991	5.25
279.205	5.4
279.419	5.47
279.633	5.47
279.847	5.41
280.061	5.45
280.275	5.54
280.489	5.37
280.703	5.48
280.917	5.51
281.131	5.98
281.344	5.92
281.558	5.66
281.772	5.57
281.986	5.58
282.2	5.51
282.414	5.52
282.627	5.58
282.841	5.59
283.055	5.54
283.269	5.65
283.482	5.41
283.696	5.54
283.91	5.93
284.123	5.84
284.337	5.74
284.551	5.76
284.764	5.69
284.978	5.65
285.192	5.52
285.405	5.72
285.619	5.72
285.833	5.68
286.046	5.51
286.26	5.37
286.473	5.31
286.687	5.36
286.9	5.45
287.114	5.26
287.327	5.33
287.541	5.21
287.754	4.83
287.968	4.52
288.181	4.63
288.395	4.64
288.608	4.55
288.822	4.77
289.035	4.89
289.248	4.88
289.462	5.12
289.675	4.94
289.889	5.2
290.102	5.31
290.315	5.42
290.529	5.28
290.742	5.34
290.955	5.45
291.169	5.43
291.382	5.12
291.595	5.03
291.808	4.95
292.022	5.01
292.235	4.79
292.448	4.97
292.661	5.04
292.875	5.22
293.088	5.27
293.301	5.15
293.514	4.96
293.727	5.21
293.94	5.27
294.153	5.22
294.367	5.08
294.58	4.97
294.793	4.74
295.006	4.79
295.219	4.83
295.432	4.83
295.645	4.91
295.858	4.91
296.071	4.91
296.284	4.94
296.497	5.04
296.71	5.07
296.923	5.36
297.136	5.58
297.349	5.63
297.562	5.46
297.775	5.38
297.988	5.29
298.201	5.27
298.414	5.09
298.626	5.05
298.839	4.88
299.052	4.92
299.265	4.49
299.478	4.16
299.691	4.03
299.903	4.13
300.116	4.21
300.329	4.37
300.542	4.47
300.755	4.62
300.967	4.54
301.18	4.64
301.393	4.61
301.605	4.7
301.818	4.58
302.031	4.68
302.243	4.55
302.456	4.65
302.669	4.55
302.881	4.42
303.094	4.32
303.307	4.47
303.519	4.41
303.732	4.62
303.944	4.82
304.157	5.04
304.37	5.08
304.582	5.34
304.795	5.18
305.007	5.17
305.22	5.44
305.432	5.55
305.645	5.53
305.857	5.6
306.069	5.44
306.282	5.23
306.494	5.3
306.707	5.25
306.919	5.3
307.132	5.16
307.344	5.19
307.556	5.22
307.769	5.27
307.981	5.42
308.193	5.47
308.406	5.4
308.618	5.64
308.83	5.52
309.043	5.57
309.255	5.45
309.467	5.59
309.679	5.67
309.892	5.52
310.104	5.45
310.316	5.3
310.528	5.19
310.74	5.51
310.953	5.45
311.165	5.66
311.377	5.48
311.589	5.49
311.801	5.39
312.013	5.33
312.225	5.48
312.437	5.57
312.649	5.55
312.862	5.65
313.074	5.39
313.286	5.38
313.498	5.36
313.71	5.86
313.922	5.81
314.134	5.78
314.346	5.85
314.558	6.01
314.77	5.91
314.982	6.01
315.193	6.05
315.405	5.98
315.617	5.89
315.829	5.75
316.041	5.55
316.253	5.56
316.465	5.71
316.677	5.55
316.888	5.5
317.1	5.61
317.312	5.75
317.524	5.82
317.736	6.09
317.947	6.18
318.159	6.24
318.371	6.05
318.583	6.2
318.794	6.41
319.006	6.7
319.218	6.64
319.43	6.66
319.641	6.53
319.853	6.65
320.064	6.44
320.276	6.68
320.488	6.75
320.699	6.98
320.911	7.29
321.123	7.52
321.334	7.33
321.546	7.25
321.757	7.51
321.969	7.64
322.18	7.49
322.392	7.67
322.603	7.53
322.815	7.54
323.026	7.51
323.238	7.35
323.449	7.38
323.661	7.61
323.872	7.9
324.083	7.99
324.295	7.98
324.506	8
324.718	7.97
324.929	8.09
325.14	8.39
325.352	8.61
325.563	8.92
325.774	8.89
325.986	8.95
326.197	9.03
326.408	8.98
326.62	9.32
326.831	9.65
327.042	10.12
327.253	10.43
327.464	10.57
327.676	10.6
327.887	10.78
328.098	10.73
328.309	10.94
328.52	11.07
328.732	11.56
328.943	11.73
329.154	12.1
329.365	11.9
329.576	12.12
329.787	11.96
329.998	12.26
330.209	12.28
330.42	12.71
330.631	12.9
330.842	12.96
331.053	12.81
331.264	12.76
331.475	12.81
331.686	13.1
331.897	13.24
332.108	13.45
332.319	13.36
332.53	13.47
332.741	13.34
332.952	13.4
333.163	13.51
333.374	13.8
333.585	13.98
333.795	13.97
334.006	13.94
334.217	14.01
334.428	14.26
334.639	14.4
334.849	14.29
335.06	14.63
335.271	14.65
335.482	14.66
335.692	14.65
335.903	14.6
336.114	14.6
336.325	14.75
336.535	14.71
336.746	14.56
336.957	14.69
337.167	14.69
337.378	14.55
337.589	14.6
337.799	14.73
338.01	14.59
338.22	14.6
338.431	14.64
338.642	14.62
338.852	14.34
339.063	14.36
339.273	14.27
339.484	14.42
339.694	14.52
339.905	14.42
340.115	14.25
340.326	14.22
340.536	14.29
340.746	14.32
340.957	14.34
341.167	14.56
341.378	14.61
341.588	14.71
341.799	14.58
342.009	14.51
342.219	14.64
342.43	14.76
342.64	14.6
342.85	14.45
343.061	14.47
343.271	14.46
343.481	14.49
343.691	14.44
343.902	14.19
344.112	14.12
344.322	14.12
344.532	14.04
344.743	14.01
344.953	14.13
345.163	14.26
345.373	14.16
345.583	14.07
345.793	13.93
346.004	14.04
346.214	14.22
346.424	14.36
346.634	14.39
346.844	14.48
347.054	14.64
347.264	14.9
347.474	14.75
347.684	14.64
347.894	14.71
348.104	14.78
348.314	14.67
348.524	14.79
348.734	14.85
348.944	14.73
349.154	14.58
349.364	14.36
349.574	14.12
349.784	14.1
349.994	14.12
350.204	14.01
350.413	13.93
350.623	13.98
350.833	13.73
351.043	13.57
351.253	13.74
351.463	13.85
351.672	13.65
351.882	13.71
352.092	13.69
352.302	13.73
352.511	13.72
352.721	13.74
352.931	13.71
353.141	13.69
353.35	13.73
353.56	13.55
353.77	13.57
353.979	13.81
354.189	13.82
354.399	13.92
354.608	13.81
354.818	13.93
355.027	13.95
355.237	13.9
355.447	13.95
355.656	13.93
355.866	13.92
356.075	13.84
356.285	13.79
356.494	13.75
356.704	13.77
356.913	13.88
357.123	13.81
357.332	13.82
357.542	13.83
357.751	13.87
357.96	13.87
358.17	14
358.379	14.07
358.589	14.06
358.798	14.1
359.007	14.01
359.217	13.97
359.426	13.99
359.635	13.99
359.845	13.93
360.054	13.91
360.263	13.86
360.472	13.73
360.682	13.63
360.891	13.71
361.1	13.68
361.309	13.68
361.519	13.61
361.728	13.61
361.937	13.57
362.146	13.64
362.355	13.55
362.564	13.54
362.774	13.58
362.983	13.44
363.192	13.26
363.401	13.22
363.61	13.15
363.819	13.17
364.028	13.15
364.237	13.1
364.446	13.06
364.655	13.06
364.864	13.09
365.073	13.09
365.282	13.21
365.491	13.29
365.7	13.3
365.909	13.4
366.118	13.48
366.327	13.36
366.536	13.38
366.745	13.27
366.954	13.28
367.162	13.27
367.371	13.1
367.58	13.09
367.789	13.08
367.998	13.02
368.207	13.14
368.415	13.11
368.624	13.16
368.833	13.05
369.042	13.15
369.25	13.18
369.459	13.27
369.668	13.34
369.877	13.29
370.085	13.33
370.294	13.27
370.503	13.08
370.711	13.03
370.92	12.91
371.129	12.86
371.337	12.79
371.546	12.65
371.754	12.53
371.963	12.72
372.171	12.74
372.38	12.62
372.589	12.72
372.797	12.73
373.006	12.71
373.214	12.7
373.423	12.86
373.631	12.79
373.84	12.93
374.048	12.99
374.256	12.87
374.465	12.84
374.673	12.83
374.882	12.75
375.09	12.68
375.298	12.73
375.507	12.74
375.715	12.71
375.923	12.75
376.132	12.67
376.34	12.52
376.548	12.42
376.757	12.41
376.965	12.44
377.173	12.5
377.381	12.52
377.59	12.44
377.798	12.42
378.006	12.37
378.214	12.33
378.423	12.34
378.631	12.39
378.839	12.38
379.047	12.42
379.255	12.35
379.463	12.38
379.671	12.3
379.879	12.35
380.088	12.42
380.296	12.5
380.504	12.55
380.712	12.57
380.92	12.62
381.128	12.68
381.336	12.68
381.544	12.71
381.752	12.57
381.96	12.62
382.168	12.49
382.376	12.5
382.584	12.32
382.791	12.3
382.999	12.13
383.207	12.16
383.415	12.18
383.623	12.23
383.831	12.19
384.039	12.27
384.247	12.28
384.454	12.35
384.662	12.3
384.87	12.41
385.078	12.37
385.285	12.54
385.493	12.46
385.701	12.34
385.909	12.24
386.116	12.23
386.324	12.17
386.532	12.14
386.739	12.06
386.947	11.91
387.155	11.88
387.362	11.9
387.57	11.87
387.778	11.83
387.985	11.89
388.193	11.89
388.4	12
388.608	11.98
388.816	11.95
389.023	12
389.231	12.09
389.438	12.15
389.646	12.05
389.853	12.1
390.061	12.14
390.268	12.12
390.475	12.07
390.683	11.98
390.89	11.91
391.098	11.98
391.305	12
391.512	11.92
391.72	11.85
391.927	11.77
392.135	11.69
392.342	11.69
392.549	11.72
392.756	11.65
392.964	11.66
393.171	11.73
393.378	11.65
393.586	11.63
393.793	11.68
394	11.63
394.207	11.76
394.414	11.83
394.622	11.79
394.829	11.71
395.036	11.73
395.243	11.75
395.45	11.67
395.657	11.68
395.864	11.58
396.072	11.55
396.279	11.58
396.486	11.52
396.693	11.46
396.9	11.49
397.107	11.4
397.314	11.39
397.521	11.27
397.728	11.21
397.935	11.23
398.142	11.19
398.349	11.2
398.556	11.21
398.763	11.27
398.97	11.18
399.177	11.14
399.383	11.31
399.59	11.25
399.797	11.31
400.004	11.34
400.211	11.27
400.418	11.36
400.625	11.33
400.831	11.27
401.038	11.24
401.245	11.22
401.452	11.18
401.658	11.05
401.865	11.13
402.072	11.19
402.279	11.15
402.485	11.13
402.692	11.07
402.899	11.07
403.105	11.21
403.312	11.21
403.519	11.22
403.725	11.25
403.932	11.35
404.138	11.32
404.345	11.21
404.552	11.25
404.758	11.23
404.965	11.21
405.171	11.2
405.378	11.07
405.584	10.99
405.791	11
405.997	10.96
406.204	10.79
406.41	10.78
406.617	10.82
406.823	10.79
407.029	10.79
407.236	10.83
407.442	10.77
407.649	10.91
407.855	10.94
408.061	10.94
408.268	10.93
408.474	10.98
408.68	10.99
408.887	10.92
409.093	10.88
409.299	10.91
409.505	10.89
409.712	10.94
409.918	10.76
410.124	10.79
410.33	10.73
410.537	10.74
410.743	10.75
410.949	10.82
411.155	10.92
411.361	10.9
411.567	10.81
411.773	10.76
411.98	10.73
412.186	10.73
412.392	10.72
412.598	10.73
412.804	10.73
413.01	10.74
413.216	10.61
413.422	10.59
413.628	10.61
413.834	10.66
414.04	10.72
414.246	10.73
414.452	10.78
414.658	10.75
414.864	10.74
415.07	10.74
415.275	10.72
415.481	10.68
415.687	10.54
415.893	10.6
416.099	10.66
416.305	10.65
416.511	10.67
416.716	10.6
416.922	10.56
417.128	10.56
417.334	10.56
417.539	10.59
417.745	10.61
417.951	10.67
418.157	10.64
418.362	10.59
418.568	10.55
418.774	10.48
418.979	10.52
419.185	10.54
419.391	10.55
419.596	10.53
419.802	10.49
420.008	10.47
420.213	10.82
420.419	10.8
420.624	10.81
420.83	10.81
421.035	10.83
421.241	10.82
421.446	10.83
421.652	10.76
421.857	10.74
422.063	10.72
422.268	10.72
422.474	10.39
422.679	10.41
422.885	10.39
423.09	10.41
423.295	10.41
423.501	10.41
423.706	10.37
423.911	10.39
424.117	10.39
424.322	10.45
424.527	10.46
424.733	10.39
424.938	10.38
425.143	10.4
425.349	10.4
425.554	10.4
425.759	10.4
425.964	10.42
426.169	10.44
426.375	10.48
426.58	10.41
426.785	10.38
426.99	10.44
427.195	10.42
427.4	10.37
427.605	10.32
427.811	10.37
428.016	10.34
428.221	10.37
428.426	10.33
428.631	10.3
428.836	10.27
429.041	10.32
429.246	10.33
429.451	10.38
429.656	10.41
429.861	10.38
430.066	10.42
430.271	10.43
430.476	10.38
430.681	10.32
430.886	10.33
431.09	10.4
431.295	10.35
431.5	10.34
431.705	10.28
431.91	10.21
432.115	10.22
432.32	10.17
432.524	10.17
432.729	10.18
432.934	10.3
433.139	10.32
433.343	10.32
433.548	10.33
433.753	10.36
433.958	10.4
434.162	10.41
434.367	10.47
434.572	10.41
434.776	10.44
434.981	10.43
435.186	10.35
435.39	10.29
435.595	10.28
435.799	10.31
436.004	10.28
436.209	10.27
436.413	10.33
436.618	10.26
436.822	10.27
437.027	10.23
437.231	10.22
437.436	10.2
437.64	10.2
437.845	10.15
438.049	10.15
438.253	10.11
438.458	10.11
438.662	10.14
438.867	10.19
439.071	10.23
439.275	10.25
439.48	10.28
439.684	10.34
439.888	10.34
440.093	10.37
440.297	10.35
440.501	10.37
440.706	10.38
440.91	10.38
441.114	10.38
441.318	10.38
441.523	10.39
441.727	10.36
441.931	10.32
442.135	10.35
442.339	10.34
442.543	10.3
442.748	10.23
442.952	10.2
443.156	10.15
443.36	10.14
443.564	10.13
443.768	10.1
443.972	10.13
444.176	10.13
444.38	10.13
444.584	10.14
444.788	10.12
444.992	10.16
445.196	10.19
445.4	10.2
445.604	10.18
445.808	10.17
446.012	10.17
446.216	10.15
446.42	10.11
446.624	10.08
446.828	10.05
447.032	10.09
447.235	10.09
447.439	10.08
447.643	10.05
447.847	10.09
448.051	10.08
448.254	10.09
448.458	10.06
448.662	10.13
448.866	10.11
449.069	10.13
449.273	10.17
449.477	10.19
449.681	10.18
449.884	10.21
450.088	10.16
450.292	10.21
450.495	10.23
450.699	10.26
450.902	10.25
451.106	10.3
451.31	10.3
451.513	10.27
451.717	10.24
451.92	10.19
452.124	10.16
452.327	10.2
452.531	10.18
452.734	10.18
452.938	10.13
453.141	10.09
453.345	10.07
453.548	10.08
453.752	10.09
453.955	10.12
454.158	10.14
454.362	10.16
454.565	10.12
454.769	10.1
454.972	10.05
455.175	10.1
455.379	10.13
455.582	10.11
455.785	10.12
455.988	10.05
456.192	10.03
456.395	9.99
456.598	10.04
456.801	10.03
457.005	10.01
457.208	9.99
457.411	9.98
457.614	9.97
457.817	9.98
458.021	9.94
458.224	9.97
458.427	9.97
458.63	9.98
458.833	9.93
459.036	9.96
459.239	9.98
459.442	9.99
459.645	10.01
459.848	10.02
460.051	10
460.254	9.99
460.457	9.99
460.66	10
460.863	10
461.066	10.03
461.269	9.99
461.472	10.02
461.675	10.04
461.878	10.05
462.081	10.01
462.284	10.07
462.486	10.09
462.689	10.08
462.892	10.12
463.095	10.13
463.298	10.1
463.5	10.14
463.703	10.13
463.906	10.17
464.109	10.17
464.311	10.21
464.514	10.16
464.717	10.18
464.92	10.19
465.122	10.19
465.325	10.2
465.528	10.18
465.73	10.14
465.933	10.12
466.135	10.13
466.338	10.07
466.541	10.07
466.743	10.1
466.946	10.12
467.148	10.17
467.351	10.15
467.553	10.19
467.756	10.24
467.958	10.31
468.161	10.32
468.363	10.26
468.566	10.25
468.768	10.23
468.971	10.23
469.173	10.23
469.375	10.14
469.578	10.15
469.78	10.1
469.983	10.15
470.185	10.1
470.387	10.09
470.59	10.09
470.792	10.15
470.994	10.17
471.196	10.21
471.399	10.17
471.601	10.21
471.803	10.2
472.005	10.22
472.208	10.17
472.41	10.17
472.612	10.18
472.814	10.18
473.016	10.19
473.218	10.17
473.421	10.13
473.623	10.12
473.825	10.12
474.027	10.14
474.229	10.11
474.431	10.05
474.633	10.05
474.835	10.05
475.037	10.08
475.239	10.09
475.441	10.11
475.643	10.13
475.845	10.19
476.047	10.24
476.249	10.2
476.451	10.24
476.653	10.28
476.855	10.27
477.057	10.22
477.258	10.25
477.46	10.24
477.662	10.22
477.864	10.19
478.066	10.13
478.268	10.11
478.469	10.11
478.671	10.09
478.873	10.02
479.075	10.02
479.276	10.09
479.478	10.08
479.68	10.05
479.882	10.07
480.083	10.12
480.285	10.15
480.487	10.1
480.688	10.1
480.89	10.12
481.091	10.16
481.293	10.19
481.495	10.16
481.696	10.14
481.898	10.14
482.099	10.12
482.301	10.1
482.502	10.1
482.704	10.12
482.905	10.1
483.107	10.08
483.308	10.07
483.51	10.06
483.711	10.05
483.913	10.03
484.114	10.04
484.315	10.05
484.517	10.06
484.718	10.07
484.92	10.06
485.121	10.08
485.322	10.09
485.524	10.09
485.725	10.1
485.926	10.13
486.127	10.15
486.329	10.17
486.53	10.17
486.731	10.16
486.932	10.15
487.134	10.13
487.335	10.14
487.536	10.15
487.737	10.18
487.938	10.18
488.139	10.17
488.341	10.16
488.542	10.15
488.743	10.13
488.944	10.14
489.145	10.14
489.346	10.17
489.547	10.17
489.748	10.19
489.949	10.16
490.15	10.16
490.351	10.17
490.552	10.18
490.753	10.18
490.954	10.2
491.155	10.21
491.356	10.19
491.557	10.17
491.758	10.2
491.959	10.16
492.159	10.14
492.36	10.15
492.561	10.15
492.762	10.17
492.963	10.18
493.164	10.16
493.364	10.14
493.565	10.17
493.766	10.23
493.967	10.24
494.167	10.28
494.368	10.32
494.569	10.32
494.769	10.3
494.97	10.28
495.171	10.3
495.371	10.31
495.572	10.33
495.773	10.32
495.973	10.29
496.174	10.28
496.375	10.32
496.575	10.31
496.776	10.36
496.976	10.42
497.177	10.48
497.377	10.44
497.578	10.5
497.778	10.52
497.979	10.59
498.179	10.64
498.38	10.65
498.58	10.66
498.78	10.71
498.981	10.7
499.181	10.69
499.382	10.63
499.582	10.71
499.782	10.69
499.983	10.72
500.183	10.72
500.383	10.73
500.584	10.71
500.784	10.7
500.984	10.71
501.184	10.68
501.385	10.72
501.585	10.75
501.785	10.79
501.985	10.8
502.185	10.74
502.386	10.71
502.586	10.75
502.786	10.81
502.986	10.87
503.186	10.87
503.386	10.92
503.586	10.91
503.786	10.93
503.987	10.94
504.187	10.98
504.387	11.09
504.587	11.15
504.787	11.15
504.987	11.17
505.187	11.15
505.387	11.16
505.587	11.18
505.786	11.25
505.986	11.25
506.186	11.25
506.386	11.27
506.586	11.28
506.786	11.34
506.986	11.35
507.186	11.38
507.386	11.43
507.585	11.48
507.785	11.5
507.985	11.5
508.185	11.55
508.384	11.6
508.584	11.61
508.784	11.62
508.984	11.62
509.183	11.68
509.383	11.74
509.583	11.73
509.782	11.76
509.982	11.8
510.182	11.85
510.381	11.86
510.581	11.88
510.781	11.89
510.98	11.92
511.18	11.92
511.379	11.91
511.579	11.91
511.778	11.94
511.978	11.97
512.177	11.99
512.377	12.04
512.576	12.07
512.776	12.12
512.975	12.14
513.175	12.2
513.374	12.23
513.573	12.31
513.773	12.37
513.972	12.43
514.172	12.5
514.371	12.53
514.57	12.5
514.77	12.59
514.969	12.63
515.168	12.7
515.367	12.74
515.567	12.78
515.766	12.79
515.965	12.82
516.164	12.84
516.364	12.85
516.563	12.91
516.762	12.97
516.961	12.99
517.16	13.01
517.359	13.03
517.559	13.06
517.758	13.12
517.957	13.17
518.156	13.2
518.355	13.25
518.554	13.28
518.753	13.31
518.952	13.32
519.151	13.37
519.35	13.43
519.549	13.47
519.748	13.5
519.947	13.53
520.146	13.57
520.345	13.6
520.544	13.66
520.743	13.72
520.942	13.75
521.141	13.83
521.339	13.85
521.538	13.89
521.737	13.94
521.936	13.98
522.135	14
522.333	14.09
522.532	14.1
522.731	14.14
522.93	14.17
523.129	14.24
523.327	14.27
523.526	14.3
523.725	14.29
523.923	14.34
524.122	14.38
524.321	14.43
524.519	14.44
524.718	14.45
524.917	14.45
525.115	14.49
525.314	14.54
525.512	14.57
525.711	14.62
525.909	14.7
526.108	14.73
526.306	14.76
526.505	14.81
526.703	14.85
526.902	14.92
527.1	14.97
527.299	14.99
527.497	15.01
527.696	15.04
527.894	15.08
528.092	15.09
528.291	15.11
528.489	15.18
528.688	15.19
528.886	15.23
529.084	15.26
529.283	15.29
529.481	15.35
529.679	15.37
529.877	15.4
530.076	15.46
530.274	15.55
530.472	15.62
530.67	15.65
530.869	15.71
531.067	15.75
531.265	15.79
531.463	15.85
531.661	15.87
531.859	15.92
532.057	15.99
532.255	16.01
532.454	16.03
532.652	16.06
532.85	16.07
533.048	16.1
533.246	16.13
533.444	16.17
533.642	16.19
533.84	16.26
534.038	16.34
534.236	16.38
534.434	16.43
534.632	16.47
534.83	16.5
535.027	16.56
535.225	16.63
535.423	16.7
535.621	16.74
535.819	16.78
536.017	16.77
536.215	16.8
536.412	16.82
536.61	16.81
536.808	16.82
537.006	16.87
537.203	16.89
537.401	16.93
537.599	16.95
537.797	17.01
537.994	17.06
538.192	17.14
538.39	17.21
538.587	17.23
538.785	17.32
538.983	17.4
539.18	17.45
539.378	17.52
539.575	17.55
539.773	17.6
539.97	17.64
540.168	17.69
540.366	17.68
540.563	17.69
540.761	17.75
540.958	17.77
541.155	17.82
541.353	17.85
541.55	17.9
541.748	17.96
541.945	17.98
542.143	18
542.34	18.02
542.537	18.08
542.735	18.16
542.932	18.2
543.129	18.28
543.327	18.34
543.524	18.37
543.721	18.4
543.919	18.46
544.116	18.51
544.313	18.63
544.51	18.72
544.708	18.78
544.905	18.78
545.102	18.83
545.299	18.86
545.496	18.89
545.693	18.99
545.891	19.02
546.088	19.06
546.285	19.1
546.482	19.1
546.679	19.11
546.876	19.18
547.073	19.29
547.27	19.35
547.467	19.4
547.664	19.47
547.861	19.52
548.058	19.54
548.255	19.6
548.452	19.68
548.649	19.77
548.846	19.88
549.043	19.88
549.24	19.91
549.437	19.9
549.633	19.94
549.83	20
550.027	20.01
550.224	20.12
550.421	20.16
550.618	20.19
550.814	20.25
551.011	20.26
551.208	20.39
551.405	20.49
551.601	20.57
551.798	20.62
551.995	20.6
552.191	20.69
552.388	20.7
552.585	20.76
552.781	20.8
552.978	20.83
553.175	20.86
553.371	20.85
553.568	20.87
553.764	20.96
553.961	21.05
554.157	21.18
554.354	21.21
554.55	21.31
554.747	21.37
554.943	21.46
555.14	21.52
555.336	21.58
555.533	21.69
555.729	21.75
555.926	21.77
556.122	21.77
556.318	21.76
556.515	21.78
556.711	21.78
556.907	21.8
557.104	21.87
557.3	21.93
557.496	21.99
557.693	21.99
557.889	22.01
558.085	22.08
558.281	22.18
558.478	22.26
558.674	22.37
558.87	22.41
559.066	22.46
559.262	22.51
559.459	22.51
559.655	22.6
559.851	22.69
560.047	22.74
560.243	22.81
560.439	22.86
560.635	22.88
560.831	22.87
561.027	22.95
561.223	23.01
561.419	23.05
561.615	23.18
561.811	23.18
562.007	23.21
562.203	23.29
562.399	23.34
562.595	23.37
562.791	23.41
562.987	23.48
563.183	23.54
563.379	23.63
563.575	23.66
563.771	23.68
563.966	23.75
564.162	23.85
564.358	23.9
564.554	23.88
564.75	23.99
564.945	24.04
565.141	24.1
565.337	24.13
565.533	24.19
565.728	24.24
565.924	24.26
566.12	24.3
566.315	24.32
566.511	24.36
566.707	24.43
566.902	24.43
567.098	24.47
567.293	24.48
567.489	24.48
567.684	24.44
567.88	24.45
568.076	24.5
568.271	24.54
568.467	24.58
568.662	24.62
568.858	24.67
569.053	24.7
569.248	24.73
569.444	24.8
569.639	24.84
569.835	24.92
570.03	24.98
570.225	25.02
570.421	25.1
570.616	25.14
570.812	25.15
571.007	25.17
571.202	25.26
571.397	25.27
571.593	25.27
571.788	25.33
571.983	25.39
572.178	25.42
572.374	25.47
572.569	25.47
572.764	25.48
572.959	25.52
573.154	25.5
573.35	25.53
573.545	25.6
573.74	25.66
573.935	25.68
574.13	25.73
574.325	25.79
574.52	25.78
574.715	25.76
574.91	25.77
575.105	25.86
575.3	25.93
575.495	25.94
575.69	26.02
575.885	26.06
576.08	26.1
576.275	26.12
576.47	26.13
576.665	26.16
576.86	26.24
577.055	26.32
577.25	26.28
577.444	26.32
577.639	26.32
577.834	26.31
578.029	26.28
578.224	26.3
578.418	26.33
578.613	26.35
578.808	26.43
579.003	26.5
579.197	26.48
579.392	26.53
579.587	26.6
579.781	26.62
579.976	26.62
580.171	26.75
580.365	26.82
580.56	26.8
580.755	26.81
580.949	26.81
581.144	26.82
581.338	26.82
581.533	26.81
581.727	26.86
581.922	26.9
582.116	26.92
582.311	26.86
582.505	26.87
582.7	26.85
582.894	26.84
583.089	26.84
583.283	26.84
583.478	26.82
583.672	26.93
583.866	26.89
584.061	26.86
584.255	26.88
584.449	26.91
584.644	26.95
584.838	27.03
585.032	27.1
585.226	27.12
585.421	27.15
585.615	27.3
585.809	27.28
586.003	27.29
586.198	27.34
586.392	27.43
586.586	27.46
586.78	27.47
586.974	27.5
587.168	27.52
587.363	27.49
587.557	27.5
587.751	27.56
587.945	27.51
588.139	27.54
588.333	27.53
588.527	27.49
588.721	27.58
588.915	27.61
589.109	27.62
589.303	27.61
589.497	27.74
589.691	27.76
589.885	27.71
590.079	27.8
590.273	27.8
590.466	27.87
590.66	27.9
590.854	27.84
591.048	27.84
591.242	27.81
591.436	27.86
591.629	27.76
591.823	27.74
592.017	27.73
592.211	27.66
592.404	27.73
592.598	27.72
592.792	27.73
592.986	27.8
593.179	27.84
593.373	27.92
593.567	27.96
593.76	28.02
593.954	27.98
594.147	28.01
594.341	28.05
594.535	28.02
594.728	28.01
594.922	28.04
595.115	28.01
595.309	28.04
595.502	28.01
595.696	27.91
595.889	27.92
596.083	27.95
596.276	27.89
596.47	27.89
596.663	27.9
596.856	27.89
597.05	27.92
597.243	27.96
597.437	27.96
597.63	27.98
597.823	28.12
598.017	28.14
598.21	28.09
598.403	28.15
598.596	28.24
598.79	28.23
598.983	28.31
599.176	28.32
599.369	28.33
599.563	28.21
599.756	28.26
599.949	28.19
600.142	28.2
600.335	28.39
600.528	28.41
600.722	28.42
600.915	28.51
601.108	28.5
601.301	28.49
601.494	28.49
601.687	28.59
601.88	28.61
602.073	28.6
602.266	28.57
602.459	28.51
602.652	28.53
602.845	28.52
603.038	28.55
603.231	28.51
603.424	28.49
603.617	28.49
603.809	28.49
604.002	28.47
604.195	28.53
604.388	28.54
604.581	28.53
604.774	28.52
604.966	28.52
605.159	28.47
605.352	28.61
605.545	28.63
605.737	28.64
605.93	28.62
606.123	28.62
606.316	28.63
606.508	28.67
606.701	28.76
606.894	28.8
607.086	28.85
607.279	28.89
607.471	28.87
607.664	28.84
607.857	28.8
608.049	28.86
608.242	28.89
608.434	28.88
608.627	28.96
608.819	29
609.012	28.98
609.204	28.9
609.397	28.91
609.589	28.91
609.782	28.95
609.974	29.03
610.166	29.09
610.359	29.16
610.551	29.21
610.743	29.23
610.936	29.16
611.128	29.21
611.32	29.28
611.513	29.34
611.705	29.4
611.897	29.39
612.09	29.39
612.282	29.37
612.474	29.34
612.666	29.32
612.858	29.18
613.051	29.17
613.243	29.15
613.435	29.19
613.627	29.12
613.819	29.02
614.011	29.14
614.203	29.11
614.395	29.04
614.588	28.93
614.78	28.91
614.972	28.97
615.164	28.95
615.356	28.88
615.548	28.86
615.74	28.94
615.932	28.97
616.124	28.85
616.315	28.88
616.507	28.91
616.699	28.98
616.891	29.02
617.083	29.06
617.275	29.13
617.467	29.18
617.659	29.21
617.85	29.16
618.042	29.18
618.234	29.24
618.426	29.2
618.618	29.28
618.809	29.33
619.001	29.28
619.193	29.29
619.384	29.26
619.576	29.27
619.768	29.25
619.959	29.29
620.151	29.3
620.343	29.29
620.534	29.27
620.726	29.19
620.917	29.2
621.109	29.19
621.301	29.18
621.492	29.19
621.684	29.11
621.875	29.13
622.067	29.05
622.258	29.06
622.45	29.07
622.641	29.09
622.832	29.19
623.024	29.13
623.215	29.17
623.407	29.2
623.598	29.31
623.789	29.42
623.981	29.35
624.172	29.45
624.363	29.36
624.555	29.33
624.746	29.37
624.937	29.29
625.129	29.26
625.32	29.25
625.511	29.24
625.702	29.22
625.893	29.23
626.085	29.26
626.276	29.25
626.467	29.3
626.658	29.35
626.849	29.36
627.04	29.35
627.231	29.44
627.422	29.45
627.614	29.44
627.805	29.47
627.996	29.52
628.187	29.46
628.378	29.43
628.569	29.45
628.76	29.42
628.951	29.45
629.142	29.48
629.332	29.47
629.523	29.58
629.714	29.59
629.905	29.55
630.096	29.45
630.287	29.6
630.478	29.6
630.669	29.6
630.859	29.54
631.05	29.5
631.241	29.57
631.432	29.48
631.623	29.41
631.813	29.4
632.004	29.3
632.195	29.48
632.385	29.34
632.576	29.38
632.767	29.38
632.957	29.41
633.148	29.42
633.339	29.34
633.529	29.36
633.72	29.4
633.91	29.38
634.101	29.46
634.292	29.35
634.482	29.37
634.673	29.31
634.863	29.36
635.054	29.38
635.244	29.35
635.435	29.42
635.625	29.44
635.815	29.41
636.006	29.43
636.196	29.47
636.387	29.45
636.577	29.46
636.767	29.5
636.958	29.46
637.148	29.48
637.338	29.57
637.529	29.53
637.719	29.54
637.909	29.56
638.099	29.59
638.29	29.56
638.48	29.61
638.67	29.64
638.86	29.64
639.05	29.68
639.241	29.7
639.431	29.55
639.621	29.51
639.811	29.57
640.001	29.49
640.191	29.42
640.381	29.43
640.571	29.43
640.761	29.51
640.951	29.41
641.141	29.45
641.331	29.49
641.521	29.59
641.711	29.58
641.901	29.49
642.091	29.59
642.281	29.62
642.471	29.6
642.661	29.51
642.851	29.46
643.041	29.6
643.231	29.49
643.42	29.39
643.61	29.35
643.8	29.42
643.99	29.45
644.18	29.35
644.369	29.36
644.559	29.4
644.749	29.45
644.939	29.34
645.128	29.25
645.318	29.3
645.508	29.39
645.697	29.42
645.887	29.49
646.076	29.51
646.266	29.51
646.456	29.54
646.645	29.46
646.835	29.45
647.024	29.57
647.214	29.65
647.403	29.57
647.593	29.63
647.782	29.68
647.972	29.67
648.161	29.58
648.351	29.62
648.54	29.62
648.73	29.66
648.919	29.74
649.108	29.65
649.298	29.6
649.487	29.62
649.677	29.63
649.866	29.62
650.055	29.58
650.244	29.57
650.434	29.52
650.623	29.51
650.812	29.43
651.002	29.38
651.191	29.43
651.38	29.47
651.569	29.55
651.758	29.46
651.947	29.42
652.137	29.33
652.326	29.37
652.515	29.46
652.704	29.45
652.893	29.59
653.082	29.61
653.271	29.6
653.46	29.69
653.649	29.62
653.838	29.6
654.027	29.6
654.216	29.66
654.405	29.7
654.594	29.68
654.783	29.65
654.972	29.62
655.161	29.58
655.35	29.64
655.539	29.55
655.728	29.62
655.916	29.55
656.105	29.62
656.294	29.74
656.483	29.61
656.672	29.7
656.86	29.75
657.049	29.66
657.238	29.78
657.427	29.75
657.615	29.8
657.804	29.74
657.993	29.82
658.181	29.79
658.37	29.74
658.559	29.84
658.747	29.79
658.936	29.76
659.125	29.8
659.313	29.72
659.502	29.69
659.69	29.62
659.879	29.66
660.067	29.7
660.256	29.67
660.444	29.67
660.633	29.71
660.821	29.69
661.01	29.73
661.198	29.7
661.387	29.69
661.575	29.75
661.763	29.85
661.952	29.87
662.14	29.83
662.328	29.86
662.517	29.9
662.705	29.81
662.893	29.77
663.082	29.73
663.27	29.73
663.458	29.65
663.646	29.64
663.834	29.64
664.023	29.64
664.211	29.68
664.399	29.68
664.587	29.67
664.775	29.7
664.963	29.74
665.152	29.71
665.34	29.81
665.528	29.9
665.716	29.86
665.904	29.72
666.092	29.72
666.28	29.68
666.468	29.77
666.656	29.73
666.844	29.77
667.032	29.79
667.22	29.85
667.408	29.82
667.596	29.81
667.784	29.87
667.971	29.93
668.159	29.84
668.347	29.77
668.535	29.65
668.723	29.67
668.911	29.65
669.098	29.6
669.286	29.64
669.474	29.58
669.662	29.53
669.849	29.63
670.037	29.59
670.225	29.69
670.413	29.77
670.6	29.93
670.788	29.77
670.976	29.79
671.163	29.76
671.351	29.62
671.538	29.71
671.726	29.85
671.913	29.82
672.101	29.79
672.289	29.77
672.476	29.75
672.664	29.64
672.851	29.78
673.039	29.67
673.226	29.65
673.413	29.77
673.601	29.77
673.788	29.72
673.976	29.53
674.163	29.54
674.35	29.56
674.538	29.58
674.725	29.49
674.912	29.51
675.1	29.59
675.287	29.68
675.474	29.69
675.662	29.8
675.849	29.8
676.036	29.93
676.223	30.06
676.411	29.98
676.598	29.98
676.785	30.17
676.972	30.1
677.159	30.18
677.346	30.22
677.533	30.12
677.721	29.93
677.908	29.89
678.095	29.83
678.282	29.76
678.469	29.91
678.656	29.92
678.843	29.78
679.03	29.82
679.217	29.89
679.404	29.82
679.591	29.87
679.778	29.9
679.964	29.85
680.151	29.9
680.338	29.94
680.525	29.88
680.712	29.91
680.899	29.9
681.086	29.94
681.272	29.8
681.459	29.85
681.646	29.86
681.833	29.92
682.02	29.98
682.206	29.96
682.393	29.93
682.58	29.85
682.766	29.76
682.953	29.74
683.14	29.82
683.326	29.94
683.513	29.9
683.7	29.95
683.886	29.89
684.073	29.9
684.259	29.92
684.446	29.91
684.632	29.89
684.819	29.9
685.005	29.95
685.192	29.85
685.378	29.73
685.565	29.67
685.751	29.67
685.938	29.66
686.124	29.65
686.31	29.65
686.497	29.58
686.683	29.63
686.87	29.6
687.056	29.5
687.242	29.47
687.429	29.5
687.615	29.53
687.801	29.61
687.987	29.59
688.174	29.49
688.36	29.44
688.546	29.56
688.732	29.58
688.918	29.65
689.105	29.87
689.291	29.86
689.477	29.75
689.663	29.9
689.849	29.76
690.035	29.78
690.221	29.91
690.407	29.86
690.593	29.73
690.779	29.8
690.965	29.89
691.151	29.88
691.337	29.92
691.523	30.04
691.709	29.95
691.895	30.09
692.081	30.03
692.267	30.08
692.453	29.97
692.639	30.06
692.825	29.96
693.011	29.84
693.196	29.75
693.382	29.78
693.568	29.7
693.754	29.7
693.94	29.46
694.125	29.62
694.311	29.56
694.497	29.71
694.682	29.68
694.868	29.86
695.054	29.78
695.239	29.82
695.425	29.65
695.611	29.83
695.796	29.75
695.982	29.94
696.168	29.84
696.353	29.91
696.539	29.98
696.724	30.09
696.91	29.91
697.095	29.96
697.281	29.89
697.466	29.99
697.652	29.81
697.837	29.86
698.023	29.73
698.208	29.83
698.393	29.84
698.579	29.73
698.764	29.66
698.949	29.68
699.135	29.58
699.32	29.63
699.505	29.57
699.691	29.62
699.876	29.67
700.061	29.7
700.246	29.72
700.432	29.63
700.617	29.67
700.802	29.68
700.987	29.66
701.172	29.73
701.358	29.56
701.543	29.67
701.728	29.73
701.913	29.73
702.098	29.77
702.283	29.55
702.468	29.57
702.653	29.48
702.838	29.58
703.023	29.64
703.208	29.85
703.393	30.16
703.578	30.04
703.763	29.98
703.948	29.82
704.133	29.73
704.318	29.76
704.503	29.86
704.688	30.01
704.873	30.11
705.057	30.09
705.242	29.88
705.427	29.76
705.612	29.87
705.797	29.87
705.981	29.99
706.166	30.25
706.351	30.17
706.536	30.16
706.72	30.12
706.905	29.76
707.09	29.77
707.274	29.88
707.459	29.81
707.644	29.67
707.828	29.71
708.013	29.6
708.197	29.44
708.382	29.54
708.567	29.5
708.751	29.57
708.936	29.71
709.12	29.73
709.305	29.63
709.489	29.6
709.673	29.68
709.858	29.52
710.042	29.61
710.227	29.59
710.411	29.4
710.596	29.41
710.78	29.29
710.964	29.25
711.149	29.18
711.333	29.4
711.517	29.49
711.702	29.49
711.886	29.64
712.07	29.65
712.254	29.78
712.438	30.03
712.623	30.04
712.807	30.11
712.991	30.17
713.175	30.25
713.359	30.19
713.544	30.07
713.728	29.98
713.912	29.91
714.096	29.82
714.28	29.72
714.464	29.74
714.648	29.7
714.832	29.63
715.016	29.54
715.2	29.46
715.384	29.43
715.568	29.53
715.752	29.62
715.936	29.74
716.12	29.7
716.304	29.7
716.488	29.63
716.671	29.67
716.855	29.64
717.039	29.62
717.223	29.53
717.407	29.33
717.59	29.19
717.774	29.21
717.958	29.26
718.142	29.28
718.325	29.11
718.509	29.13
718.693	28.83
718.877	28.77
719.06	28.87
719.244	28.98
719.428	29.1
719.611	29.16
719.795	29.05
719.978	28.89
720.162	29.11
720.345	29.19
720.529	29.11
720.713	29.33
720.896	29.45
721.08	29.34
721.263	29.33
721.446	29.42
721.63	29.6
721.813	29.62
721.997	29.67
722.18	29.54
722.364	29.72
722.547	30.09
722.73	30.03
722.914	30.08
723.097	30.13
723.28	30.24
723.464	30.13
723.647	29.98
723.83	29.95
724.013	29.79
724.197	29.94
724.38	29.95
724.563	29.64
724.746	29.77
724.929	29.7
725.112	29.61
725.296	29.42
725.479	29.3
725.662	29.18
725.845	29.24
726.028	29.26
726.211	29.16
726.394	29.19
726.577	29.21
726.76	29.05
726.943	29.06
727.126	29.3
727.309	29.4
727.492	29.66
727.675	29.91
727.858	29.9
728.041	30.06
728.224	30.12
728.407	29.95
728.589	29.81
728.772	29.92
728.955	30
729.138	29.97
729.321	30
729.503	30.05
729.686	29.89
729.869	30.06
730.052	29.83
730.234	29.68
730.417	29.66
730.6	29.78
730.782	29.7
730.965	29.66
731.148	29.68
731.33	29.48
731.513	29.23
731.695	29.33
731.878	29.21
732.061	29.41
732.243	29.46
732.426	29.64
732.608	29.65
732.791	29.8
732.973	29.66
733.156	29.58
733.338	29.87
733.52	29.99
733.703	29.91
733.885	29.88
734.068	29.84
734.25	29.82
734.432	29.8
734.615	29.79
734.797	29.67
734.979	29.74
735.162	29.61
735.344	29.37
735.526	29.46
735.708	29.27
735.891	29.52
736.073	29.54
736.255	29.67
736.437	29.59
736.619	29.34
736.802	29.42
736.984	29.47
737.166	29.68
737.348	29.9
737.53	29.63
737.712	29.74
737.894	29.63
738.076	29.42
738.258	29.36
738.44	29.18
738.622	29.3
738.804	29.03
738.986	29.1
739.168	29.13
739.35	29.29
739.532	29.31
739.714	29.19
739.896	29.29
740.078	29.45
740.259	29.22
740.441	29.31
740.623	29.46
740.805	29.79
740.987	29.76
741.168	29.39
741.35	29.06
741.532	29.3
741.714	29.33
741.895	29.11
742.077	29.01
742.259	29.11
742.44	29.07
742.622	28.87
742.804	28.81
742.985	28.76
743.167	28.96
743.348	28.95
743.53	28.93
743.711	29
743.893	28.74
744.075	28.62
744.256	28.52
744.438	28.61
744.619	28.93
744.8	28.81
744.982	28.76
745.163	28.79
745.345	28.6
745.526	28.61
745.707	28.79
745.889	28.79
746.07	28.98
746.252	29.19
746.433	29.21
746.614	29.05
746.795	29.34
746.977	29.15
747.158	29.37
747.339	29.25
747.52	29.17
747.702	29.16
747.883	29.39
748.064	29.23
748.245	29.15
748.426	28.94
748.607	28.89
748.788	28.63
748.97	28.82
749.151	28.58
749.332	28.97
749.513	28.98
749.694	28.79
749.875	28.53
750.056	28.68
750.237	28.48
750.418	28.62
750.599	28.44
750.78	28.41
750.96	28.51
751.141	28.65
751.322	28.56
751.503	28.46
751.684	28.59
751.865	28.86
752.046	28.95
752.226	28.95
752.407	28.81
752.588	28.84
752.769	29.04
752.949	28.92
753.13	28.82
753.311	29
753.492	28.94
753.672	28.9
753.853	28.48
754.034	28.6
754.214	29.07
754.395	29.24
754.575	29.59
754.756	29.05
754.937	28.89
755.117	28.74
755.298	28.76
755.478	29.1
755.659	29.42
755.839	29.96
756.02	29.7
756.2	29.25
756.381	28.86
756.561	28.49
756.741	29.02
756.922	29.18
757.102	29.07
757.283	28.57
757.463	28.29
757.643	28.09
757.823	27.87
758.004	27.91
758.184	28.18
758.364	28.73
758.545	28.8
758.725	28.6
758.905	28.78
759.085	29.04
759.265	29.11
759.446	29.09
759.626	29.11
759.806	29.25
759.986	29.27
760.166	29.04
760.346	28.71
760.526	28.74
760.706	28.95
760.886	28.79
761.066	28.59
761.246	28.84
761.426	28.84
761.606	28.7
761.786	28.67
761.966	28.73
762.146	28.79
762.326	28.91
762.506	28.87
762.686	28.87
762.866	28.68
763.046	28.72
763.225	28.76
763.405	28.64
763.585	28.67
763.765	28.58
763.945	28.37
764.124	28.27
764.304	28.22
764.484	28.3
764.664	27.91
764.843	27.99
765.023	28.19
765.203	27.96
765.382	28.17
765.562	28.14
765.741	28.36
765.921	28.4
766.101	28.57
766.28	28.56
766.46	28.24
766.639	28.61
766.819	28.54
766.998	28.52
767.178	28.77
767.357	28.98
767.537	28.91
767.716	28.68
767.896	28.49
768.075	28.38
768.254	28.2
768.434	28.67
768.613	28.46
768.792	28.54
768.972	28.64
769.151	28.36
769.33	28.19
769.51	28.08
769.689	28.13
769.868	28.78
770.047	29.1
770.226	29.46
770.406	29.46
770.585	29.47
770.764	29.58
770.943	29.33
771.122	29.34
771.301	29.41
771.48	29.72
771.66	29.72
771.839	29.33
772.018	29.15
772.197	28.87
772.376	28.68
772.555	28.73
772.734	28.96
772.913	28.78
773.092	28.86
773.271	28.61
773.449	28.25
773.628	28.16
773.807	28.43
773.986	28.03
774.165	28.12
774.344	27.95
774.523	28.23
774.701	27.82
774.88	27.86
775.059	27.97
775.238	27.93
775.417	27.98
775.595	27.92
775.774	27.72
775.953	28.05
776.131	27.73
776.31	27.68
776.489	27.39
776.667	27.75
776.846	27.69
777.025	27.53
777.203	27.41
777.382	27.78
777.56	27.74
777.739	27.63
777.917	27.48
778.096	27.7
778.274	28.04
778.453	28.43
778.631	27.79
778.81	27.52
778.988	27.5
779.166	27.68
779.345	27.35
779.523	27.8
779.702	28.2
779.88	28.28
780.058	28.39
780.237	28.34
780.415	28.18
780.593	28.63
780.771	28.79
780.95	29.13
781.128	28.98
781.306	29.34
781.484	29.05
781.662	28.49
781.841	28.6
782.019	28.03
782.197	27.7
782.375	27.64
782.553	27.66
782.731	28.26
782.909	28
783.087	28.38
783.265	28.64
783.443	28.52
783.621	28.76
783.799	28.93
783.977	29.01
784.155	28.99
784.333	28.7
784.511	28.78
784.689	27.98
784.867	28.22
785.045	27.22
785.223	26.54
785.4	26.21
785.578	26.47
785.756	26.27
785.934	26.7
786.112	27
786.289	26.99
786.467	26.61
786.645	27.23
786.823	26.78
787	27.61
787.178	27.77
787.356	28.03
787.533	27.9
787.711	28.02
787.889	28.41
788.066	28.6
788.244	28.64
788.421	28.54
788.599	27.88
788.776	28.17
788.954	28.02
789.131	27.84
789.309	27.37
789.486	26.87
789.664	27.11
789.841	26.47
790.019	25.99
790.196	26.06
790.373	26.39
790.551	26.51
790.728	26.29
790.906	26.53
791.083	26.1
791.26	26.45
791.437	26.1
791.615	25.42
791.792	25.8
791.969	25.56
792.146	25.32
792.324	25.49
792.501	26.46
792.678	26.53
792.855	25.91
793.032	26.17
793.209	26.53
793.387	27.49
793.564	27.68
793.741	27.02
793.918	27.34
794.095	27.87
794.272	27.99
794.449	27.03
794.626	27.18
794.803	27.03
794.98	27.53
795.157	27.42
795.334	27.2
795.511	27.06
795.688	27.16
795.864	27.32
796.041	27.22
796.218	26.45
796.395	27.08
796.572	26.76
796.749	26.63
796.925	26.52
797.102	26.5
797.279	26.55
797.456	26.76
797.632	27.08
797.809	26.86
797.986	26.62
798.162	27.34
798.339	26.67
798.516	27.16
798.692	27.97
798.869	28.2
799.046	28.13
799.222	28.14
799.399	28.28
799.575	28.69
799.752	28.24
799.928	28.41
800.105	28.01
800.281	28.34
800.458	27.91
800.634	27.36
800.811	26.71
800.987	26.44
801.163	26.4
801.34	25.64
801.516	25.15
801.692	25.37
801.869	25.47
802.045	25.82
802.221	25.82
802.398	25.75
802.574	26.14
802.75	26.81
802.926	26.99
803.103	26.18
803.279	26.65
803.455	26.91
803.631	27.1
803.807	26.08
803.983	25.85
804.16	26.01
804.336	25.5
804.512	24.55
804.688	24.14
804.864	24.19
805.04	24.76
805.216	24.2
805.392	23.55
805.568	23.05
805.744	24.15
805.92	23.94
806.096	23.4
806.272	24.04
806.448	24.78
806.623	24.27
806.799	24.73
806.975	25.49
807.151	26.41
807.327	26.13
807.503	27.06
807.678	26.41
807.854	26.33
808.03	26.89
808.206	26.98
808.381	26.42
808.557	26.25
808.733	25.42
808.908	25.19
809.084	23.83
809.26	24.23
809.435	22.97
809.611	23.34
809.787	23.17
809.962	22.47
810.138	22.37
810.313	23
810.489	23.71
810.664	23.53
810.84	23.39
811.015	24.83
811.191	24.69
811.366	25.24
811.542	25.13
811.717	26.02
811.892	26.94
812.068	27.38
812.243	26.7
812.419	26.23
812.594	27.12
812.769	27.53
812.944	27.22
813.12	27.37
813.295	27.84
813.47	27.74
813.645	27.27
813.821	27.25
813.996	26.51
814.171	26.51
814.346	26.37
814.521	26.37
814.697	25.58
814.872	25.89
815.047	26.06
815.222	25.49
815.397	25.69
815.572	25.83
815.747	25.75
815.922	26.35
816.097	26.79
816.272	26.84
816.447	26.14
816.622	25.99
816.797	25.32
816.972	25.13
817.147	25.88
817.322	25.83
817.496	25.34
817.671	25.54
817.846	25.13
818.021	24.61
818.196	24.69
818.371	24.99
818.545	25.59
818.72	25.78
818.895	26.3
819.069	25.95
819.244	26.06
819.419	26.54
819.594	26.64
819.768	26.95
819.943	27.7
820.117	28.23
820.292	28.51
820.467	28.49
820.641	28.61
820.816	28.58
820.99	28.71
821.165	28.77
821.339	28.79
821.514	28.7
821.688	28.66
821.863	28.64
822.037	28.66
822.212	28.57
822.386	28.51
822.56	28.42
822.735	28.32
822.909	28.4
823.084	28.2
823.258	28.13
823.432	28.2
823.606	28.19
823.781	28.09
823.955	27.96
824.129	27.87
824.303	27.86
824.478	27.89
824.652	28
824.826	27.61
825	27.89
825.174	28.01
825.348	27.77
825.523	27.75
825.697	27.62
825.871	27.68
826.045	27.73
826.219	27.73
826.393	27.93
826.567	27.95
826.741	28.24
826.915	28.23
827.089	28.14
827.263	28.18
827.437	28.25
827.611	28.51
827.784	28.23
827.958	28.28
828.132	28.49
828.306	28.18
828.48	28.21
828.654	28
828.827	27.61
829.001	27.61
829.175	27.54
829.349	27.27
829.522	27.14
829.696	27.41
829.87	27.27
830.044	26.92
830.217	26.81
830.391	26.5
830.565	26.6
830.738	27.02
830.912	26.65
831.085	26.76
831.259	26.98
831.432	25.94
831.606	25.66
831.779	25.72
831.953	26.15
832.126	26.69
832.3	26.68
832.473	26.54
832.647	26.81
832.82	26.69
832.994	26.78
833.167	26.56
833.34	27.15
833.514	27.35
833.687	27.32
833.86	26.95
834.034	26.36
834.207	26.62
834.38	26.54
834.553	26.14
834.727	26.56
834.9	26.47
835.073	26.33
835.246	25.78
835.419	25.49
835.593	25.64
835.766	25.8
835.939	26.09
836.112	25.86
836.285	25.78
836.458	26.25
836.631	25.07
836.804	24.31
836.977	24.72
837.15	25.72
837.323	25.38
837.496	24.66
837.669	24.08
837.842	24.14
838.015	23.82
838.188	23
838.361	22.68
838.533	23.07
838.706	23.49
838.879	23.41
839.052	22.63
839.225	23.02
839.398	23.49
839.57	23.27
839.743	23.39
839.916	23.71
840.088	23.52
840.261	23.9
840.434	25.14
840.607	25.14
840.779	24.92
840.952	24.87
841.124	24.31
841.297	24.95
841.47	24.23
841.642	23.85
841.815	23.88
841.987	25.28
842.16	24.41
842.332	22.91
842.505	23.11
842.677	23.84
842.85	23.48
843.022	24.76
843.194	24.07
843.367	25.55
843.539	25.99
843.712	23.61
843.884	23.22
844.056	24.22
844.229	23.27
844.401	23.55
844.573	23.91
844.745	23.46
844.918	22.59
845.09	21.58
845.262	21.1
845.434	21.6
845.606	22.51
845.779	22.13
845.951	20.21
846.123	21.35
846.295	20.03
846.467	18.23
846.639	18.88
846.811	18.53
846.983	19.15
847.155	18.49
847.327	17.26
847.499	18.06
847.671	16.96
847.843	17.61
848.015	16.35
848.187	18.12
848.359	16.9
848.531	16.38
848.703	16.93
848.875	18.15
849.047	18.92
849.218	21.02
849.39	20.37
849.562	20.91
849.734	19.65
849.905	21.86
850.077	21.26
850.249	22.49
850.421	22.23
850.592	21.81
850.764	20.65
850.936	22.05
851.107	19.9
851.279	19.84
851.451	20.58
851.622	23.53
851.794	22.5
851.965	24.11
852.137	23.85
852.308	23.42
852.48	23.96
852.651	22.59
852.823	20.6
852.994	19.2
853.166	19.71
853.337	19.96
853.509	18.27
853.68	18.58
853.851	17.04
854.023	17.32
854.194	18.08
854.365	17.37
854.537	17.97
854.708	19.21
854.879	20
855.05	19.93
855.222	19.76
855.393	17.49
855.564	15.11
855.735	13.21
855.906	13.65
856.078	12.99
856.249	14.5
856.42	12.62
856.591	12.41
856.762	13.8
856.933	13.14
857.104	11.36
857.275	14.61
857.446	16.08
857.617	15.56
857.788	16.51
857.959	17.65
858.13	15.89
858.301	19.13
858.472	18.34
858.643	15.79
858.814	17.21
858.985	19.23
859.155	18.5
859.326	21.55
859.497	24.84
859.668	21.44
859.839	20.17
860.009	22.31
860.18	21.22
860.351	22.01
860.522	22.81
860.692	22.87
860.863	23.09
861.034	23.61
861.204	22.01
861.375	20.01
861.546	21.13
861.716	20.12
861.887	16.41
862.057	16.41
862.228	15.5
862.398	17.71
862.569	19.18
862.739	18.62
862.91	16.81
863.08	15.96
863.251	14.58
863.421	13.12
863.592	16.8
863.762	17.3
863.932	16.75
864.103	17.55
864.273	15.36
864.443	12.58
864.614	13.02
864.784	13.87
864.954	14.01
865.125	17.25
865.295	20.74
865.465	18.9
865.635	19.98
865.805	20.23
865.976	20.53
866.146	23.03
866.316	22.72
866.486	20.88
866.656	19.49
866.826	17.14
866.996	16.24
867.166	16.23
867.336	16.52
867.506	18
867.676	17.53
867.846	15.91
868.016	14.75
868.186	14.8
868.356	16.31
868.526	16.32
868.696	17.02
868.866	19.18
869.036	16.21
869.206	17.45
869.376	16.36
869.545	15.68
869.715	15.99
869.885	15.71
870.055	16.93
870.224	17.35
870.394	20.34
870.564	23.4
870.734	17.83
870.903	18.57
871.073	18.98
871.243	20.47
871.412	21.88
871.582	24.6
871.751	25.98
871.921	26.31
872.091	24.26
872.26	23.43
872.43	20.38
872.599	24.77
872.769	25.62
872.938	24.24
873.108	21.79
873.277	20.91
873.446	21.71
873.616	18.62
873.785	18.97
873.955	21.53
874.124	21.15
874.293	22.14
874.463	18.74
874.632	17.11
874.801	16.45
874.971	17.74
875.14	18.24
875.309	13.08
875.478	14.7
875.647	15.38
875.817	13.4
875.986	10.7
876.155	12.46
876.324	13.24
876.493	18.1
876.662	18.1
876.831	16.05
877	16.68
877.17	20.41
877.339	22.61
877.508	22.04
877.677	23.51
877.846	25.1
878.015	25.39
878.184	26.87
878.352	26.07
878.521	26.94
878.69	27.69
878.859	28.66
879.028	28.78
879.197	28.48
879.366	26.6
879.534	26.42
879.703	25.84
879.872	26.05
880.041	26.17
880.21	25.44
880.378	25.31
880.547	26.1
880.716	26.4
880.884	25.73
881.053	25.32
881.222	25.77
881.39	26.03
881.559	26.54
881.727	26.46
881.896	26.56
882.065	26.66
882.233	26.88
882.402	26.38
882.57	25.99
882.739	26.38
882.907	27.12
883.076	27.48
883.244	27.49
883.412	27.73
883.581	27.48
883.749	27.25
883.918	27.19
884.086	26.85
884.254	26.81
884.423	26.89
884.591	27.17
884.759	25.77
884.927	25.04
885.096	23.89
885.264	22.89
885.432	22.3
885.6	21.76
885.769	21.43
885.937	21.09
886.105	20.76
886.273	19.3
886.441	17.44
886.609	18.29
886.777	16.36
886.945	16.38
887.113	16.33
887.281	15.14
887.449	17.34
887.617	17.45
887.785	17.64
887.953	18.69
888.121	17.92
888.289	17.8
888.457	18.6
888.625	19.13
888.793	17.85
888.961	15.69
889.129	16.73
889.296	15.53
889.464	15.47
889.632	15
889.8	13.52
889.967	15.4
890.135	16.46
