Data from JASIL_2960_Reflection_2.txt Node
Date: Sat Nov 07 21:19:22 EST 2015
User: Geneva
Spectrometer: USB4E03002
Autoset integration time: false
Trigger mode: 4
Integration Time (sec): 1.000000E-1
Scans to average: 10
Electric dark correction enabled: true
Nonlinearity correction enabled: false
Boxcar width: 5
Stray light correction enabled: false
XAxis mode: Wavelengths
Stop averaging: false
Number of Pixels in Spectrum: 3648
>>>>>Begin Spectral Data<<<<<
177.575	37.43
177.794	91.82
178.014	36.89
178.233	-125.03
178.452	26.6
178.672	36.5
178.891	66.04
179.11	97.1
179.33	133.71
179.549	57.05
179.768	93.96
179.987	104.04
180.207	356.36
180.426	-115.6
180.645	46.6
180.864	10.66
181.084	4.8
181.303	-19.85
181.522	-13.63
181.741	10.49
181.96	-13.48
182.179	10.49
182.398	13.9
182.618	9.82
182.837	-16.54
183.056	-84.69
183.275	-95.46
183.494	-62.96
183.713	-28.6
183.932	-74.92
184.151	-204.18
184.37	-27.26
184.589	-8.33
184.808	-2.83
185.027	-10.88
185.246	-13.8
185.465	0.83
185.684	0.38
185.903	-3.96
186.122	-0.29
186.341	12.39
186.56	8.1
186.779	-10.71
186.998	-22.97
187.216	-18.07
187.435	-20.14
187.654	-28.68
187.873	-41.29
188.092	-31.4
188.311	-26.86
188.53	-26.68
188.748	-18.4
188.967	-31.68
189.186	20.54
189.405	50.68
189.623	19.55
189.842	38.88
190.061	45.37
190.28	68.9
190.498	78.24
190.717	64.78
190.936	119.74
191.154	-108.08
191.373	2541.73
191.592	-475.86
191.81	-603.31
192.029	-162.77
192.248	-421.16
192.466	-327.9
192.685	-157.11
192.904	-83.11
193.122	-63.81
193.341	-89.29
193.559	-46.18
193.778	-28.65
193.996	-1.55
194.215	-5.44
194.433	-19.09
194.652	-4.29
194.87	-27.24
195.089	15.56
195.307	25.56
195.526	43.22
195.744	31.19
195.963	35.92
196.181	42.79
196.399	8.27
196.618	-5.71
196.836	13.03
197.055	4.15
197.273	13.45
197.491	-6.82
197.71	-12.66
197.928	-34.3
198.146	-35.65
198.365	-55.06
198.583	-68.36
198.801	-34.95
199.019	-25.72
199.238	-46.35
199.456	-62.06
199.674	-79.76
199.892	-90.88
200.111	-132.35
200.329	-74.95
200.547	-89.5
200.765	-91.97
200.983	-83.28
201.202	-62.18
201.42	-54.32
201.638	-48.4
201.856	-43.12
202.074	-14.85
202.292	-7.34
202.51	9.84
202.728	-13.44
202.946	-11.4
203.165	-20.06
203.383	-50.59
203.601	-58.17
203.819	-54.18
204.037	-48.5
204.255	-18.1
204.473	-18.24
204.691	-22.17
204.909	-55.27
205.127	-16.7
205.345	0.82
205.562	12.98
205.78	27.76
205.998	35.64
206.216	40.63
206.434	50.65
206.652	29.66
206.87	33.9
207.088	29.01
207.306	26.86
207.523	34.04
207.741	23.37
207.959	22.07
208.177	15.23
208.395	-7.12
208.612	-31.71
208.83	-30.64
209.048	-23.78
209.266	-57.63
209.483	-88.69
209.701	-106.44
209.919	-133.09
210.136	-104.99
210.354	-45.28
210.572	-24.02
210.79	-6.37
211.007	1.11
211.225	1.7
211.442	-6.47
211.66	1.65
211.878	9.13
212.095	74.81
212.313	64.03
212.53	57.69
212.748	51.64
212.966	59.61
213.183	57.19
213.401	56.35
213.618	57.27
213.836	58.42
214.053	63.39
214.271	60.08
214.488	-5.05
214.705	-7.8
214.923	-8.3
215.14	-0.28
215.358	6.49
215.575	1.07
215.793	1.1
216.01	-1.41
216.227	2.5
216.445	-6.41
216.662	-9.61
216.879	-8.91
217.097	-4.89
217.314	-0.44
217.531	-13.1
217.749	-24.19
217.966	-20.32
218.183	-17.52
218.4	-20.28
218.618	-22.64
218.835	-11.62
219.052	-11.81
219.269	-11.04
219.487	-3.67
219.704	-4.99
219.921	-1.8
220.138	1.49
220.355	-0.17
220.572	0.74
220.79	0.54
221.007	3.77
221.224	1.81
221.441	4.05
221.658	2.73
221.875	1.1
222.092	-1.8
222.309	-1.8
222.526	-6.53
222.743	-2.98
222.96	-5.84
223.177	-6.31
223.394	-7.77
223.611	-5.61
223.828	-5.36
224.045	-2.81
224.262	-1.11
224.479	1.96
224.696	2.61
224.913	7.71
225.13	9.86
225.347	10.63
225.564	12.08
225.781	11.77
225.997	11.64
226.214	10.3
226.431	10.84
226.648	11.25
226.865	10.44
227.082	10.96
227.298	9.26
227.515	8.02
227.732	7.14
227.949	7.03
228.165	6.59
228.382	5.92
228.599	6.29
228.816	5.77
229.032	4.69
229.249	5.01
229.466	4.03
229.682	4.49
229.899	5.39
230.116	6.09
230.332	7.09
230.549	8.56
230.765	9.58
230.982	9.96
231.199	10.41
231.415	11.51
231.632	10.57
231.848	10.68
232.065	11.67
232.281	11.16
232.498	11.12
232.714	9.66
232.931	8.4
233.147	8.84
233.364	9.13
233.58	8.5
233.797	7.79
234.013	8.21
234.23	8.37
234.446	8.39
234.662	8.54
234.879	9.93
235.095	10.26
235.312	10.81
235.528	10.04
235.744	8.37
235.961	8.35
236.177	8.92
236.393	8.58
236.61	9.56
236.826	8.12
237.042	8.2
237.258	7.3
237.475	7.84
237.691	7.05
237.907	6.87
238.123	8.05
238.339	7.72
238.556	7.24
238.772	7.02
238.988	6.77
239.204	7.02
239.42	6.6
239.636	6.68
239.853	6.72
240.069	7.1
240.285	7.74
240.501	7.55
240.717	7.92
240.933	7.91
241.149	8.07
241.365	8.14
241.581	8.17
241.797	8.25
242.013	8.23
242.229	8.26
242.445	8.07
242.661	7.2
242.877	7.15
243.093	7.22
243.309	7.23
243.525	7.25
243.741	7.04
243.957	7.24
244.173	7.46
244.388	6.87
244.604	6.73
244.82	7.31
245.036	7.44
245.252	7.5
245.468	7.25
245.683	7.01
245.899	7.07
246.115	6.99
246.331	7.02
246.547	6.66
246.762	6.69
246.978	6.66
247.194	6.33
247.409	6.57
247.625	6.52
247.841	6.33
248.057	6.38
248.272	6.11
248.488	5.95
248.703	5.63
248.919	5.86
249.135	5.86
249.35	5.5
249.566	5.49
249.782	5.15
249.997	5.25
250.213	5.57
250.428	5.78
250.644	5.84
250.859	5.91
251.075	6.02
251.29	5.92
251.506	5.63
251.721	5.76
251.937	5.95
252.152	6.04
252.368	5.65
252.583	5.7
252.798	5.57
253.014	5.5
253.229	5.25
253.445	4.95
253.66	4.73
253.875	4.76
254.091	4.53
254.306	4.32
254.521	4.16
254.737	4.43
254.952	4.26
255.167	4.03
255.383	4.91
255.598	5.32
255.813	5.66
256.028	5.83
256.244	5.93
256.459	5.62
256.674	5.38
256.889	5.16
257.104	5.1
257.32	4.99
257.535	5.21
257.75	4.79
257.965	4.76
258.18	4.56
258.395	4.44
258.61	4.49
258.826	4.48
259.041	4.53
259.256	4.49
259.471	4.5
259.686	4.52
259.901	4.42
260.116	4.57
260.331	4.59
260.546	4.64
260.761	4.76
260.976	4.84
261.191	4.99
261.406	4.64
261.621	4.64
261.836	4.25
262.05	4.1
262.265	3.74
262.48	3.26
262.695	3.11
262.91	3.42
263.125	3.1
263.34	3.14
263.555	3.23
263.769	3.45
263.984	3.56
264.199	4.25
264.414	4.32
264.629	4.36
264.843	4.4
265.058	4.4
265.273	4.48
265.488	4.64
265.702	4.5
265.917	4.94
266.132	5.23
266.346	5.29
266.561	5.01
266.776	5.07
266.99	5.34
267.205	5.31
267.42	5.26
267.634	5.18
267.849	5.24
268.063	5.21
268.278	4.56
268.492	4.56
268.707	4.42
268.922	4.51
269.136	4.5
269.351	4.57
269.565	4.67
269.78	4.42
269.994	4.17
270.209	3.97
270.423	4.32
270.637	4.35
270.852	4.36
271.066	4.42
271.281	4.38
271.495	4.34
271.709	4.16
271.924	4.18
272.138	4.21
272.353	4.27
272.567	4.4
272.781	4.1
272.996	4.37
273.21	4.21
273.424	4.23
273.638	4.34
273.853	4.56
274.067	4.47
274.281	4.62
274.495	4.61
274.71	4.51
274.924	4.38
275.138	4.53
275.352	4.39
275.566	4.36
275.781	4.5
275.995	4.56
276.209	4.31
276.423	4.17
276.637	3.91
276.851	4.02
277.065	4.23
277.279	4.26
277.493	4.38
277.707	4.36
277.921	4.5
278.135	4.51
278.349	4
278.563	3.85
278.777	3.89
278.991	4.02
279.205	4.29
279.419	4.18
279.633	4.37
279.847	4.03
280.061	4.16
280.275	4.17
280.489	4.07
280.703	4.2
280.917	4.35
281.131	4.53
281.344	4.33
281.558	4.11
281.772	4.13
281.986	4.08
282.2	4.26
282.414	4.1
282.627	4.09
282.841	4.05
283.055	4
283.269	3.81
283.482	3.76
283.696	3.9
283.91	4.17
284.123	3.94
284.337	3.82
284.551	3.62
284.764	3.47
284.978	3.57
285.192	3.59
285.405	3.75
285.619	3.9
285.833	3.9
286.046	3.76
286.26	3.45
286.473	3.61
286.687	3.6
286.9	3.72
287.114	3.7
287.327	3.63
287.541	3.66
287.754	3.53
287.968	3.43
288.181	3.42
288.395	3.54
288.608	3.63
288.822	3.52
289.035	3.76
289.248	3.79
289.462	3.97
289.675	3.93
289.889	3.97
290.102	4.1
290.315	4.14
290.529	4.18
290.742	4.16
290.955	4.15
291.169	4.36
291.382	4.14
291.595	4.17
291.808	3.95
292.022	4.33
292.235	4.32
292.448	4.27
292.661	4.27
292.875	4.3
293.088	4.32
293.301	4.24
293.514	4.28
293.727	4.25
293.94	4.23
294.153	4.45
294.367	4.27
294.58	3.97
294.793	3.82
295.006	3.79
295.219	3.92
295.432	3.95
295.645	4.05
295.858	3.76
296.071	3.8
296.284	3.65
296.497	3.53
296.71	3.42
296.923	3.61
297.136	3.8
297.349	3.91
297.562	3.67
297.775	3.67
297.988	3.63
298.201	3.8
298.414	3.77
298.626	3.81
298.839	4.04
299.052	4.02
299.265	3.8
299.478	3.69
299.691	3.42
299.903	3.49
300.116	3.38
300.329	3.35
300.542	3.3
300.755	3.38
300.967	3.57
301.18	3.29
301.393	3.21
301.605	3.28
301.818	3.13
302.031	3.29
302.243	3.25
302.456	3.52
302.669	3.35
302.881	3.52
303.094	3.5
303.307	3.65
303.519	3.77
303.732	3.8
303.944	4
304.157	3.93
304.37	4.03
304.582	4.18
304.795	4.01
305.007	4.22
305.22	4.1
305.432	4.04
305.645	3.69
305.857	3.94
306.069	4.11
306.282	3.99
306.494	4.16
306.707	4
306.919	4.12
307.132	4.01
307.344	3.92
307.556	3.92
307.769	4.06
307.981	4.26
308.193	4.04
308.406	3.89
308.618	3.92
308.83	3.92
309.043	4.03
309.255	4.01
309.467	4.16
309.679	4.29
309.892	4.21
310.104	4.24
310.316	4.17
310.528	4.13
310.74	4.45
310.953	4.63
311.165	4.65
311.377	4.53
311.589	4.54
311.801	4.35
312.013	4.29
312.225	4.52
312.437	4.51
312.649	4.58
312.862	4.78
313.074	4.45
313.286	4.13
313.498	4.05
313.71	4.4
313.922	4.12
314.134	4.38
314.346	4.38
314.558	4.15
314.77	3.9
314.982	3.76
315.193	3.75
315.405	3.76
315.617	3.86
315.829	3.9
316.041	3.64
316.253	3.66
316.465	3.39
316.677	3.42
316.888	3.41
317.1	3.78
317.312	4.02
317.524	3.94
317.736	4.02
317.947	4.12
318.159	4.37
318.371	4.45
318.583	4.68
318.794	4.99
319.006	5.06
319.218	5.12
319.43	4.69
319.641	4.6
319.853	4.57
320.064	4.55
320.276	4.77
320.488	4.76
320.699	4.81
320.911	4.87
321.123	4.94
321.334	5.05
321.546	4.97
321.757	5.26
321.969	5.31
322.18	5.18
322.392	5.19
322.603	4.84
322.815	4.7
323.026	4.73
323.238	4.42
323.449	4.45
323.661	4.28
323.872	4.55
324.083	4.44
324.295	4.28
324.506	4.27
324.718	4.28
324.929	4.49
325.14	4.65
325.352	4.6
325.563	5.04
325.774	4.69
325.986	4.63
326.197	4.44
326.408	4.63
326.62	4.84
326.831	5.13
327.042	5.03
327.253	4.99
327.464	5.01
327.676	4.95
327.887	4.66
328.098	4.94
328.309	4.96
328.52	5.27
328.732	5.4
328.943	5.43
329.154	5.56
329.365	5.56
329.576	5.76
329.787	5.56
329.998	5.68
330.209	5.72
330.42	5.52
330.631	5.56
330.842	5.47
331.053	5.53
331.264	5.31
331.475	5.13
331.686	5.19
331.897	5.05
332.108	4.96
332.319	4.83
332.53	4.97
332.741	4.91
332.952	5.04
333.163	5.07
333.374	4.84
333.585	4.85
333.795	4.72
334.006	4.82
334.217	4.79
334.428	5.03
334.639	5.05
334.849	5.03
335.06	5.23
335.271	5.29
335.482	5.27
335.692	5.4
335.903	5.46
336.114	5.38
336.325	5.46
336.535	5.52
336.746	5.36
336.957	5.28
337.167	5.23
337.378	5.32
337.589	5.05
337.799	5.15
338.01	5.22
338.22	5.27
338.431	5.45
338.642	5.3
338.852	5.07
339.063	4.96
339.273	4.95
339.484	5.02
339.694	4.83
339.905	4.97
340.115	4.69
340.326	4.42
340.536	4.29
340.746	4.11
340.957	4.13
341.167	4.21
341.378	4.32
341.588	4.64
341.799	4.43
342.009	4.4
342.219	4.4
342.43	4.48
342.64	4.32
342.85	4.33
343.061	4.5
343.271	4.47
343.481	4.6
343.691	4.56
343.902	4.29
344.112	4.3
344.322	4.32
344.532	4.31
344.743	4.34
344.953	4.27
345.163	4.32
345.373	4.2
345.583	4.22
345.793	4.11
346.004	4.05
346.214	4.17
346.424	4.31
346.634	4.43
346.844	4.49
347.054	4.61
347.264	4.85
347.474	4.82
347.684	4.84
347.894	4.87
348.104	4.82
348.314	4.82
348.524	4.75
348.734	4.81
348.944	4.78
349.154	4.81
349.364	4.65
349.574	4.62
349.784	4.65
349.994	4.72
350.204	4.6
350.413	4.51
350.623	4.57
350.833	4.54
351.043	4.32
351.253	4.29
351.463	4.12
351.672	3.9
351.882	3.92
352.092	3.7
352.302	3.57
352.511	3.64
352.721	3.84
352.931	3.88
353.141	3.63
353.35	3.63
353.56	3.49
353.77	3.63
353.979	3.92
354.189	3.88
354.399	4.25
354.608	4.23
354.818	4.13
355.027	4.09
355.237	4.11
355.447	4.29
355.656	4.43
355.866	4.49
356.075	4.45
356.285	4.38
356.494	4.32
356.704	4.11
356.913	4.18
357.123	4.18
357.332	4.16
357.542	4.25
357.751	4.26
357.96	4.16
358.17	4.25
358.379	4.33
358.589	4.25
358.798	4.37
359.007	4.37
359.217	4.26
359.426	4.28
359.635	4.29
359.845	4.13
360.054	4.07
360.263	4.09
360.472	4.05
360.682	3.97
360.891	3.99
361.1	3.96
361.309	4.01
361.519	4.08
361.728	4.13
361.937	4.21
362.146	4.23
362.355	4.33
362.564	4.35
362.774	4.25
362.983	4.21
363.192	4.19
363.401	4.12
363.61	4
363.819	4.12
364.028	4.16
364.237	4.02
364.446	4.04
364.655	3.88
364.864	3.88
365.073	4
365.282	4.1
365.491	4.1
365.7	4.15
365.909	4.27
366.118	4.16
366.327	3.97
366.536	3.93
366.745	3.94
366.954	3.97
367.162	3.85
367.371	3.76
367.58	3.62
367.789	3.5
367.998	3.51
368.207	3.48
368.415	3.41
368.624	3.51
368.833	3.57
369.042	3.6
369.25	3.63
369.459	3.73
369.668	3.69
369.877	3.67
370.085	3.72
370.294	3.63
370.503	3.61
370.711	3.56
370.92	3.45
371.129	3.39
371.337	3.28
371.546	3.08
371.754	2.98
371.963	3.06
372.171	3.09
372.38	3.05
372.589	3.04
372.797	2.96
373.006	3.03
373.214	2.98
373.423	3
373.631	2.9
373.84	3.09
374.048	3.08
374.256	2.99
374.465	2.86
374.673	2.76
374.882	2.74
375.09	2.79
375.298	2.77
375.507	2.82
375.715	2.83
375.923	2.91
376.132	2.96
376.34	2.92
376.548	2.96
376.757	3.22
376.965	3.34
377.173	3.46
377.381	3.42
377.59	3.32
377.798	3.41
378.006	3.3
378.214	3.34
378.423	3.34
378.631	3.39
378.839	3.32
379.047	3.21
379.255	3.18
379.463	3.05
379.671	2.97
379.879	3.01
380.088	2.9
380.296	2.98
380.504	3.02
380.712	2.96
380.92	3.01
381.128	2.95
381.336	2.92
381.544	2.94
381.752	2.91
381.96	2.94
382.168	2.94
382.376	2.89
382.584	2.83
382.791	2.72
382.999	2.71
383.207	2.66
383.415	2.64
383.623	2.66
383.831	2.61
384.039	2.63
384.247	2.68
384.454	2.76
384.662	2.84
384.87	2.9
385.078	2.9
385.285	2.98
385.493	2.95
385.701	3.04
385.909	3.02
386.116	3.02
386.324	3.03
386.532	2.93
386.739	2.78
386.947	2.72
387.155	2.65
387.362	2.68
387.57	2.65
387.778	2.76
387.985	2.72
388.193	2.68
388.4	2.76
388.608	2.69
388.816	2.76
389.023	2.75
389.231	2.77
389.438	2.77
389.646	2.68
389.853	2.6
390.061	2.46
390.268	2.41
390.475	2.38
390.683	2.37
390.89	2.39
391.098	2.38
391.305	2.41
391.512	2.25
391.72	2.23
391.927	2.24
392.135	2.24
392.342	2.26
392.549	2.25
392.756	2.25
392.964	2.17
393.171	2.15
393.378	2.12
393.586	2.12
393.793	2.27
394	2.21
394.207	2.21
394.414	2.25
394.622	2.34
394.829	2.35
395.036	2.33
395.243	2.36
395.45	2.34
395.657	2.27
395.864	2.23
396.072	2.26
396.279	2.36
396.486	2.32
396.693	2.34
396.9	2.33
397.107	2.24
397.314	2.28
397.521	2.27
397.728	2.24
397.935	2.25
398.142	2.28
398.349	2.22
398.556	2.21
398.763	2.29
398.97	2.2
399.177	2.14
399.383	2.28
399.59	2.26
399.797	2.24
400.004	2.24
400.211	2.27
400.418	2.23
400.625	2.2
400.831	2.18
401.038	2.22
401.245	2.16
401.452	2.08
401.658	2.02
401.865	2.06
402.072	2.05
402.279	2.11
402.485	2.14
402.692	2.16
402.899	2.21
403.105	2.22
403.312	2.18
403.519	2.14
403.725	2.14
403.932	2.2
404.138	2.19
404.345	2.14
404.552	2.07
404.758	2.07
404.965	2.04
405.171	1.97
405.378	1.92
405.584	1.88
405.791	1.92
405.997	1.92
406.204	1.86
406.41	1.76
406.617	1.85
406.823	1.86
407.029	1.91
407.236	1.96
407.442	2.01
407.649	2.11
407.855	2.16
408.061	2.22
408.268	2.21
408.474	2.14
408.68	2.22
408.887	2.1
409.093	2.1
409.299	2.04
409.505	2
409.712	2
409.918	1.89
410.124	1.84
410.33	1.82
410.537	1.93
410.743	1.96
410.949	1.99
411.155	2.06
411.361	2.05
411.567	1.96
411.773	1.83
411.98	1.86
412.186	1.91
412.392	1.9
412.598	1.9
412.804	1.82
413.01	1.88
413.216	1.83
413.422	1.88
413.628	1.91
413.834	1.94
414.04	2.08
414.246	2.03
414.452	1.98
414.658	2.02
414.864	2.01
415.07	1.97
415.275	1.91
415.481	1.84
415.687	1.76
415.893	1.7
416.099	1.71
416.305	1.73
416.511	1.79
416.716	1.76
416.922	1.73
417.128	1.72
417.334	1.72
417.539	1.73
417.745	1.78
417.951	1.76
418.157	1.82
418.362	1.82
418.568	1.79
418.774	1.73
418.979	1.73
419.185	1.73
419.391	1.74
419.596	1.72
419.802	1.72
420.008	1.67
420.213	2.05
420.419	2.03
420.624	2.04
420.83	2.03
421.035	2.04
421.241	2.07
421.446	2.09
421.652	2.08
421.857	2.05
422.063	2.02
422.268	2.03
422.474	1.7
422.679	1.71
422.885	1.72
423.09	1.73
423.295	1.71
423.501	1.7
423.706	1.67
423.911	1.71
424.117	1.73
424.322	1.75
424.527	1.77
424.733	1.75
424.938	1.74
425.143	1.75
425.349	1.71
425.554	1.74
425.759	1.75
425.964	1.77
426.169	1.75
426.375	1.73
426.58	1.72
426.785	1.71
426.99	1.73
427.195	1.71
427.4	1.69
427.605	1.67
427.811	1.66
428.016	1.63
428.221	1.58
428.426	1.62
428.631	1.6
428.836	1.67
429.041	1.69
429.246	1.74
429.451	1.79
429.656	1.76
429.861	1.83
430.066	1.87
430.271	1.87
430.476	1.87
430.681	1.82
430.886	1.85
431.09	1.86
431.295	1.82
431.5	1.77
431.705	1.72
431.91	1.77
432.115	1.74
432.32	1.73
432.524	1.71
432.729	1.69
432.934	1.7
433.139	1.68
433.343	1.65
433.548	1.65
433.753	1.68
433.958	1.7
434.162	1.66
434.367	1.68
434.572	1.6
434.776	1.62
434.981	1.66
435.186	1.64
435.39	1.66
435.595	1.69
435.799	1.7
436.004	1.63
436.209	1.59
436.413	1.62
436.618	1.6
436.822	1.65
437.027	1.58
437.231	1.56
437.436	1.55
437.64	1.58
437.845	1.51
438.049	1.5
438.253	1.52
438.458	1.52
438.662	1.49
438.867	1.47
439.071	1.5
439.275	1.55
439.48	1.57
439.684	1.57
439.888	1.53
440.093	1.58
440.297	1.58
440.501	1.61
440.706	1.62
440.91	1.67
441.114	1.68
441.318	1.66
441.523	1.67
441.727	1.64
441.931	1.7
442.135	1.67
442.339	1.65
442.543	1.66
442.748	1.62
442.952	1.62
443.156	1.56
443.36	1.59
443.564	1.57
443.768	1.55
443.972	1.56
444.176	1.48
444.38	1.51
444.584	1.49
444.788	1.47
444.992	1.47
445.196	1.43
445.4	1.46
445.604	1.42
445.808	1.45
446.012	1.48
446.216	1.47
446.42	1.46
446.624	1.48
446.828	1.45
447.032	1.45
447.235	1.45
447.439	1.45
447.643	1.46
447.847	1.47
448.051	1.43
448.254	1.43
448.458	1.41
448.662	1.46
448.866	1.4
449.069	1.44
449.273	1.48
449.477	1.49
449.681	1.52
449.884	1.56
450.088	1.56
450.292	1.58
450.495	1.55
450.699	1.63
450.902	1.58
451.106	1.63
451.31	1.64
451.513	1.62
451.717	1.6
451.92	1.6
452.124	1.53
452.327	1.54
452.531	1.53
452.734	1.56
452.938	1.49
453.141	1.52
453.345	1.54
453.548	1.51
453.752	1.53
453.955	1.55
454.158	1.56
454.362	1.57
454.565	1.59
454.769	1.52
454.972	1.5
455.175	1.45
455.379	1.45
455.582	1.38
455.785	1.41
455.988	1.33
456.192	1.29
456.395	1.25
456.598	1.26
456.801	1.23
457.005	1.3
457.208	1.31
457.411	1.34
457.614	1.34
457.817	1.34
458.021	1.29
458.224	1.3
458.427	1.36
458.63	1.37
458.833	1.33
459.036	1.35
459.239	1.36
459.442	1.35
459.645	1.37
459.848	1.41
460.051	1.44
460.254	1.46
460.457	1.51
460.66	1.48
460.863	1.48
461.066	1.53
461.269	1.55
461.472	1.56
461.675	1.56
461.878	1.57
462.081	1.53
462.284	1.51
462.486	1.52
462.689	1.51
462.892	1.56
463.095	1.55
463.298	1.53
463.5	1.48
463.703	1.45
463.906	1.46
464.109	1.47
464.311	1.51
464.514	1.52
464.717	1.5
464.92	1.48
465.122	1.46
465.325	1.54
465.528	1.54
465.73	1.56
465.933	1.57
466.135	1.59
466.338	1.56
466.541	1.55
466.743	1.55
466.946	1.55
467.148	1.56
467.351	1.54
467.553	1.5
467.756	1.54
467.958	1.53
468.161	1.55
468.363	1.5
468.566	1.52
468.768	1.46
468.971	1.48
469.173	1.49
469.375	1.48
469.578	1.55
469.78	1.5
469.983	1.48
470.185	1.49
470.387	1.5
470.59	1.53
470.792	1.51
470.994	1.57
471.196	1.53
471.399	1.5
471.601	1.46
471.803	1.36
472.005	1.41
472.208	1.39
472.41	1.36
472.612	1.36
472.814	1.38
473.016	1.42
473.218	1.43
473.421	1.45
473.623	1.47
473.825	1.49
474.027	1.55
474.229	1.5
474.431	1.5
474.633	1.52
474.835	1.51
475.037	1.44
475.239	1.42
475.441	1.41
475.643	1.4
475.845	1.44
476.047	1.47
476.249	1.42
476.451	1.48
476.653	1.51
476.855	1.5
477.057	1.47
477.258	1.49
477.46	1.47
477.662	1.48
477.864	1.49
478.066	1.49
478.268	1.48
478.469	1.51
478.671	1.47
478.873	1.43
479.075	1.45
479.276	1.45
479.478	1.47
479.68	1.46
479.882	1.44
480.083	1.47
480.285	1.45
480.487	1.42
480.688	1.39
480.89	1.42
481.091	1.43
481.293	1.43
481.495	1.44
481.696	1.43
481.898	1.43
482.099	1.42
482.301	1.4
482.502	1.4
482.704	1.4
482.905	1.41
483.107	1.4
483.308	1.4
483.51	1.38
483.711	1.38
483.913	1.38
484.114	1.39
484.315	1.39
484.517	1.4
484.718	1.41
484.92	1.4
485.121	1.4
485.322	1.41
485.524	1.42
485.725	1.44
485.926	1.46
486.127	1.46
486.329	1.45
486.53	1.46
486.731	1.45
486.932	1.45
487.134	1.45
487.335	1.45
487.536	1.45
487.737	1.44
487.938	1.43
488.139	1.41
488.341	1.42
488.542	1.42
488.743	1.42
488.944	1.42
489.145	1.42
489.346	1.42
489.547	1.43
489.748	1.43
489.949	1.44
490.15	1.45
490.351	1.46
490.552	1.46
490.753	1.44
490.954	1.44
491.155	1.44
491.356	1.42
491.557	1.41
491.758	1.43
491.959	1.41
492.159	1.38
492.36	1.39
492.561	1.37
492.762	1.37
492.963	1.39
493.164	1.38
493.364	1.4
493.565	1.45
493.766	1.47
493.967	1.45
494.167	1.46
494.368	1.49
494.569	1.47
494.769	1.46
494.97	1.45
495.171	1.44
495.371	1.47
495.572	1.47
495.773	1.48
495.973	1.46
496.174	1.49
496.375	1.53
496.575	1.55
496.776	1.57
496.976	1.63
497.177	1.65
497.377	1.65
497.578	1.67
497.778	1.67
497.979	1.68
498.179	1.73
498.38	1.74
498.58	1.73
498.78	1.73
498.981	1.77
499.181	1.75
499.382	1.74
499.582	1.8
499.782	1.8
499.983	1.79
500.183	1.8
500.383	1.77
500.584	1.76
500.784	1.76
500.984	1.79
501.184	1.76
501.385	1.77
501.585	1.79
501.785	1.75
501.985	1.77
502.185	1.78
502.386	1.75
502.586	1.78
502.786	1.82
502.986	1.82
503.186	1.84
503.386	1.87
503.586	1.87
503.786	1.87
503.987	1.9
504.187	1.93
504.387	1.95
504.587	1.94
504.787	1.94
504.987	1.95
505.187	1.94
505.387	1.94
505.587	1.93
505.786	1.99
505.986	1.98
506.186	2
506.386	1.98
506.586	1.97
506.786	2.03
506.986	2.05
507.186	2.04
507.386	2.1
507.585	2.12
507.785	2.15
507.985	2.16
508.185	2.21
508.384	2.21
508.584	2.21
508.784	2.25
508.984	2.27
509.183	2.3
509.383	2.33
509.583	2.3
509.782	2.33
509.982	2.32
510.182	2.31
510.381	2.32
510.581	2.36
510.781	2.35
510.98	2.37
511.18	2.34
511.379	2.39
511.579	2.41
511.778	2.43
511.978	2.42
512.177	2.45
512.377	2.49
512.576	2.52
512.776	2.51
512.975	2.55
513.175	2.57
513.374	2.58
513.573	2.57
513.773	2.59
513.972	2.63
514.172	2.68
514.371	2.72
514.57	2.69
514.77	2.69
514.969	2.68
515.168	2.71
515.367	2.73
515.567	2.75
515.766	2.77
515.965	2.79
516.164	2.82
516.364	2.77
516.563	2.79
516.762	2.84
516.961	2.85
517.16	2.92
517.359	2.93
517.559	2.96
517.758	3
517.957	3.02
518.156	3.04
518.355	3.03
518.554	3.08
518.753	3.08
518.952	3.1
519.151	3.13
519.35	3.16
519.549	3.19
519.748	3.2
519.947	3.23
520.146	3.23
520.345	3.24
520.544	3.3
520.743	3.31
520.942	3.31
521.141	3.31
521.339	3.33
521.538	3.32
521.737	3.33
521.936	3.34
522.135	3.36
522.333	3.38
522.532	3.37
522.731	3.4
522.93	3.43
523.129	3.47
523.327	3.47
523.526	3.49
523.725	3.52
523.923	3.54
524.122	3.55
524.321	3.55
524.519	3.56
524.718	3.58
524.917	3.57
525.115	3.56
525.314	3.59
525.512	3.6
525.711	3.63
525.909	3.61
526.108	3.63
526.306	3.62
526.505	3.62
526.703	3.64
526.902	3.66
527.1	3.65
527.299	3.67
527.497	3.68
527.696	3.69
527.894	3.7
528.092	3.7
528.291	3.71
528.489	3.74
528.688	3.75
528.886	3.78
529.084	3.79
529.283	3.82
529.481	3.83
529.679	3.84
529.877	3.85
530.076	3.85
530.274	3.89
530.472	3.92
530.67	3.93
530.869	3.96
531.067	3.96
531.265	3.97
531.463	4
531.661	3.99
531.859	4.03
532.057	4.07
532.255	4.11
532.454	4.09
532.652	4.1
532.85	4.09
533.048	4.1
533.246	4.11
533.444	4.14
533.642	4.17
533.84	4.2
534.038	4.21
534.236	4.24
534.434	4.23
534.632	4.26
534.83	4.25
535.027	4.3
535.225	4.31
535.423	4.37
535.621	4.36
535.819	4.36
536.017	4.35
536.215	4.34
536.412	4.32
536.61	4.37
536.808	4.39
537.006	4.4
537.203	4.43
537.401	4.46
537.599	4.43
537.797	4.46
537.994	4.51
538.192	4.55
538.39	4.58
538.587	4.58
538.785	4.57
538.983	4.6
539.18	4.67
539.378	4.66
539.575	4.68
539.773	4.71
539.97	4.72
540.168	4.72
540.366	4.75
540.563	4.75
540.761	4.77
540.958	4.79
541.155	4.8
541.353	4.81
541.55	4.83
541.748	4.83
541.945	4.85
542.143	4.84
542.34	4.87
542.537	4.87
542.735	4.9
542.932	4.92
543.129	4.93
543.327	4.96
543.524	4.98
543.721	5.02
543.919	5.05
544.116	5.07
544.313	5.14
544.51	5.15
544.708	5.18
544.905	5.18
545.102	5.17
545.299	5.2
545.496	5.2
545.693	5.2
545.891	5.18
546.088	5.22
546.285	5.23
546.482	5.2
546.679	5.23
546.876	5.24
547.073	5.28
547.27	5.37
547.467	5.41
547.664	5.41
547.861	5.48
548.058	5.46
548.255	5.46
548.452	5.47
548.649	5.52
548.846	5.54
549.043	5.5
549.24	5.54
549.437	5.49
549.633	5.48
549.83	5.53
550.027	5.51
550.224	5.62
550.421	5.63
550.618	5.64
550.814	5.66
551.011	5.69
551.208	5.8
551.405	5.8
551.601	5.82
551.798	5.84
551.995	5.87
552.191	5.9
552.388	5.82
552.585	5.89
552.781	5.9
552.978	5.92
553.175	5.89
553.371	5.87
553.568	5.88
553.764	5.88
553.961	5.9
554.157	5.89
554.354	5.88
554.55	6
554.747	5.97
554.943	5.94
555.14	5.95
555.336	6.04
555.533	6.03
555.729	6.06
555.926	6.11
556.122	6.09
556.318	6.14
556.515	6.14
556.711	6.12
556.907	6.15
557.104	6.2
557.3	6.17
557.496	6.12
557.693	6.18
557.889	6.18
558.085	6.21
558.281	6.24
558.478	6.2
558.674	6.22
558.87	6.21
559.066	6.18
559.262	6.19
559.459	6.23
559.655	6.27
559.851	6.28
560.047	6.27
560.243	6.27
560.439	6.28
560.635	6.3
560.831	6.29
561.027	6.33
561.223	6.39
561.419	6.43
561.615	6.44
561.811	6.43
562.007	6.43
562.203	6.48
562.399	6.51
562.595	6.51
562.791	6.48
562.987	6.51
563.183	6.5
563.379	6.52
563.575	6.49
563.771	6.56
563.966	6.5
564.162	6.48
564.358	6.47
564.554	6.44
564.75	6.47
564.945	6.53
565.141	6.52
565.337	6.52
565.533	6.52
565.728	6.57
565.924	6.5
566.12	6.59
566.315	6.65
566.511	6.63
566.707	6.62
566.902	6.61
567.098	6.56
567.293	6.6
567.489	6.62
567.684	6.61
567.88	6.57
568.076	6.6
568.271	6.58
568.467	6.57
568.662	6.6
568.858	6.6
569.053	6.64
569.248	6.69
569.444	6.71
569.639	6.73
569.835	6.76
570.03	6.79
570.225	6.75
570.421	6.81
570.616	6.84
570.812	6.86
571.007	6.92
571.202	6.93
571.397	6.91
571.593	6.9
571.788	6.9
571.983	6.93
572.178	6.97
572.374	6.99
572.569	6.96
572.764	6.96
572.959	6.97
573.154	6.96
573.35	6.94
573.545	6.95
573.74	6.93
573.935	6.92
574.13	6.86
574.325	6.83
574.52	6.8
574.715	6.78
574.91	6.73
575.105	6.71
575.3	6.72
575.495	6.73
575.69	6.75
575.885	6.79
576.08	6.76
576.275	6.81
576.47	6.85
576.665	6.93
576.86	6.98
577.055	7.07
577.25	7.1
577.444	7.11
577.639	7.09
577.834	7.14
578.029	7.11
578.224	7.17
578.418	7.15
578.613	7.12
578.808	7.09
579.003	7.11
579.197	7.08
579.392	7.06
579.587	7.07
579.781	7.08
579.976	7.03
580.171	7.02
580.365	7.04
580.56	7.05
580.755	7.08
580.949	7.11
581.144	7.06
581.338	7.08
581.533	7.09
581.727	7.08
581.922	7.06
582.116	7.12
582.311	7.11
582.505	7.07
582.7	7.07
582.894	7.11
583.089	7.09
583.283	7.08
583.478	7.02
583.672	7.01
583.866	6.94
584.061	6.99
584.255	6.97
584.449	6.97
584.644	7.03
584.838	7
585.032	6.97
585.226	6.96
585.421	7.03
585.615	7.12
585.809	7.15
586.003	7.19
586.198	7.2
586.392	7.21
586.586	7.29
586.78	7.22
586.974	7.28
587.168	7.28
587.363	7.28
587.557	7.26
587.751	7.26
587.945	7.21
588.139	7.23
588.333	7.25
588.527	7.24
588.721	7.23
588.915	7.26
589.109	7.22
589.303	7.17
589.497	7.19
589.691	7.21
589.885	7.18
590.079	7.26
590.273	7.24
590.466	7.25
590.66	7.29
590.854	7.27
591.048	7.23
591.242	7.26
591.436	7.29
591.629	7.3
591.823	7.29
592.017	7.3
592.211	7.28
592.404	7.28
592.598	7.23
592.792	7.22
592.986	7.22
593.179	7.23
593.373	7.18
593.567	7.2
593.76	7.21
593.954	7.19
594.147	7.19
594.341	7.2
594.535	7.26
594.728	7.29
594.922	7.25
595.115	7.23
595.309	7.29
595.502	7.37
595.696	7.35
595.889	7.35
596.083	7.36
596.276	7.29
596.47	7.28
596.663	7.26
596.856	7.28
597.05	7.32
597.243	7.35
597.437	7.36
597.63	7.32
597.823	7.35
598.017	7.35
598.21	7.34
598.403	7.47
598.596	7.47
598.79	7.52
598.983	7.5
599.176	7.45
599.369	7.42
599.563	7.39
599.756	7.4
599.949	7.35
600.142	7.31
600.335	7.36
600.528	7.29
600.722	7.3
600.915	7.23
601.108	7.23
601.301	7.28
601.494	7.27
601.687	7.28
601.88	7.27
602.073	7.34
602.266	7.35
602.459	7.33
602.652	7.3
602.845	7.32
603.038	7.36
603.231	7.35
603.424	7.32
603.617	7.34
603.809	7.34
604.002	7.35
604.195	7.28
604.388	7.32
604.581	7.28
604.774	7.3
604.966	7.3
605.159	7.26
605.352	7.31
605.545	7.39
605.737	7.47
605.93	7.43
606.123	7.4
606.316	7.42
606.508	7.35
606.701	7.46
606.894	7.5
607.086	7.54
607.279	7.52
607.471	7.51
607.664	7.47
607.857	7.43
608.049	7.51
608.242	7.55
608.434	7.6
608.627	7.7
608.819	7.65
609.012	7.65
609.204	7.59
609.397	7.72
609.589	7.7
609.782	7.71
609.974	7.73
610.166	7.78
610.359	7.82
610.551	7.85
610.743	7.84
610.936	7.84
611.128	7.86
611.32	7.89
611.513	7.78
611.705	7.82
611.897	7.79
612.09	7.73
612.282	7.68
612.474	7.56
612.666	7.62
612.858	7.55
613.051	7.6
613.243	7.58
613.435	7.63
613.627	7.65
613.819	7.6
614.011	7.54
614.203	7.53
614.395	7.49
614.588	7.55
614.78	7.47
614.972	7.45
615.164	7.39
615.356	7.33
615.548	7.29
615.74	7.31
615.932	7.29
616.124	7.34
616.315	7.37
616.507	7.33
616.699	7.39
616.891	7.41
617.083	7.48
617.275	7.59
617.467	7.62
617.659	7.57
617.85	7.58
618.042	7.65
618.234	7.59
618.426	7.62
618.618	7.74
618.809	7.71
619.001	7.7
619.193	7.76
619.384	7.68
619.576	7.75
619.768	7.78
619.959	7.75
620.151	7.8
620.343	7.84
620.534	7.78
620.726	7.73
620.917	7.77
621.109	7.65
621.301	7.61
621.492	7.56
621.684	7.5
621.875	7.51
622.067	7.51
622.258	7.47
622.45	7.51
622.641	7.58
622.832	7.58
623.024	7.56
623.215	7.62
623.407	7.64
623.598	7.7
623.789	7.71
623.981	7.74
624.172	7.84
624.363	7.8
624.555	7.82
624.746	7.83
624.937	7.8
625.129	7.76
625.32	7.68
625.511	7.65
625.702	7.6
625.893	7.62
626.085	7.58
626.276	7.55
626.467	7.57
626.658	7.58
626.849	7.58
627.04	7.62
627.231	7.69
627.422	7.83
627.614	7.84
627.805	7.95
627.996	7.95
628.187	7.97
628.378	7.94
628.569	7.91
628.76	7.84
628.951	7.84
629.142	7.78
629.332	7.72
629.523	7.64
629.714	7.68
629.905	7.69
630.096	7.65
630.287	7.7
630.478	7.74
630.669	7.83
630.859	7.89
631.05	7.92
631.241	8
631.432	8.04
631.623	8.14
631.813	8.06
632.004	7.96
632.195	7.97
632.385	7.87
632.576	7.87
632.767	7.86
632.957	7.94
633.148	7.92
633.339	7.82
633.529	7.82
633.72	7.79
633.91	7.77
634.101	7.8
634.292	7.81
634.482	7.8
634.673	7.74
634.863	7.68
635.054	7.58
635.244	7.55
635.435	7.67
635.625	7.64
635.815	7.62
636.006	7.72
636.196	7.71
636.387	7.7
636.577	7.76
636.767	7.8
636.958	7.78
637.148	7.76
637.338	7.73
637.529	7.77
637.719	7.81
637.909	7.79
638.099	7.8
638.29	7.81
638.48	7.97
638.67	8.03
638.86	7.99
639.05	8.02
639.241	8.05
639.431	8.13
639.621	8.02
639.811	8.04
640.001	7.99
640.191	7.94
640.381	7.89
640.571	7.78
640.761	7.77
640.951	7.77
641.141	7.81
641.331	7.75
641.521	7.7
641.711	7.65
641.901	7.57
642.091	7.66
642.281	7.63
642.471	7.61
642.661	7.65
642.851	7.57
643.041	7.5
643.231	7.48
643.42	7.52
643.61	7.5
643.8	7.49
643.99	7.58
644.18	7.52
644.369	7.57
644.559	7.74
644.749	7.65
644.939	7.72
645.128	7.7
645.318	7.66
645.508	7.71
645.697	7.77
645.887	7.86
646.076	7.89
646.266	7.99
646.456	7.96
646.645	7.77
646.835	7.83
647.024	7.77
647.214	7.86
647.403	7.91
647.593	7.9
647.782	7.93
647.972	7.89
648.161	7.72
648.351	7.73
648.54	7.78
648.73	7.85
648.919	7.9
649.108	7.89
649.298	7.79
649.487	7.83
649.677	7.78
649.866	7.7
650.055	7.72
650.244	7.85
650.434	7.77
650.623	7.74
650.812	7.79
651.002	7.77
651.191	7.77
651.38	7.86
651.569	7.85
651.758	7.88
651.947	7.91
652.137	7.91
652.326	7.84
652.515	7.79
652.704	7.79
652.893	7.86
653.082	7.83
653.271	7.97
653.46	7.97
653.649	7.97
653.838	7.87
654.027	7.93
654.216	7.91
654.405	7.99
654.594	8.12
654.783	8.14
654.972	8.08
655.161	8.11
655.35	8.05
655.539	8.09
655.728	8.1
655.916	8.14
656.105	8.13
656.294	8.17
656.483	8.07
656.672	8.03
656.86	8.03
657.049	7.95
657.238	7.93
657.427	7.86
657.615	7.88
657.804	7.8
657.993	7.83
658.181	7.76
658.37	7.72
658.559	7.74
658.747	7.74
658.936	7.78
659.125	7.78
659.313	7.8
659.502	7.82
659.69	7.8
659.879	7.85
660.067	7.88
660.256	7.9
660.444	8.07
660.633	8.15
660.821	8.15
661.01	8.11
661.198	8.18
661.387	8.13
661.575	8.13
661.763	8.13
661.952	8.2
662.14	8.21
662.328	8.26
662.517	8.02
662.705	7.98
662.893	8.03
663.082	7.99
663.27	7.97
663.458	7.92
663.646	7.95
663.834	8.04
664.023	8
664.211	7.98
664.399	7.99
664.587	8
664.775	8
664.963	7.93
665.152	7.94
665.34	8.03
665.528	8.14
665.716	8.1
665.904	8.04
666.092	8.18
666.28	8.2
666.468	8.25
666.656	8.4
666.844	8.47
667.032	8.53
667.22	8.58
667.408	8.48
667.596	8.44
667.784	8.46
667.971	8.5
668.159	8.34
668.347	8.21
668.535	8.07
668.723	8.01
668.911	7.85
669.098	7.83
669.286	7.81
669.474	7.91
669.662	7.82
669.849	7.89
670.037	7.74
670.225	7.78
670.413	7.89
670.6	8.05
670.788	8
670.976	8.07
671.163	7.96
671.351	7.95
671.538	7.91
671.726	8.02
671.913	8
672.101	8.05
672.289	8.01
672.476	8.03
672.664	8.01
672.851	7.94
673.039	7.9
673.226	7.97
673.413	8.06
673.601	8.02
673.788	8
673.976	7.95
674.163	7.94
674.35	7.95
674.538	7.94
674.725	7.89
674.912	8.05
675.1	8.14
675.287	8.14
675.474	8.13
675.662	8.25
675.849	8.29
676.036	8.4
676.223	8.52
676.411	8.52
676.598	8.57
676.785	8.65
676.972	8.66
677.159	8.71
677.346	8.76
677.533	8.72
677.721	8.76
677.908	8.81
678.095	8.75
678.282	8.72
678.469	8.72
678.656	8.6
678.843	8.52
679.03	8.44
679.217	8.43
679.404	8.29
679.591	8.28
679.778	8.08
679.964	8.02
680.151	8.04
680.338	8.08
680.525	8.17
680.712	8.2
680.899	8.22
681.086	8.2
681.272	8.19
681.459	8.37
681.646	8.43
681.833	8.52
682.02	8.52
682.206	8.49
682.393	8.32
682.58	8.21
682.766	8.25
682.953	8.18
683.14	8.26
683.326	8.2
683.513	8.11
683.7	8
683.886	8.04
684.073	7.96
684.259	7.98
684.446	8.15
684.632	8.25
684.819	8.14
685.005	8.37
685.192	8.39
685.378	8.45
685.565	8.37
685.751	8.39
685.938	8.33
686.124	8.29
686.31	8.28
686.497	8.2
686.683	8.25
686.87	8.37
687.056	8.15
687.242	8.12
687.429	8.13
687.615	8.26
687.801	8.36
687.987	8.34
688.174	8.39
688.36	8.48
688.546	8.44
688.732	8.39
688.918	8.33
689.105	8.4
689.291	8.35
689.477	8.36
689.663	8.31
689.849	8.25
690.035	8.41
690.221	8.44
690.407	8.23
690.593	8.28
690.779	8.3
690.965	8.35
691.151	8.38
691.337	8.4
691.523	8.45
691.709	8.45
691.895	8.5
692.081	8.32
692.267	8.46
692.453	8.43
692.639	8.38
692.825	8.33
693.011	8.31
693.196	8.29
693.382	8.43
693.568	8.32
693.754	8.34
693.94	8.16
694.125	8.29
694.311	8.24
694.497	8.52
694.682	8.59
694.868	8.62
695.054	8.58
695.239	8.59
695.425	8.47
695.611	8.55
695.796	8.61
695.982	8.79
696.168	8.7
696.353	8.76
696.539	8.75
696.724	8.72
696.91	8.73
697.095	8.83
697.281	8.78
697.466	8.86
697.652	8.8
697.837	8.82
698.023	8.77
698.208	8.82
698.393	8.86
698.579	8.78
698.764	8.8
698.949	8.71
699.135	8.62
699.32	8.74
699.505	8.69
699.691	8.67
699.876	8.75
700.061	8.79
700.246	8.71
700.432	8.52
700.617	8.53
700.802	8.61
700.987	8.81
701.172	8.65
701.358	8.56
701.543	8.74
701.728	8.84
701.913	8.6
702.098	8.63
702.283	8.75
702.468	8.89
702.653	8.83
702.838	8.87
703.023	8.76
703.208	9.06
703.393	9.02
703.578	8.95
703.763	9.01
703.948	9.04
704.133	9.03
704.318	8.83
704.503	8.85
704.688	9.11
704.873	9
705.057	9.02
705.242	8.8
705.427	8.8
705.612	8.68
705.797	8.75
705.981	8.85
706.166	8.85
706.351	8.85
706.536	8.84
706.72	8.65
706.905	8.68
707.09	8.66
707.274	8.8
707.459	8.74
707.644	8.78
707.828	8.57
708.013	8.57
708.197	8.61
708.382	8.72
708.567	8.65
708.751	8.7
708.936	8.61
709.12	8.65
709.305	8.62
709.489	8.73
709.673	8.57
709.858	8.62
710.042	8.64
710.227	8.59
710.411	8.64
710.596	8.86
710.78	8.97
710.964	8.94
711.149	8.95
711.333	9.08
711.517	9.03
711.702	9.14
711.886	9.29
712.07	9.14
712.254	9.31
712.438	9.33
712.623	9.31
712.807	9.14
712.991	9.22
713.175	9.23
713.359	9.22
713.544	9.39
713.728	9.4
713.912	9.22
714.096	9.33
714.28	9.12
714.464	9.1
714.648	8.91
714.832	8.92
715.016	9.02
715.2	8.9
715.384	8.92
715.568	8.8
715.752	8.78
715.936	8.94
716.12	8.94
716.304	9
716.488	8.99
716.671	9.06
716.855	9.04
717.039	8.99
717.223	9.03
717.407	8.77
717.59	8.67
717.774	8.67
717.958	8.62
718.142	8.53
718.325	8.63
718.509	8.65
718.693	8.52
718.877	8.53
719.06	8.57
719.244	8.51
719.428	8.76
719.611	9
719.795	8.9
719.978	8.98
720.162	8.97
720.345	8.91
720.529	8.9
720.713	9.18
720.896	9.53
721.08	9.26
721.263	9.35
721.446	9.17
721.63	9.02
721.813	9.02
721.997	8.93
722.18	9.16
722.364	9.1
722.547	9.26
722.73	8.88
722.914	8.61
723.097	8.79
723.28	8.88
723.464	9.01
723.647	9.2
723.83	9.54
724.013	9.53
724.197	9.55
724.38	9.56
724.563	9.35
724.746	9.55
724.929	9.55
725.112	9.39
725.296	9.2
725.479	9.08
725.662	8.99
725.845	8.84
726.028	8.55
726.211	8.47
726.394	8.49
726.577	8.41
726.76	8.43
726.943	8.42
727.126	8.48
727.309	8.75
727.492	9.02
727.675	9.08
727.858	8.93
728.041	9.24
728.224	9.1
728.407	9.15
728.589	9.3
728.772	9.32
728.955	9.39
729.138	9.58
729.321	9.39
729.503	9.3
729.686	9.14
729.869	9.28
730.052	9.26
730.234	9.3
730.417	9.33
730.6	9.3
730.782	9.24
730.965	9.36
731.148	9.31
731.33	9.38
731.513	9.34
731.695	9.38
731.878	9.2
732.061	9.27
732.243	9.28
732.426	9.08
732.608	9.29
732.791	9.23
732.973	8.93
733.156	8.93
733.338	8.94
733.52	8.83
733.703	8.84
733.885	9.06
734.068	8.86
734.25	8.85
734.432	8.95
734.615	8.82
734.797	8.86
734.979	8.88
735.162	8.76
735.344	8.71
735.526	8.92
735.708	8.68
735.891	8.74
736.073	9.06
736.255	9.21
736.437	9.38
736.619	9.24
736.802	9.28
736.984	9.41
737.166	9.43
737.348	9.35
737.53	9.25
737.712	9.57
737.894	9.73
738.076	9.6
738.258	9.42
738.44	9.31
738.622	9.43
738.804	9.5
738.986	9.5
739.168	9.78
739.35	9.83
739.532	9.81
739.714	9.48
739.896	9.23
740.078	9.19
740.259	9.36
740.441	9.44
740.623	9.48
740.805	9.33
740.987	9.36
741.168	9.02
741.35	8.76
741.532	8.84
741.714	9.13
741.895	9.28
742.077	9.15
742.259	9.35
742.44	9.24
742.622	8.91
742.804	9.23
742.985	9.25
743.167	9.44
743.348	9.6
743.53	9.9
743.711	9.93
743.893	9.49
744.075	9.52
744.256	9.18
744.438	9.11
744.619	9.38
744.8	9.05
744.982	9.11
745.163	9.23
745.345	9.31
745.526	8.96
745.707	8.92
745.889	9.21
746.07	9.38
746.252	9.38
746.433	9.5
746.614	9.42
746.795	9.44
746.977	9.49
747.158	9.26
747.339	9.33
747.52	9.19
747.702	9.29
747.883	9.16
748.064	8.99
748.245	9
748.426	8.9
748.607	9.05
748.788	9.13
748.97	8.8
749.151	9.1
749.332	9.11
749.513	9.65
749.694	9.41
749.875	9.68
750.056	9.93
750.237	10.17
750.418	10.16
750.599	9.88
750.78	10.03
750.96	10.36
751.141	10.26
751.322	10.48
751.503	9.92
751.684	10.19
751.865	9.95
752.046	10.09
752.226	9.87
752.407	10.13
752.588	10.23
752.769	10.14
752.949	10.04
753.13	10.06
753.311	9.89
753.492	9.89
753.672	9.76
753.853	9.75
754.034	9.72
754.214	9.8
754.395	9.4
754.575	9.5
754.756	9.31
754.937	9.1
755.117	9.06
755.298	9
755.478	9.4
755.659	9.68
755.839	9.64
756.02	9.63
756.2	9.45
756.381	9.22
756.561	9.13
756.741	9.37
756.922	9.3
757.102	9.21
757.283	9.48
757.463	9.4
757.643	9.31
757.823	9.65
758.004	9.2
758.184	9.38
758.364	9.94
758.545	9.98
758.725	10.08
758.905	10.33
759.085	10.27
759.265	10.09
759.446	9.9
759.626	9.99
759.806	9.87
759.986	10.34
760.166	10.21
760.346	9.96
760.526	9.97
760.706	9.9
760.886	9.96
761.066	9.88
761.246	9.95
761.426	10.15
761.606	9.66
761.786	9.51
761.966	9.62
762.146	9.8
762.326	9.82
762.506	9.76
762.686	9.9
762.866	9.78
763.046	9.91
763.225	10.02
763.405	9.92
763.585	10.24
763.765	10.32
763.945	10.03
764.124	9.88
764.304	9.91
764.484	10.17
764.664	10.16
764.843	10.38
765.023	10.27
765.203	10.14
765.382	10.2
765.562	10.21
765.741	10.35
765.921	10.46
766.101	10.69
766.28	10.83
766.46	10.55
766.639	10.29
766.819	10.03
766.998	10.17
767.178	10.21
767.357	10.1
767.537	9.72
767.716	9.52
767.896	9.57
768.075	9.2
768.254	9.05
768.434	9.29
768.613	9.2
768.792	9.36
768.972	9.52
769.151	9.32
769.33	9.4
769.51	9.74
769.689	9.62
769.868	9.59
770.047	9.69
770.226	10.03
770.406	9.93
770.585	9.98
770.764	9.87
770.943	9.63
771.122	9.84
771.301	9.78
771.48	10.06
771.66	10.26
771.839	10.17
772.018	10.2
772.197	9.95
772.376	9.85
772.555	9.89
772.734	9.93
772.913	9.99
773.092	9.76
773.271	9.53
773.449	9.26
773.628	9.76
773.807	9.79
773.986	9.68
774.165	9.57
774.344	9.62
774.523	9.65
774.701	9.68
774.88	9.56
775.059	9.69
775.238	9.98
775.417	9.53
775.595	8.84
775.774	9.15
775.953	9.38
776.131	9.54
776.31	9.44
776.489	9.53
776.667	9.64
776.846	10.25
777.025	10.01
777.203	10.1
777.382	10.76
777.56	10.79
777.739	10.53
777.917	10.42
778.096	10.49
778.274	10.68
778.453	10.86
778.631	10.2
778.81	9.37
778.988	9.31
779.166	9.39
779.345	9.25
779.523	9.41
779.702	9.66
779.88	9.7
780.058	9.65
780.237	9.31
780.415	9.37
780.593	10.03
780.771	10.61
780.95	10.92
781.128	10.65
781.306	10.66
781.484	11.22
781.662	10.87
781.841	10.84
782.019	10.73
782.197	11.13
782.375	11.08
782.553	11.06
782.731	10.94
782.909	11.09
783.087	11.35
783.265	11.69
783.443	10.92
783.621	10.96
783.799	11.25
783.977	10.54
784.155	10.51
784.333	10.42
784.511	10.1
784.689	9.8
784.867	9.9
785.045	8.98
785.223	8.3
785.4	8.38
785.578	8.32
785.756	8.01
785.934	8.56
786.112	8.27
786.289	8.42
786.467	8.58
786.645	8.74
786.823	8.53
787	9.24
787.178	9.63
787.356	9.84
787.533	10.38
787.711	10.65
787.889	11.07
788.066	11.19
788.244	10.74
788.421	10.98
788.599	11.33
788.776	11.61
788.954	11.64
789.131	11.54
789.309	11.06
789.486	10.6
789.664	10.75
789.841	10.26
790.019	10
790.196	10.02
790.373	9.38
790.551	8.65
790.728	8.41
790.906	8.31
791.083	7.54
791.26	8.15
791.437	7.94
791.615	7.66
791.792	7.55
791.969	7.9
792.146	8.3
792.324	8.65
792.501	9.31
792.678	9.51
792.855	9.31
793.032	10.04
793.209	10.2
793.387	10.57
793.564	10.46
793.741	11.01
793.918	10.88
794.095	10.83
794.272	11.28
794.449	10.89
794.626	10.84
794.803	10.56
794.98	10.03
795.157	9.87
795.334	10.16
795.511	9.64
795.688	9.46
795.864	9.74
796.041	10.23
796.218	9.97
796.395	10.5
796.572	10.87
796.749	11.08
796.925	11.55
797.102	11.67
797.279	11.25
797.456	11.88
797.632	11.43
797.809	11.34
797.986	10.5
798.162	10.65
798.339	10.27
798.516	9.68
798.692	10.16
798.869	10.54
799.046	10.28
799.222	10.31
799.399	10.01
799.575	10.69
799.752	9.8
799.928	10.2
800.105	9.74
800.281	9.68
800.458	10.56
800.634	10.4
800.811	10.08
800.987	10.12
801.163	9.97
801.34	9.81
801.516	9.51
801.692	10.63
801.869	10.67
802.045	11.4
802.221	11.28
802.398	10.09
802.574	9.97
802.75	10.25
802.926	10.49
803.103	10.04
803.279	11
803.455	11.58
803.631	12.2
803.807	11.48
803.983	10.87
804.16	10.68
804.336	10.84
804.512	11.32
804.688	11.11
804.864	10.92
805.04	12.26
805.216	11.97
805.392	11.12
805.568	10.49
805.744	11.67
805.92	12.05
806.096	12.54
806.272	12.91
806.448	12.39
806.623	11.25
806.799	11.5
806.975	11.15
807.151	11.32
807.327	11.45
807.503	11.65
807.678	11.1
807.854	10.78
808.03	11.3
808.206	10.97
808.381	11.39
808.557	11.85
808.733	11.97
808.908	11.55
809.084	10.61
809.26	10.84
809.435	10.14
809.611	9.93
809.787	10.16
809.962	8.93
810.138	9.66
810.313	9.93
810.489	10.41
810.664	9.51
810.84	9.43
811.015	10.19
811.191	9.92
811.366	9.69
811.542	9.66
811.717	9.78
811.892	11.01
812.068	10.32
812.243	10.11
812.419	10.35
812.594	11.53
812.769	11.79
812.944	12.02
813.12	11.93
813.295	12.77
813.47	13.26
813.645	13.52
813.821	13.14
813.996	13.14
814.171	12.9
814.346	12.81
814.521	12.23
814.697	11.67
814.872	11.58
815.047	12.11
815.222	11.18
815.397	11.45
815.572	11.6
815.747	11.86
815.922	11.43
816.097	11.33
816.272	10.96
816.447	10.73
816.622	11.05
816.797	10.17
816.972	10.35
817.147	11.23
817.322	10.14
817.496	9.18
817.671	8.99
817.846	9.27
818.021	8.62
818.196	8.38
818.371	8.75
818.545	9.2
818.72	9.78
818.895	9.6
819.069	9.51
819.244	10.35
819.419	10.77
819.594	11.17
819.768	11.36
819.943	11.9
820.117	12.03
820.292	11.94
820.467	12.08
820.641	12.08
820.816	12.07
820.99	12.07
821.165	12.08
821.339	12.13
821.514	11.9
821.688	11.89
821.863	11.83
822.037	11.91
822.212	11.89
822.386	11.81
822.56	11.77
822.735	11.72
822.909	11.77
823.084	11.52
823.258	11.54
823.432	11.74
823.606	11.63
823.781	11.71
823.955	11.62
824.129	11.58
824.303	11.58
824.478	11.73
824.652	11.71
824.826	11.65
825	11.97
825.174	11.64
825.348	11.39
825.523	11.72
825.697	11.35
825.871	11.38
826.045	11.52
826.219	11.48
826.393	11.39
826.567	11.67
826.741	11.7
826.915	11.85
827.089	11.85
827.263	11.92
827.437	11.74
827.611	11.97
827.784	11.88
827.958	11.83
828.132	11.99
828.306	11.86
828.48	11.6
828.654	11.51
828.827	10.95
829.001	10.97
829.175	10.81
829.349	10.87
829.522	11.2
829.696	11.51
829.87	11.89
830.044	11.75
830.217	11.84
830.391	12.04
830.565	11.81
830.738	12.11
830.912	11.95
831.085	12.21
831.259	12.27
831.432	11.51
831.606	11.45
831.779	11.16
831.953	11.09
832.126	11.38
832.3	11.14
832.473	11.42
832.647	11.22
832.82	11.59
832.994	11.52
833.167	11.23
833.34	11.69
833.514	11.44
833.687	11.45
833.86	10.97
834.034	10.77
834.207	10.72
834.38	10.32
834.553	10.44
834.727	10.15
834.9	9.88
835.073	9.63
835.246	9.03
835.419	9.2
835.593	9.22
835.766	10.02
835.939	9.74
836.112	10.21
836.285	10.43
836.458	10.45
836.631	11.1
836.804	11.01
836.977	11.36
837.15	12.17
837.323	12.16
837.496	11.72
837.669	10.48
837.842	10.83
838.015	10.27
838.188	10.26
838.361	10.72
838.533	10.23
838.706	9.71
838.879	9.81
839.052	9.01
839.225	9.49
839.398	9.32
839.57	9.17
839.743	8.69
839.916	8.62
840.088	8.71
840.261	8.51
840.434	8.67
840.607	8.86
840.779	9.94
840.952	10.21
841.124	10.72
841.297	12.23
841.47	12.27
841.642	12.19
841.815	12.21
841.987	11.49
842.16	11.99
842.332	11.37
842.505	12.25
842.677	11.37
842.85	12.73
843.022	11.39
843.194	10.5
843.367	11.58
843.539	11.88
843.712	12.12
843.884	12.44
844.056	11.75
844.229	11.61
844.401	11.26
844.573	13.95
844.745	11.21
844.918	11.53
845.09	10.41
845.262	9.47
845.434	11.03
845.606	10.36
845.779	10.99
845.951	11.99
846.123	12.85
846.295	13.19
846.467	10.76
846.639	13.09
846.811	12.69
846.983	12.4
847.155	14
847.327	13.33
847.499	13.38
847.671	12.49
847.843	11
848.015	10.84
848.187	9.44
848.359	8.68
848.531	8.12
848.703	9.02
848.875	10.56
849.047	9.85
849.218	8.67
849.39	8.02
849.562	9.93
849.734	10.2
849.905	10.59
850.077	12.64
850.249	12.54
850.421	13.37
850.592	10.79
850.764	8.96
850.936	6.47
851.107	6.43
851.279	6.69
851.451	4.65
851.622	6.63
851.794	7.16
851.965	8.35
852.137	6.8
852.308	4.08
852.48	6.9
852.651	6.08
852.823	8.27
852.994	10.1
853.166	12.03
853.337	11.76
853.509	11.29
853.68	11.92
853.851	10.98
854.023	11.94
854.194	12.27
854.365	11.51
854.537	12.48
854.708	12.8
854.879	10.63
855.05	10.89
855.222	13.41
855.393	8.49
855.564	5.18
855.735	3.21
855.906	3.43
856.078	4.35
856.249	7.5
856.42	5.08
856.591	6.6
856.762	9.56
856.933	10.05
857.104	7.81
857.275	12.8
857.446	13.96
857.617	14.93
857.788	14.15
857.959	13.73
858.13	11.09
858.301	13.29
858.472	11.68
858.643	9.22
858.814	7.87
858.985	10.16
859.155	9.95
859.326	12.37
859.497	12.9
859.668	12.46
859.839	14.56
860.009	15.92
860.18	14.54
860.351	16.3
860.522	18.2
860.692	18.68
860.863	16.62
861.034	15.17
861.204	12.33
861.375	12.26
861.546	12.51
861.716	9.82
861.887	8.12
862.057	10.87
862.228	8.59
862.398	6.89
862.569	6.42
862.739	6.9
862.91	5.84
863.08	7.24
863.251	3.07
863.421	3.15
863.592	3.84
863.762	5.33
863.932	3.04
864.103	3.92
864.273	3.11
864.443	4.55
864.614	4.26
864.784	5.96
864.954	5.75
865.125	10.27
865.295	11.35
865.465	12.63
865.635	10.13
865.805	12.72
865.976	10.32
866.146	12.75
866.316	11.24
866.486	12.1
866.656	12.18
866.826	10.43
866.996	8.52
867.166	7.67
867.336	5.35
867.506	6.7
867.676	7.48
867.846	10.37
868.016	8.21
868.186	7.73
868.356	8.09
868.526	6.82
868.696	9.54
868.866	13.29
869.036	10.9
869.206	13.37
869.376	12.3
869.545	8.9
869.715	7.01
869.885	8.38
870.055	7.05
870.224	7.68
870.394	9.44
870.564	10.08
870.734	7.35
870.903	10.99
871.073	10.79
871.243	14.1
871.412	15.88
871.582	18.61
871.751	18.3
871.921	20.17
872.091	15.33
872.26	14.03
872.43	11.35
872.599	11.51
872.769	12.56
872.938	10.85
873.108	9.01
873.277	5.21
873.446	6.47
873.616	5.87
873.785	7.48
873.955	11.62
874.124	12.62
874.293	15.26
874.463	16.17
874.632	13.59
874.801	12.9
874.971	13.82
875.14	18.87
875.309	14.13
875.478	13.57
875.647	12.37
875.817	11.35
875.986	9.95
876.155	9.63
876.324	7.87
876.493	12.16
876.662	13.82
876.831	12.57
877	11.14
877.17	15.94
877.339	18.3
877.508	20.01
877.677	21.32
877.846	23.01
878.015	22.44
878.184	21.87
878.352	19.96
878.521	20.07
878.69	18.44
878.859	18.16
879.028	16.25
879.197	15.98
879.366	14.97
879.534	15.08
879.703	13.57
879.872	13.43
880.041	14.84
880.21	14.1
880.378	13.7
880.547	14.14
880.716	14.11
880.884	13.83
881.053	13.57
881.222	13.44
881.39	13.55
881.559	13.69
881.727	13.72
881.896	13.4
882.065	13.42
882.233	13.68
882.402	13.58
882.57	13.13
882.739	12.86
882.907	12.91
883.076	12.94
883.244	12.68
883.412	12.87
883.581	12.66
883.749	12.66
883.918	12.9
884.086	13.2
884.254	13
884.423	13.34
884.591	13.76
884.759	12.35
884.927	12.39
885.096	12.08
885.264	12.11
885.432	11.63
885.6	9.98
885.769	9.5
885.937	8.8
886.105	7.52
886.273	7.27
886.441	6.85
886.609	9.6
886.777	7.14
886.945	6.47
887.113	5.83
887.281	6.05
887.449	8.62
887.617	9.64
887.785	8.3
887.953	11.13
888.121	9.16
888.289	8.49
888.457	8.22
888.625	10.24
888.793	10.88
888.961	10.08
889.129	9.82
889.296	8.41
889.464	6.84
889.632	6.85
889.8	4.98
889.967	8.52
890.135	12.39
