Data from JASIL_2962_Reflection_2.txt Node
Date: Sat Nov 07 21:23:24 EST 2015
User: Geneva
Spectrometer: USB4E03002
Autoset integration time: false
Trigger mode: 4
Integration Time (sec): 1.000000E-1
Scans to average: 10
Electric dark correction enabled: true
Nonlinearity correction enabled: false
Boxcar width: 5
Stray light correction enabled: false
XAxis mode: Wavelengths
Stop averaging: false
Number of Pixels in Spectrum: 3648
>>>>>Begin Spectral Data<<<<<
177.575	12.69
177.794	-41.79
178.014	17.08
178.233	-146.08
178.452	-76.2
178.672	156.13
178.891	135.64
179.11	38.53
179.33	19.48
179.549	-29.12
179.768	33.77
179.987	21.44
180.207	-220.64
180.426	297.33
180.645	175.09
180.864	194.2
181.084	162.58
181.303	177.35
181.522	127.71
181.741	120.96
181.96	119.04
182.179	119.9
182.398	130.05
182.618	123.82
182.837	136.68
183.056	180.35
183.275	187.15
183.494	182.57
183.713	191.6
183.932	309.26
184.151	577.92
184.37	198.7
184.589	132.8
184.808	111.97
185.027	137.82
185.246	127.93
185.465	95.52
185.684	85.46
185.903	61.18
186.122	62.53
186.341	68.59
186.56	61.99
186.779	73.82
186.998	81.6
187.216	102.36
187.435	74.45
187.654	78.96
187.873	83.4
188.092	74.41
188.311	97.72
188.53	88.88
188.748	73.3
188.967	81.31
189.186	100.91
189.405	100.55
189.623	96.74
189.842	91.54
190.061	77.84
190.28	101.14
190.498	99.38
190.717	98.98
190.936	74.58
191.154	-30.06
191.373	1172.66
191.592	-219.9
191.81	-283.54
192.029	-106.71
192.248	-354.37
192.466	-207.16
192.685	-60.21
192.904	11.02
193.122	7.38
193.341	21.34
193.559	66.12
193.778	75.84
193.996	96.87
194.215	122.51
194.433	128.58
194.652	152.91
194.87	142.08
195.089	126.34
195.307	152.79
195.526	158.4
195.744	111.2
195.963	94.68
196.181	81.25
196.399	58.77
196.618	38.99
196.836	58.34
197.055	68.53
197.273	69.09
197.491	58.22
197.71	44.59
197.928	39.52
198.146	54.22
198.365	47.79
198.583	56.36
198.801	65.67
199.019	60.99
199.238	44.73
199.456	37.73
199.674	19.72
199.892	13.31
200.111	14.39
200.329	22.99
200.547	3.09
200.765	9.77
200.983	-4.66
201.202	-2.56
201.42	10.89
201.638	8.78
201.856	9.36
202.074	32.82
202.292	48.89
202.51	52.3
202.728	63.35
202.946	74.99
203.165	78.34
203.383	74.86
203.601	86.47
203.819	65.07
204.037	61.71
204.255	64.33
204.473	68.66
204.691	57.74
204.909	57.9
205.127	48.57
205.345	65.7
205.562	65.03
205.78	72.2
205.998	74.78
206.216	93.28
206.434	107.89
206.652	103.41
206.87	88.36
207.088	80.58
207.306	72.69
207.523	77.29
207.741	73.57
207.959	66.82
208.177	67.13
208.395	52.66
208.612	40.68
208.83	48.21
209.048	43.17
209.266	44.08
209.483	42.84
209.701	39.06
209.919	42.24
210.136	21.2
210.354	46.96
210.572	56.84
210.79	62.97
211.007	68.75
211.225	55.53
211.442	54.14
211.66	54.41
211.878	52.5
212.095	106.42
212.313	101.17
212.53	103.93
212.748	100.59
212.966	108.79
213.183	109.69
213.401	103
213.618	106.54
213.836	111.25
214.053	111.38
214.271	107.34
214.488	38.17
214.705	28.54
214.923	24.8
215.14	30.81
215.358	32.53
215.575	29.96
215.793	29.86
216.01	28.06
216.227	23.6
216.445	28.4
216.662	27.65
216.879	39.67
217.097	50.25
217.314	40.83
217.531	38.87
217.749	35.01
217.966	32.39
218.183	29.7
218.4	23.27
218.618	25.35
218.835	24.01
219.052	29.9
219.269	25.62
219.487	22.71
219.704	23.42
219.921	19.42
220.138	23.47
220.355	23.28
220.572	25.33
220.79	28.03
221.007	29.56
221.224	28.84
221.441	26.07
221.658	20.11
221.875	19.7
222.092	20.3
222.309	20.9
222.526	15.77
222.743	14.7
222.96	13.4
223.177	12.52
223.394	11.21
223.611	9.75
223.828	8.26
224.045	13.93
224.262	13.4
224.479	13.77
224.696	13.49
224.913	16.17
225.13	16.32
225.347	15.07
225.564	13.53
225.781	11.29
225.997	11.45
226.214	11.86
226.431	12.24
226.648	11.93
226.865	11.96
227.082	11.69
227.298	10.95
227.515	11.36
227.732	10.68
227.949	11.57
228.165	12
228.382	11.89
228.599	11.76
228.816	11.49
229.032	11.18
229.249	10.69
229.466	10.73
229.682	10.68
229.899	10.67
230.116	11.34
230.332	12.06
230.549	12.69
230.765	13.14
230.982	13.51
231.199	14.37
231.415	14.64
231.632	14.94
231.848	15
232.065	16.82
232.281	16.46
232.498	16.48
232.714	14.1
232.931	12.21
233.147	13.42
233.364	13.51
233.58	13.27
233.797	13.3
234.013	14.55
234.23	14.49
234.446	13.64
234.662	14.23
234.879	14.86
235.095	15.88
235.312	17.49
235.528	16.72
235.744	16.15
235.961	15.56
236.177	15.65
236.393	14.57
236.61	14.48
236.826	13.38
237.042	13.33
237.258	13.64
237.475	13.38
237.691	12.85
237.907	11.74
238.123	12.99
238.339	12.87
238.556	12.62
238.772	12.37
238.988	12.59
239.204	13.06
239.42	12.26
239.636	11.41
239.853	11.23
240.069	10.58
240.285	10.95
240.501	10.13
240.717	10.2
240.933	10.34
241.149	10.34
241.365	10.51
241.581	10.22
241.797	10.62
242.013	10.78
242.229	10.92
242.445	11.13
242.661	11.02
242.877	11.24
243.093	11.05
243.309	11.37
243.525	11.27
243.741	11.07
243.957	11.24
244.173	10.86
244.388	10.63
244.604	10.59
244.82	10.72
245.036	10.39
245.252	10.28
245.468	10.33
245.683	9.97
245.899	10.15
246.115	9.87
246.331	9.79
246.547	9.65
246.762	9.42
246.978	9.43
247.194	9.11
247.409	9.31
247.625	9.12
247.841	8.85
248.057	8.93
248.272	8.81
248.488	9.12
248.703	9.03
248.919	9.27
249.135	9.87
249.35	9.64
249.566	9.74
249.782	9.36
249.997	9.76
250.213	10.06
250.428	10.02
250.644	9.64
250.859	9.11
251.075	9.39
251.29	8.77
251.506	8.19
251.721	8.28
251.937	8.49
252.152	8.62
252.368	8.48
252.583	8.5
252.798	8.14
253.014	8.27
253.229	8.97
253.445	8.74
253.66	9.2
253.875	9.68
254.091	9.48
254.306	9.87
254.521	9.43
254.737	9.57
254.952	9.19
255.167	9.58
255.383	9.55
255.598	9.15
255.813	8.98
256.028	8.58
256.244	8.51
256.459	8.15
256.674	7.71
256.889	7.7
257.104	7.29
257.32	7.29
257.535	7.32
257.75	7.06
257.965	6.97
258.18	6.98
258.395	7.01
258.61	6.91
258.826	6.97
259.041	6.84
259.256	6.87
259.471	6.85
259.686	6.98
259.901	6.91
260.116	7.04
260.331	7.08
260.546	7.08
260.761	7.01
260.976	7.09
261.191	6.83
261.406	6.93
261.621	6.87
261.836	6.65
262.05	6.08
262.265	5.62
262.48	5.61
262.695	5.44
262.91	5.66
263.125	5.56
263.34	5.83
263.555	6.4
263.769	6.43
263.984	6.62
264.199	6.92
264.414	7.2
264.629	7.35
264.843	7.02
265.058	7.27
265.273	7.28
265.488	7.37
265.702	6.97
265.917	7.33
266.132	7.38
266.346	7.32
266.561	7.17
266.776	7.3
266.99	7.56
267.205	7.69
267.42	7.24
267.634	7.08
267.849	7.27
268.063	7.24
268.278	6.76
268.492	6.69
268.707	6.86
268.922	7.2
269.136	6.96
269.351	6.74
269.565	7.03
269.78	7.03
269.994	7.1
270.209	7.05
270.423	7.26
270.637	7.35
270.852	7.41
271.066	7.21
271.281	6.94
271.495	6.99
271.709	7.02
271.924	6.83
272.138	6.77
272.353	6.6
272.567	6.41
272.781	6.27
272.996	6.28
273.21	6.22
273.424	6.05
273.638	6.35
273.853	6.44
274.067	6.38
274.281	6.54
274.495	6.69
274.71	6.72
274.924	6.87
275.138	6.88
275.352	6.91
275.566	7.2
275.781	7.69
275.995	7.58
276.209	7.67
276.423	7.61
276.637	7.26
276.851	7.09
277.065	7.09
277.279	7.17
277.493	7.08
277.707	6.81
277.921	6.81
278.135	6.68
278.349	6.84
278.563	6.54
278.777	6.37
278.991	6.76
279.205	7.07
279.419	7.19
279.633	7.14
279.847	7.12
280.061	7.33
280.275	6.93
280.489	6.72
280.703	6.53
280.917	6.52
281.131	6.62
281.344	6.41
281.558	6.3
281.772	6.23
281.986	6.39
282.2	6.52
282.414	6.66
282.627	6.75
282.841	6.88
283.055	6.85
283.269	6.82
283.482	6.98
283.696	6.89
283.91	7
284.123	6.93
284.337	6.61
284.551	6.62
284.764	6.33
284.978	6.52
285.192	6.41
285.405	6.57
285.619	6.79
285.833	6.72
286.046	6.61
286.26	6.66
286.473	6.68
286.687	6.93
286.9	6.93
287.114	6.95
287.327	6.88
287.541	7.01
287.754	6.76
287.968	6.53
288.181	6.55
288.395	6.59
288.608	6.31
288.822	6.26
289.035	6.29
289.248	6.23
289.462	6.44
289.675	6.44
289.889	6.37
290.102	6.41
290.315	6.63
290.529	6.64
290.742	6.84
290.955	7.06
291.169	7.26
291.382	7.02
291.595	6.89
291.808	6.73
292.022	6.7
292.235	6.64
292.448	6.95
292.661	6.84
292.875	6.94
293.088	6.92
293.301	7.1
293.514	6.83
293.727	7.19
293.94	7.36
294.153	7.47
294.367	7.35
294.58	7.3
294.793	7.18
295.006	7.14
295.219	7.17
295.432	7.21
295.645	7.17
295.858	7.25
296.071	7.15
296.284	7.07
296.497	7.28
296.71	7.42
296.923	7.57
297.136	7.59
297.349	7.76
297.562	7.75
297.775	7.75
297.988	7.91
298.201	8.11
298.414	8.15
298.626	8.3
298.839	7.98
299.052	7.97
299.265	7.83
299.478	7.72
299.691	7.56
299.903	7.67
300.116	7.75
300.329	7.62
300.542	7.69
300.755	7.6
300.967	7.6
301.18	7.87
301.393	7.88
301.605	7.97
301.818	8.1
302.031	8.04
302.243	7.84
302.456	7.97
302.669	7.87
302.881	7.9
303.094	7.97
303.307	8.15
303.519	8.21
303.732	8.29
303.944	8.52
304.157	8.39
304.37	8.67
304.582	8.85
304.795	8.66
305.007	8.82
305.22	8.86
305.432	8.92
305.645	8.83
305.857	8.99
306.069	9.14
306.282	9.07
306.494	9.39
306.707	9.37
306.919	9.5
307.132	9.48
307.344	9.38
307.556	9.23
307.769	9.32
307.981	9.3
308.193	9.31
308.406	8.97
308.618	8.95
308.83	8.71
309.043	8.74
309.255	8.6
309.467	8.64
309.679	8.67
309.892	8.79
310.104	8.75
310.316	8.87
310.528	8.66
310.74	8.9
310.953	9.17
311.165	9.37
311.377	9.24
311.589	9.39
311.801	9.37
312.013	9.52
312.225	9.47
312.437	9.68
312.649	9.52
312.862	9.61
313.074	9.45
313.286	9.28
313.498	9.09
313.71	9.36
313.922	9.26
314.134	9.39
314.346	9.19
314.558	9.12
314.77	8.86
314.982	8.84
315.193	8.83
315.405	8.76
315.617	8.49
315.829	8.55
316.041	8.55
316.253	8.43
316.465	8.43
316.677	8.55
316.888	8.66
317.1	8.72
317.312	8.98
317.524	8.91
317.736	9.08
317.947	9.45
318.159	9.63
318.371	9.59
318.583	9.81
318.794	9.83
319.006	9.92
319.218	10.13
319.43	10.21
319.641	10.24
319.853	10.38
320.064	10.32
320.276	10.35
320.488	10.4
320.699	10.39
320.911	10.3
321.123	10.34
321.334	10.47
321.546	10.27
321.757	10.14
321.969	10.06
322.18	9.96
322.392	10.06
322.603	10.01
322.815	9.99
323.026	10.11
323.238	10.05
323.449	10.19
323.661	10.04
323.872	10.19
324.083	10.37
324.295	10.25
324.506	10.38
324.718	10.45
324.929	10.52
325.14	10.62
325.352	10.72
325.563	10.96
325.774	10.9
325.986	11.03
326.197	11.13
326.408	11.27
326.62	11.55
326.831	11.85
327.042	12.12
327.253	12.15
327.464	12.32
327.676	12.25
327.887	12.46
328.098	12.63
328.309	12.8
328.52	12.79
328.732	13
328.943	13.21
329.154	13.3
329.365	13.22
329.576	13.52
329.787	13.44
329.998	13.88
330.209	13.92
330.42	14.1
330.631	13.98
330.842	14.12
331.053	14.12
331.264	14.22
331.475	14.18
331.686	14.34
331.897	14.43
332.108	14.42
332.319	14.23
332.53	14.31
332.741	14.32
332.952	14.48
333.163	14.65
333.374	14.74
333.585	14.66
333.795	14.63
334.006	14.64
334.217	14.47
334.428	14.67
334.639	14.72
334.849	14.8
335.06	14.85
335.271	14.91
335.482	14.84
335.692	14.89
335.903	14.87
336.114	14.86
336.325	14.98
336.535	15.02
336.746	14.79
336.957	14.88
337.167	14.72
337.378	14.71
337.589	14.61
337.799	14.46
338.01	14.43
338.22	14.67
338.431	14.76
338.642	14.65
338.852	14.6
339.063	14.88
339.273	14.78
339.484	14.82
339.694	14.77
339.905	14.84
340.115	14.85
340.326	14.74
340.536	14.55
340.746	14.48
340.957	14.36
341.167	14.51
341.378	14.31
341.588	14.39
341.799	14.22
342.009	14.27
342.219	14.28
342.43	14.39
342.64	14.41
342.85	14.32
343.061	14.31
343.271	14.46
343.481	14.37
343.691	14.28
343.902	14.12
344.112	14.21
344.322	14.19
344.532	14.15
344.743	14.14
344.953	13.95
345.163	14.11
345.373	14.2
345.583	14.22
345.793	14.29
346.004	14.56
346.214	14.59
346.424	14.68
346.634	14.78
346.844	14.88
347.054	15.08
347.264	15.4
347.474	15.35
347.684	15.21
347.894	15.2
348.104	14.99
348.314	14.77
348.524	14.85
348.734	15.02
348.944	14.95
349.154	14.87
349.364	14.51
349.574	14.45
349.784	14.42
349.994	14.51
350.204	14.35
350.413	14.43
350.623	14.62
350.833	14.47
351.043	14.26
351.253	14.28
351.463	14.28
351.672	14.29
351.882	14.15
352.092	14.02
352.302	13.95
352.511	13.93
352.721	14.02
352.931	13.93
353.141	13.87
353.35	13.81
353.56	13.8
353.77	13.87
353.979	14.04
354.189	14.01
354.399	14.18
354.608	14.2
354.818	14.23
355.027	14.24
355.237	14.09
355.447	14.21
355.656	14.3
355.866	14.28
356.075	14.1
356.285	14.09
356.494	14.15
356.704	14.11
356.913	14.2
357.123	14.13
357.332	14.03
357.542	14.19
357.751	14.18
357.96	14.16
358.17	14.17
358.379	14.27
358.589	14.17
358.798	14.2
359.007	14.18
359.217	14.01
359.426	14.02
359.635	14
359.845	13.96
360.054	13.91
360.263	13.75
360.472	13.68
360.682	13.64
360.891	13.74
361.1	13.69
361.309	13.63
361.519	13.66
361.728	13.75
361.937	13.84
362.146	13.78
362.355	13.75
362.564	13.79
362.774	13.7
362.983	13.52
363.192	13.41
363.401	13.33
363.61	13.29
363.819	13.27
364.028	13.28
364.237	13.03
364.446	13.1
364.655	13.13
364.864	13.14
365.073	13.24
365.282	13.42
365.491	13.41
365.7	13.44
365.909	13.45
366.118	13.48
366.327	13.35
366.536	13.44
366.745	13.29
366.954	13.25
367.162	13.18
367.371	13.05
367.58	12.91
367.789	12.85
367.998	12.85
368.207	12.89
368.415	12.77
368.624	12.71
368.833	12.72
369.042	12.79
369.25	12.88
369.459	12.84
369.668	12.87
369.877	12.99
370.085	13.15
370.294	13.01
370.503	12.9
370.711	12.89
370.92	12.79
371.129	12.67
371.337	12.64
371.546	12.46
371.754	12.5
371.963	12.48
372.171	12.34
372.38	12
372.589	12.08
372.797	12.06
373.006	12.01
373.214	12.07
373.423	12.07
373.631	12.11
373.84	12.14
374.048	12
374.256	11.88
374.465	11.79
374.673	11.75
374.882	11.55
375.09	11.47
375.298	11.37
375.507	11.31
375.715	11.32
375.923	11.1
376.132	11.01
376.34	10.98
376.548	10.96
376.757	11.01
376.965	11.1
377.173	11.17
377.381	11.16
377.59	11.15
377.798	11.12
378.006	10.99
378.214	10.99
378.423	10.95
378.631	10.89
378.839	10.92
379.047	10.9
379.255	10.82
379.463	10.75
379.671	10.76
379.879	10.72
380.088	10.76
380.296	10.8
380.504	10.87
380.712	10.87
380.92	11.07
381.128	10.95
381.336	10.91
381.544	10.88
381.752	10.9
381.96	10.75
382.168	10.83
382.376	10.72
382.584	10.69
382.791	10.63
382.999	10.56
383.207	10.46
383.415	10.44
383.623	10.41
383.831	10.37
384.039	10.28
384.247	10.31
384.454	10.34
384.662	10.39
384.87	10.36
385.078	10.33
385.285	10.4
385.493	10.29
385.701	10.31
385.909	10.27
386.116	10.23
386.324	10.25
386.532	10.23
386.739	10.04
386.947	9.85
387.155	9.78
387.362	9.72
387.57	9.73
387.778	9.78
387.985	9.83
388.193	9.76
388.4	9.89
388.608	9.76
388.816	9.74
389.023	9.76
389.231	9.7
389.438	9.68
389.646	9.52
389.853	9.39
390.061	9.26
390.268	9.2
390.475	9.19
390.683	9.08
390.89	9.07
391.098	9.05
391.305	9.08
391.512	9.02
391.72	9.07
391.927	9.08
392.135	8.98
392.342	8.97
392.549	8.87
392.756	8.79
392.964	8.72
393.171	8.66
393.378	8.63
393.586	8.57
393.793	8.77
394	8.64
394.207	8.67
394.414	8.73
394.622	8.78
394.829	8.85
395.036	8.85
395.243	8.85
395.45	8.89
395.657	8.82
395.864	8.74
396.072	8.67
396.279	8.72
396.486	8.66
396.693	8.68
396.9	8.58
397.107	8.44
397.314	8.44
397.521	8.47
397.728	8.45
397.935	8.43
398.142	8.44
398.349	8.41
398.556	8.43
398.763	8.48
398.97	8.39
399.177	8.51
399.383	8.56
399.59	8.56
399.797	8.57
400.004	8.55
400.211	8.55
400.418	8.55
400.625	8.55
400.831	8.49
401.038	8.47
401.245	8.48
401.452	8.29
401.658	8.28
401.865	8.37
402.072	8.28
402.279	8.23
402.485	8.2
402.692	8.19
402.899	8.14
403.105	8.2
403.312	8.18
403.519	8.17
403.725	8.27
403.932	8.33
404.138	8.27
404.345	8.26
404.552	8.31
404.758	8.35
404.965	8.33
405.171	8.31
405.378	8.19
405.584	8.18
405.791	8.16
405.997	8.14
406.204	8.14
406.41	8.13
406.617	8.13
406.823	8.14
407.029	8.14
407.236	8.14
407.442	8.19
407.649	8.37
407.855	8.42
408.061	8.4
408.268	8.34
408.474	8.2
408.68	8.23
408.887	8.2
409.093	8.16
409.299	8.14
409.505	8.14
409.712	8.14
409.918	8.06
410.124	8.04
410.33	8.02
410.537	8.09
410.743	8.14
410.949	8.08
411.155	8.2
411.361	8.27
411.567	8.24
411.773	8.16
411.98	8.08
412.186	8.11
412.392	8.05
412.598	8.19
412.804	8.21
413.01	8.21
413.216	8.21
413.422	8.16
413.628	8.13
413.834	8.13
414.04	8.25
414.246	8.24
414.452	8.18
414.658	8.16
414.864	8.13
415.07	8.09
415.275	8.07
415.481	8.03
415.687	7.96
415.893	7.9
416.099	7.91
416.305	7.87
416.511	7.81
416.716	7.78
416.922	7.82
417.128	7.75
417.334	7.73
417.539	7.69
417.745	7.71
417.951	7.68
418.157	7.74
418.362	7.72
418.568	7.7
418.774	7.68
418.979	7.65
419.185	7.58
419.391	7.56
419.596	7.53
419.802	7.52
420.008	7.48
420.213	7.78
420.419	7.72
420.624	7.72
420.83	7.68
421.035	7.71
421.241	7.75
421.446	7.8
421.652	7.78
421.857	7.75
422.063	7.73
422.268	7.71
422.474	7.42
422.679	7.38
422.885	7.33
423.09	7.36
423.295	7.38
423.501	7.28
423.706	7.22
423.911	7.24
424.117	7.25
424.322	7.26
424.527	7.26
424.733	7.23
424.938	7.23
425.143	7.24
425.349	7.22
425.554	7.2
425.759	7.29
425.964	7.32
426.169	7.34
426.375	7.34
426.58	7.33
426.785	7.34
426.99	7.39
427.195	7.38
427.4	7.42
427.605	7.41
427.811	7.42
428.016	7.41
428.221	7.4
428.426	7.4
428.631	7.39
428.836	7.4
429.041	7.39
429.246	7.42
429.451	7.49
429.656	7.49
429.861	7.5
430.066	7.48
430.271	7.47
430.476	7.46
430.681	7.42
430.886	7.43
431.09	7.46
431.295	7.47
431.5	7.42
431.705	7.4
431.91	7.34
432.115	7.33
432.32	7.31
432.524	7.31
432.729	7.24
432.934	7.23
433.139	7.22
433.343	7.23
433.548	7.22
433.753	7.24
433.958	7.27
434.162	7.33
434.367	7.33
434.572	7.34
434.776	7.4
434.981	7.43
435.186	7.43
435.39	7.48
435.595	7.48
435.799	7.49
436.004	7.47
436.209	7.44
436.413	7.41
436.618	7.42
436.822	7.39
437.027	7.3
437.231	7.31
437.436	7.29
437.64	7.28
437.845	7.24
438.049	7.22
438.253	7.16
438.458	7.12
438.662	7.11
438.867	7.08
439.071	7.13
439.275	7.15
439.48	7.13
439.684	7.15
439.888	7.07
440.093	7.06
440.297	7.04
440.501	7.06
440.706	7.07
440.91	7.13
441.114	7.12
441.318	7.12
441.523	7.15
441.727	7.16
441.931	7.21
442.135	7.26
442.339	7.26
442.543	7.29
442.748	7.28
442.952	7.28
443.156	7.2
443.36	7.22
443.564	7.14
443.768	7.09
443.972	7.06
444.176	7
444.38	7.02
444.584	6.97
444.788	6.94
444.992	6.96
445.196	6.92
445.4	6.93
445.604	6.9
445.808	6.93
446.012	6.91
446.216	6.91
446.42	6.88
446.624	6.85
446.828	6.84
447.032	6.85
447.235	6.88
447.439	6.87
447.643	6.91
447.847	6.95
448.051	6.91
448.254	6.94
448.458	6.95
448.662	6.97
448.866	6.97
449.069	7.04
449.273	7.07
449.477	7.08
449.681	7.09
449.884	7.1
450.088	7.08
450.292	7.11
450.495	7.06
450.699	7.07
450.902	7.09
451.106	7.08
451.31	7.04
451.513	7.07
451.717	6.96
451.92	6.95
452.124	6.89
452.327	6.9
452.531	6.9
452.734	6.92
452.938	6.9
453.141	6.91
453.345	6.93
453.548	6.94
453.752	6.89
453.955	6.95
454.158	6.97
454.362	6.95
454.565	6.91
454.769	6.92
454.972	6.92
455.175	6.89
455.379	6.87
455.582	6.86
455.785	6.82
455.988	6.8
456.192	6.78
456.395	6.76
456.598	6.75
456.801	6.78
457.005	6.78
457.208	6.74
457.411	6.75
457.614	6.73
457.817	6.67
458.021	6.67
458.224	6.65
458.427	6.64
458.63	6.62
458.833	6.62
459.036	6.58
459.239	6.55
459.442	6.55
459.645	6.56
459.848	6.57
460.051	6.59
460.254	6.6
460.457	6.62
460.66	6.63
460.863	6.63
461.066	6.68
461.269	6.71
461.472	6.73
461.675	6.79
461.878	6.84
462.081	6.86
462.284	6.9
462.486	6.9
462.689	6.91
462.892	6.94
463.095	6.97
463.298	6.97
463.5	6.97
463.703	6.97
463.906	6.96
464.109	6.95
464.311	6.96
464.514	6.95
464.717	6.93
464.92	6.95
465.122	6.94
465.325	6.99
465.528	6.97
465.73	6.96
465.933	6.95
466.135	6.93
466.338	6.94
466.541	6.92
466.743	6.94
466.946	6.99
467.148	7
467.351	7
467.553	6.99
467.756	7.03
467.958	7.05
468.161	7.08
468.363	7.07
468.566	7.06
468.768	7.04
468.971	7.07
469.173	7.05
469.375	7
469.578	7.04
469.78	7
469.983	7
470.185	7
470.387	7.04
470.59	7.03
470.792	7.07
470.994	7.08
471.196	7.08
471.399	7.08
471.601	7.14
471.803	7.08
472.005	7.12
472.208	7.12
472.41	7.06
472.612	7.02
472.814	7.07
473.016	7.08
473.218	7.11
473.421	7.09
473.623	7.06
473.825	7
474.027	6.99
474.229	6.96
474.431	6.94
474.633	6.98
474.835	6.94
475.037	6.88
475.239	6.8
475.441	6.83
475.643	6.81
475.845	6.85
476.047	6.89
476.249	6.88
476.451	6.88
476.653	6.89
476.855	6.87
477.057	6.91
477.258	6.94
477.46	6.98
477.662	6.93
477.864	6.94
478.066	6.94
478.268	6.95
478.469	7.01
478.671	6.98
478.873	6.93
479.075	6.95
479.276	6.97
479.478	6.93
479.68	6.88
479.882	6.93
480.083	6.95
480.285	6.91
480.487	6.87
480.688	6.83
480.89	6.85
481.091	6.84
481.293	6.8
481.495	6.76
481.696	6.73
481.898	6.69
482.099	6.62
482.301	6.56
482.502	6.55
482.704	6.52
482.905	6.51
483.107	6.47
483.308	6.47
483.51	6.46
483.711	6.46
483.913	6.46
484.114	6.47
484.315	6.48
484.517	6.5
484.718	6.51
484.92	6.52
485.121	6.52
485.322	6.53
485.524	6.53
485.725	6.53
485.926	6.52
486.127	6.51
486.329	6.51
486.53	6.52
486.731	6.51
486.932	6.51
487.134	6.5
487.335	6.5
487.536	6.5
487.737	6.52
487.938	6.53
488.139	6.55
488.341	6.55
488.542	6.55
488.743	6.55
488.944	6.56
489.145	6.57
489.346	6.59
489.547	6.59
489.748	6.59
489.949	6.55
490.15	6.52
490.351	6.54
490.552	6.54
490.753	6.53
490.954	6.5
491.155	6.49
491.356	6.48
491.557	6.5
491.758	6.53
491.959	6.54
492.159	6.57
492.36	6.63
492.561	6.63
492.762	6.65
492.963	6.67
493.164	6.73
493.364	6.76
493.565	6.79
493.766	6.81
493.967	6.81
494.167	6.85
494.368	6.87
494.569	6.88
494.769	6.88
494.97	6.89
495.171	6.91
495.371	6.92
495.572	6.93
495.773	6.98
495.973	6.98
496.174	6.99
496.375	6.99
496.575	7.02
496.776	7.04
496.976	7.06
497.177	7.07
497.377	7.11
497.578	7.17
497.778	7.16
497.979	7.14
498.179	7.19
498.38	7.22
498.58	7.25
498.78	7.24
498.981	7.27
499.181	7.31
499.382	7.36
499.582	7.4
499.782	7.41
499.983	7.48
500.183	7.52
500.383	7.53
500.584	7.53
500.784	7.55
500.984	7.58
501.184	7.57
501.385	7.57
501.585	7.59
501.785	7.55
501.985	7.57
502.185	7.53
502.386	7.56
502.586	7.58
502.786	7.64
502.986	7.65
503.186	7.68
503.386	7.71
503.586	7.77
503.786	7.77
503.987	7.82
504.187	7.86
504.387	7.94
504.587	7.99
504.787	8.03
504.987	8.05
505.187	8.07
505.387	8.11
505.587	8.13
505.786	8.13
505.986	8.14
506.186	8.19
506.386	8.19
506.586	8.21
506.786	8.23
506.986	8.24
507.186	8.28
507.386	8.33
507.585	8.39
507.785	8.4
507.985	8.44
508.185	8.5
508.384	8.54
508.584	8.54
508.784	8.58
508.984	8.62
509.183	8.68
509.383	8.74
509.583	8.76
509.782	8.78
509.982	8.85
510.182	8.89
510.381	8.93
510.581	8.97
510.781	9.06
510.98	9.13
511.18	9.14
511.379	9.16
511.579	9.21
511.778	9.26
511.978	9.32
512.177	9.36
512.377	9.43
512.576	9.5
512.776	9.57
512.975	9.61
513.175	9.66
513.374	9.77
513.573	9.81
513.773	9.88
513.972	9.93
514.172	10
514.371	10.08
514.57	10.09
514.77	10.14
514.969	10.2
515.168	10.3
515.367	10.35
515.567	10.41
515.766	10.48
515.965	10.52
516.164	10.61
516.364	10.67
516.563	10.7
516.762	10.79
516.961	10.85
517.16	10.91
517.359	10.96
517.559	11
517.758	11.06
517.957	11.12
518.156	11.17
518.355	11.2
518.554	11.23
518.753	11.26
518.952	11.33
519.151	11.4
519.35	11.45
519.549	11.5
519.748	11.56
519.947	11.61
520.146	11.69
520.345	11.74
520.544	11.81
520.743	11.85
520.942	11.9
521.141	11.92
521.339	11.98
521.538	12.04
521.737	12.11
521.936	12.15
522.135	12.19
522.333	12.22
522.532	12.27
522.731	12.36
522.93	12.41
523.129	12.48
523.327	12.55
523.526	12.59
523.725	12.61
523.923	12.65
524.122	12.73
524.321	12.77
524.519	12.82
524.718	12.85
524.917	12.87
525.115	12.92
525.314	12.96
525.512	13
525.711	13.04
525.909	13.07
526.108	13.06
526.306	13.07
526.505	13.09
526.703	13.1
526.902	13.14
527.1	13.14
527.299	13.15
527.497	13.21
527.696	13.24
527.894	13.27
528.092	13.29
528.291	13.35
528.489	13.38
528.688	13.43
528.886	13.46
529.084	13.5
529.283	13.56
529.481	13.63
529.679	13.65
529.877	13.69
530.076	13.72
530.274	13.8
530.472	13.87
530.67	13.95
530.869	13.97
531.067	14.06
531.265	14.1
531.463	14.14
531.661	14.17
531.859	14.23
532.057	14.27
532.255	14.32
532.454	14.33
532.652	14.33
532.85	14.35
533.048	14.4
533.246	14.4
533.444	14.46
533.642	14.49
533.84	14.52
534.038	14.54
534.236	14.62
534.434	14.67
534.632	14.71
534.83	14.75
535.027	14.82
535.225	14.86
535.423	14.91
535.621	14.89
535.819	14.94
536.017	14.96
536.215	14.97
536.412	14.95
536.61	14.96
536.808	14.99
537.006	15.02
537.203	15.03
537.401	15.04
537.599	15.06
537.797	15.12
537.994	15.13
538.192	15.22
538.39	15.29
538.587	15.32
538.785	15.39
538.983	15.44
539.18	15.49
539.378	15.5
539.575	15.57
539.773	15.58
539.97	15.6
540.168	15.62
540.366	15.62
540.563	15.63
540.761	15.66
540.958	15.66
541.155	15.68
541.353	15.72
541.55	15.75
541.748	15.76
541.945	15.78
542.143	15.82
542.34	15.87
542.537	15.92
542.735	15.97
542.932	16.02
543.129	16.07
543.327	16.1
543.524	16.15
543.721	16.23
543.919	16.27
544.116	16.35
544.313	16.41
544.51	16.44
544.708	16.49
544.905	16.47
545.102	16.47
545.299	16.49
545.496	16.55
545.693	16.58
545.891	16.58
546.088	16.62
546.285	16.62
546.482	16.62
546.679	16.65
546.876	16.65
547.073	16.7
547.27	16.79
547.467	16.84
547.664	16.81
547.861	16.84
548.058	16.85
548.255	16.86
548.452	16.89
548.649	16.97
548.846	17
549.043	17.02
549.24	17.08
549.437	17.09
549.633	17.09
549.83	17.18
550.027	17.23
550.224	17.28
550.421	17.33
550.618	17.38
550.814	17.39
551.011	17.41
551.208	17.5
551.405	17.5
551.601	17.5
551.798	17.57
551.995	17.58
552.191	17.56
552.388	17.57
552.585	17.56
552.781	17.61
552.978	17.63
553.175	17.62
553.371	17.57
553.568	17.6
553.764	17.63
553.961	17.62
554.157	17.66
554.354	17.72
554.55	17.8
554.747	17.8
554.943	17.81
555.14	17.81
555.336	17.91
555.533	18
555.729	18.01
555.926	18.1
556.122	18.08
556.318	18.07
556.515	18.07
556.711	18.06
556.907	18.16
557.104	18.2
557.3	18.24
557.496	18.23
557.693	18.31
557.889	18.33
558.085	18.29
558.281	18.35
558.478	18.36
558.674	18.4
558.87	18.4
559.066	18.37
559.262	18.32
559.459	18.3
559.655	18.28
559.851	18.21
560.047	18.23
560.243	18.25
560.439	18.24
560.635	18.23
560.831	18.24
561.027	18.24
561.223	18.28
561.419	18.37
561.615	18.39
561.811	18.42
562.007	18.47
562.203	18.52
562.399	18.53
562.595	18.55
562.791	18.57
562.987	18.57
563.183	18.62
563.379	18.68
563.575	18.66
563.771	18.75
563.966	18.83
564.162	18.83
564.358	18.86
564.554	18.84
564.75	18.9
564.945	18.95
565.141	19.02
565.337	19.02
565.533	18.96
565.728	19.02
565.924	18.98
566.12	18.98
566.315	19.03
566.511	18.99
566.707	19.04
566.902	19
567.098	19.02
567.293	18.98
567.489	19
567.684	19.03
567.88	18.99
568.076	19
568.271	19.01
568.467	18.99
568.662	19.07
568.858	19.07
569.053	19.12
569.248	19.13
569.444	19.18
569.639	19.18
569.835	19.19
570.03	19.21
570.225	19.2
570.421	19.18
570.616	19.17
570.812	19.19
571.007	19.18
571.202	19.19
571.397	19.19
571.593	19.14
571.788	19.16
571.983	19.19
572.178	19.19
572.374	19.25
572.569	19.28
572.764	19.28
572.959	19.29
573.154	19.29
573.35	19.31
573.545	19.3
573.74	19.31
573.935	19.32
574.13	19.33
574.325	19.36
574.52	19.3
574.715	19.26
574.91	19.25
575.105	19.24
575.3	19.3
575.495	19.26
575.69	19.3
575.885	19.33
576.08	19.34
576.275	19.33
576.47	19.29
576.665	19.39
576.86	19.41
577.055	19.48
577.25	19.51
577.444	19.55
577.639	19.63
577.834	19.7
578.029	19.75
578.224	19.77
578.418	19.81
578.613	19.87
578.808	19.92
579.003	20.02
579.197	20
579.392	19.97
579.587	19.98
579.781	19.97
579.976	19.93
580.171	19.9
580.365	19.9
580.56	19.88
580.755	19.85
580.949	19.84
581.144	19.82
581.338	19.85
581.533	19.88
581.727	19.83
581.922	19.83
582.116	19.84
582.311	19.87
582.505	19.87
582.7	19.94
582.894	20.04
583.089	20.06
583.283	20.03
583.478	19.97
583.672	20.04
583.866	20.01
584.061	20.01
584.255	20.1
584.449	20.07
584.644	20.1
584.838	20.13
585.032	20.09
585.226	20.07
585.421	20.03
585.615	20.11
585.809	20.06
586.003	20.04
586.198	20.05
586.392	19.98
586.586	20.07
586.78	20.09
586.974	20.06
587.168	20.03
587.363	20.06
587.557	20.14
587.751	20.12
587.945	20.1
588.139	20.18
588.333	20.14
588.527	20.12
588.721	20.09
588.915	20.05
589.109	20.09
589.303	20.08
589.497	20.06
589.691	20.02
589.885	20.08
590.079	20.14
590.273	20.19
590.466	20.26
590.66	20.31
590.854	20.32
591.048	20.31
591.242	20.26
591.436	20.28
591.629	20.29
591.823	20.29
592.017	20.26
592.211	20.21
592.404	20.18
592.598	20.14
592.792	20.18
592.986	20.15
593.179	20.19
593.373	20.2
593.567	20.21
593.76	20.2
593.954	20.22
594.147	20.24
594.341	20.26
594.535	20.32
594.728	20.4
594.922	20.37
595.115	20.39
595.309	20.45
595.502	20.47
595.696	20.45
595.889	20.44
596.083	20.42
596.276	20.39
596.47	20.41
596.663	20.37
596.856	20.31
597.05	20.3
597.243	20.28
597.437	20.24
597.63	20.24
597.823	20.28
598.017	20.36
598.21	20.4
598.403	20.43
598.596	20.4
598.79	20.4
598.983	20.48
599.176	20.45
599.369	20.44
599.563	20.41
599.756	20.36
599.949	20.33
600.142	20.23
600.335	20.2
600.528	20.22
600.722	20.26
600.915	20.25
601.108	20.23
601.301	20.29
601.494	20.35
601.687	20.39
601.88	20.49
602.073	20.51
602.266	20.51
602.459	20.56
602.652	20.53
602.845	20.55
603.038	20.55
603.231	20.52
603.424	20.49
603.617	20.42
603.809	20.41
604.002	20.4
604.195	20.39
604.388	20.39
604.581	20.29
604.774	20.28
604.966	20.26
605.159	20.22
605.352	20.26
605.545	20.27
605.737	20.34
605.93	20.3
606.123	20.25
606.316	20.35
606.508	20.43
606.701	20.6
606.894	20.71
607.086	20.76
607.279	20.8
607.471	20.81
607.664	20.85
607.857	20.84
608.049	20.96
608.242	20.99
608.434	20.91
608.627	20.93
608.819	20.89
609.012	20.85
609.204	20.81
609.397	20.91
609.589	20.96
609.782	21
609.974	21.1
610.166	21.09
610.359	21.17
610.551	21.24
610.743	21.26
610.936	21.29
611.128	21.33
611.32	21.4
611.513	21.37
611.705	21.34
611.897	21.3
612.09	21.24
612.282	21.21
612.474	21.08
612.666	21.09
612.858	21.05
613.051	21.08
613.243	21.05
613.435	21.09
613.627	21.05
613.819	21.05
614.011	21.03
614.203	20.99
614.395	20.98
614.588	21.01
614.78	20.98
614.972	20.98
615.164	20.91
615.356	20.84
615.548	20.78
615.74	20.87
615.932	20.82
616.124	20.77
616.315	20.79
616.507	20.72
616.699	20.75
616.891	20.78
617.083	20.82
617.275	20.84
617.467	20.9
617.659	20.87
617.85	20.79
618.042	20.79
618.234	20.79
618.426	20.74
618.618	20.83
618.809	20.83
619.001	20.84
619.193	20.79
619.384	20.73
619.576	20.71
619.768	20.71
619.959	20.68
620.151	20.75
620.343	20.74
620.534	20.75
620.726	20.76
620.917	20.8
621.109	20.78
621.301	20.73
621.492	20.78
621.684	20.68
621.875	20.66
622.067	20.64
622.258	20.62
622.45	20.63
622.641	20.71
622.832	20.68
623.024	20.61
623.215	20.62
623.407	20.73
623.598	20.7
623.789	20.76
623.981	20.82
624.172	20.93
624.363	20.93
624.555	21.01
624.746	21.03
624.937	21.08
625.129	21.06
625.32	20.98
625.511	20.94
625.702	20.89
625.893	20.93
626.085	20.96
626.276	20.93
626.467	20.9
626.658	20.87
626.849	20.81
627.04	20.8
627.231	20.9
627.422	21
627.614	21.02
627.805	21.09
627.996	21.06
628.187	21.06
628.378	21.05
628.569	21.09
628.76	21.07
628.951	21.07
629.142	21.05
629.332	21.01
629.523	21.02
629.714	20.94
629.905	21.01
630.096	21.03
630.287	21.01
630.478	21.01
630.669	20.99
630.859	21.02
631.05	21.12
631.241	21.14
631.432	21.17
631.623	21.18
631.813	21.19
632.004	21.1
632.195	21.17
632.385	21.13
632.576	21.12
632.767	21.06
632.957	21.01
633.148	20.95
633.339	20.87
633.529	20.84
633.72	20.78
633.91	20.79
634.101	20.89
634.292	20.76
634.482	20.73
634.673	20.73
634.863	20.82
635.054	20.78
635.244	20.78
635.435	20.85
635.625	20.78
635.815	20.84
636.006	20.86
636.196	20.85
636.387	20.94
636.577	21.02
636.767	21
636.958	20.95
637.148	20.97
637.338	21
637.529	21.09
637.719	21.1
637.909	21.01
638.099	21.04
638.29	21.02
638.48	21.09
638.67	21.11
638.86	21.16
639.05	21.22
639.241	21.35
639.431	21.31
639.621	21.18
639.811	21.24
640.001	21.18
640.191	21.13
640.381	21.01
640.571	20.87
640.761	20.75
640.951	20.66
641.141	20.64
641.331	20.54
641.521	20.51
641.711	20.54
641.901	20.55
642.091	20.67
642.281	20.7
642.471	20.75
642.661	20.86
642.851	21
643.041	21.12
643.231	21.08
643.42	21.14
643.61	21.08
643.8	21.04
643.99	21.01
644.18	20.99
644.369	20.96
644.559	21.06
644.749	20.98
644.939	20.9
645.128	20.84
645.318	20.86
645.508	20.87
645.697	20.92
645.887	20.98
646.076	20.99
646.266	21
646.456	20.96
646.645	20.83
646.835	20.84
647.024	20.82
647.214	20.75
647.403	20.76
647.593	20.84
647.782	20.89
647.972	20.87
648.161	20.76
648.351	20.72
648.54	20.78
648.73	20.79
648.919	20.88
649.108	20.91
649.298	20.89
649.487	20.84
649.677	20.76
649.866	20.77
650.055	20.89
650.244	21.05
650.434	21.09
650.623	21.11
650.812	21.14
651.002	20.96
651.191	20.96
651.38	21.08
651.569	21.21
651.758	21.19
651.947	21.1
652.137	20.95
652.326	20.88
652.515	20.85
652.704	20.91
652.893	20.96
653.082	21.1
653.271	21.13
653.46	21.18
653.649	21.03
653.838	20.92
654.027	20.97
654.216	21
654.405	21.05
654.594	21.08
654.783	20.97
654.972	21
655.161	20.94
655.35	20.88
655.539	20.74
655.728	20.77
655.916	20.86
656.105	20.92
656.294	20.97
656.483	20.79
656.672	20.78
656.86	20.89
657.049	20.82
657.238	20.81
657.427	20.81
657.615	20.89
657.804	20.87
657.993	20.85
658.181	20.81
658.37	20.81
658.559	20.86
658.747	20.84
658.936	20.85
659.125	20.91
659.313	20.91
659.502	20.93
659.69	20.99
659.879	20.99
660.067	21.03
660.256	21.07
660.444	21.12
660.633	21.31
660.821	21.27
661.01	21.23
661.198	21.22
661.387	21.26
661.575	21.31
661.763	21.35
661.952	21.34
662.14	21.38
662.328	21.44
662.517	21.36
662.705	21.23
662.893	21.38
663.082	21.29
663.27	21.19
663.458	21.15
663.646	21.1
663.834	21.02
664.023	21.13
664.211	21.07
664.399	20.92
664.587	20.94
664.775	20.97
664.963	21
665.152	21.01
665.34	21.12
665.528	21.11
665.716	21.17
665.904	21.08
666.092	21.1
666.28	21.2
666.468	21.4
666.656	21.32
666.844	21.32
667.032	21.18
667.22	21.27
667.408	21.21
667.596	21.22
667.784	21.23
667.971	21.29
668.159	21.27
668.347	21.13
668.535	21
668.723	20.99
668.911	20.95
669.098	20.94
669.286	20.95
669.474	21
669.662	20.91
669.849	20.81
670.037	20.7
670.225	20.64
670.413	20.68
670.6	20.73
670.788	20.8
670.976	20.85
671.163	20.92
671.351	20.82
671.538	20.87
671.726	21.11
671.913	21.09
672.101	21.12
672.289	21.13
672.476	21.24
672.664	21.15
672.851	21.14
673.039	21.07
673.226	20.99
673.413	20.97
673.601	20.93
673.788	20.86
673.976	20.93
674.163	21.06
674.35	21.14
674.538	21.03
674.725	21.04
674.912	20.99
675.1	20.91
675.287	21
675.474	21.12
675.662	21.24
675.849	21.15
676.036	21.18
676.223	21.2
676.411	21.16
676.598	21.09
676.785	21.1
676.972	21.1
677.159	21.35
677.346	21.27
677.533	21.3
677.721	21.28
677.908	21.38
678.095	21.32
678.282	21.29
678.469	21.23
678.656	21.26
678.843	21.27
679.03	21.32
679.217	21.27
679.404	21.27
679.591	21.16
679.778	21.07
679.964	21.01
680.151	21.08
680.338	21.12
680.525	21.17
680.712	21.24
680.899	21.26
681.086	21.16
681.272	21.01
681.459	21.13
681.646	21.15
681.833	21.21
682.02	21.22
682.206	21.14
682.393	21.04
682.58	20.9
682.766	20.94
682.953	20.94
683.14	21.17
683.326	21.35
683.513	21.35
683.7	21.4
683.886	21.36
684.073	21.26
684.259	21.34
684.446	21.48
684.632	21.51
684.819	21.41
685.005	21.46
685.192	21.39
685.378	21.33
685.565	21.24
685.751	21.18
685.938	21.18
686.124	21.15
686.31	21.1
686.497	21.05
686.683	21.16
686.87	21.24
687.056	21.07
687.242	21.01
687.429	21.02
687.615	21.07
687.801	21.26
687.987	21.28
688.174	21.38
688.36	21.42
688.546	21.4
688.732	21.35
688.918	21.37
689.105	21.47
689.291	21.5
689.477	21.55
689.663	21.56
689.849	21.38
690.035	21.41
690.221	21.46
690.407	21.4
690.593	21.31
690.779	21.3
690.965	21.26
691.151	21.22
691.337	21.18
691.523	21.04
691.709	20.99
691.895	21.08
692.081	20.96
692.267	21
692.453	21.01
692.639	21.03
692.825	21.15
693.011	21.12
693.196	21.07
693.382	21.11
693.568	21.11
693.754	21.06
693.94	20.95
694.125	21.03
694.311	20.95
694.497	21.08
694.682	21.11
694.868	21.13
695.054	21.06
695.239	21.09
695.425	20.97
695.611	21.03
695.796	21.15
695.982	21.14
696.168	21.12
696.353	21.08
696.539	21.02
696.724	21.02
696.91	20.93
697.095	21.04
697.281	21.1
697.466	21.13
697.652	21.05
697.837	21.03
698.023	21.03
698.208	21.06
698.393	21.15
698.579	21.15
698.764	21.11
698.949	21.09
699.135	21.08
699.32	21.11
699.505	21.11
699.691	21.09
699.876	21.06
700.061	21.17
700.246	21.16
700.432	21.01
700.617	21.09
700.802	21.17
700.987	21.19
701.172	21.25
701.358	21.16
701.543	21.27
701.728	21.35
701.913	21.37
702.098	21.36
702.283	21.4
702.468	21.54
702.653	21.31
702.838	21.38
703.023	21.55
703.208	21.5
703.393	21.42
703.578	21.47
703.763	21.61
703.948	21.56
704.133	21.55
704.318	21.34
704.503	21.31
704.688	21.43
704.873	21.39
705.057	21.24
705.242	21.08
705.427	21.35
705.612	21.3
705.797	21.29
705.981	21.32
706.166	21.29
706.351	21.47
706.536	21.6
706.72	21.5
706.905	21.33
707.09	21.19
707.274	21.27
707.459	21.03
707.644	20.99
707.828	20.76
708.013	20.72
708.197	20.66
708.382	20.57
708.567	20.35
708.751	20.44
708.936	20.7
709.12	20.88
709.305	20.9
709.489	20.98
709.673	20.92
709.858	21.09
710.042	21.17
710.227	21.17
710.411	21.26
710.596	21.43
710.78	21.38
710.964	21.28
711.149	21.29
711.333	21.43
711.517	21.53
711.702	21.78
711.886	21.77
712.07	21.77
712.254	21.85
712.438	21.87
712.623	21.8
712.807	21.85
712.991	21.82
713.175	21.95
713.359	21.94
713.544	21.96
713.728	21.77
713.912	21.6
714.096	21.57
714.28	21.53
714.464	21.38
714.648	21.31
714.832	21.36
715.016	21.33
715.2	21.02
715.384	20.88
715.568	20.83
715.752	20.82
715.936	20.98
716.12	20.98
716.304	20.97
716.488	20.96
716.671	20.98
716.855	20.87
717.039	20.87
717.223	20.96
717.407	20.91
717.59	20.88
717.774	20.73
717.958	20.8
718.142	20.79
718.325	20.7
718.509	20.93
718.693	20.97
718.877	20.91
719.06	20.73
719.244	20.59
719.428	20.77
719.611	20.8
719.795	21
719.978	20.97
720.162	20.92
720.345	20.99
720.529	20.69
720.713	20.74
720.896	20.92
721.08	21.14
721.263	21.15
721.446	21.13
721.63	21.15
721.813	21.08
721.997	21.05
722.18	21.11
722.364	21.26
722.547	21.46
722.73	21.41
722.914	21.29
723.097	21.15
723.28	21.38
723.464	21.22
723.647	21.2
723.83	21.24
724.013	21.18
724.197	21.31
724.38	21.21
724.563	21.05
724.746	21.04
724.929	21.17
725.112	21.24
725.296	21.18
725.479	21.37
725.662	21.23
725.845	21.25
726.028	21.04
726.211	20.83
726.394	20.92
726.577	21
726.76	20.78
726.943	20.77
727.126	20.76
727.309	20.82
727.492	20.59
727.675	20.79
727.858	20.75
728.041	21.01
728.224	21.05
728.407	21.03
728.589	21.19
728.772	21.39
728.955	21.5
729.138	21.44
729.321	21.49
729.503	21.67
729.686	21.54
729.869	21.46
730.052	21.37
730.234	21.4
730.417	21.38
730.6	21.22
730.782	21.06
730.965	20.83
731.148	20.94
731.33	20.86
731.513	20.83
731.695	20.75
731.878	20.92
732.061	20.96
732.243	20.94
732.426	20.85
732.608	20.9
732.791	20.96
732.973	21.1
733.156	21.3
733.338	21.25
733.52	21.16
733.703	21.36
733.885	21.34
734.068	21.34
734.25	21.33
734.432	21.5
734.615	21.59
734.797	21.62
734.979	21.37
735.162	21.16
735.344	21.02
735.526	21.09
735.708	21.01
735.891	20.88
736.073	20.97
736.255	21.08
736.437	20.92
736.619	20.8
736.802	20.78
736.984	21.03
737.166	21.05
737.348	21.11
737.53	20.99
737.712	20.88
737.894	20.87
738.076	20.88
738.258	20.67
738.44	20.95
738.622	20.84
738.804	20.69
738.986	20.6
739.168	20.6
739.35	20.9
739.532	20.91
739.714	20.87
739.896	21.1
740.078	21.08
740.259	21.29
740.441	20.96
740.623	21.25
740.805	21.54
740.987	21.66
741.168	21.37
741.35	21.23
741.532	21.36
741.714	21.41
741.895	21.36
742.077	21.19
742.259	21.24
742.44	21.22
742.622	20.99
742.804	21.04
742.985	21.07
743.167	21.54
743.348	21.46
743.53	21.64
743.711	21.46
743.893	21.14
744.075	21.14
744.256	21.05
744.438	21.1
744.619	21.29
744.8	21.11
744.982	21.06
745.163	21
745.345	21.02
745.526	20.82
745.707	21.11
745.889	21.15
746.07	21.14
746.252	20.95
746.433	20.84
746.614	20.63
746.795	20.91
746.977	21.22
747.158	21.13
747.339	21.16
747.52	21.09
747.702	21.11
747.883	21.14
748.064	21.19
748.245	21.38
748.426	21.48
748.607	21.55
748.788	21.43
748.97	21.05
749.151	21.23
749.332	21.02
749.513	21.38
749.694	21.21
749.875	21.25
750.056	21.31
750.237	21.18
750.418	21.25
750.599	20.88
750.78	20.92
750.96	21.12
751.141	20.98
751.322	21.4
751.503	21.09
751.684	21.25
751.865	21.28
752.046	21.51
752.226	21.59
752.407	21.39
752.588	21.7
752.769	21.93
752.949	21.7
753.13	21.74
753.311	21.34
753.492	21.16
753.672	21.13
753.853	21.01
754.034	20.99
754.214	21.34
754.395	21.33
754.575	21.46
754.756	21.06
754.937	20.88
755.117	20.77
755.298	21
755.478	21.37
755.659	21.57
755.839	21.58
756.02	21.29
756.2	20.78
756.381	20.85
756.561	20.62
756.741	20.73
756.922	20.77
757.102	21.02
757.283	21
757.463	20.75
757.643	20.33
757.823	20.44
758.004	20.67
758.184	20.82
758.364	20.92
758.545	21.15
758.725	21.11
758.905	21.2
759.085	20.92
759.265	20.72
759.446	20.7
759.626	20.92
759.806	21.1
759.986	21.08
760.166	21.11
760.346	20.88
760.526	20.77
760.706	21
760.886	20.99
761.066	20.74
761.246	20.89
761.426	21.1
761.606	21.02
761.786	20.88
761.966	21.03
762.146	20.92
762.326	21.14
762.506	21.11
762.686	20.92
762.866	20.96
763.046	21.18
763.225	21.26
763.405	21.27
763.585	21.4
763.765	21.38
763.945	21.12
764.124	21.21
764.304	21.29
764.484	21.45
764.664	21.6
764.843	21.61
765.023	21.65
765.203	21.6
765.382	21.71
765.562	21.64
765.741	21.78
765.921	21.94
766.101	21.88
766.28	21.82
766.46	21.54
766.639	21.31
766.819	21.3
766.998	21.28
767.178	21.24
767.357	20.91
767.537	20.75
767.716	20.8
767.896	20.87
768.075	21.08
768.254	20.93
768.434	21.25
768.613	21.16
768.792	21.3
768.972	21.49
769.151	21.25
769.33	21.42
769.51	21.67
769.689	21.45
769.868	21.47
770.047	21.46
770.226	21.78
770.406	21.77
770.585	21.98
770.764	21.76
770.943	21.74
771.122	21.9
771.301	21.79
771.48	21.95
771.66	22.16
771.839	21.84
772.018	21.8
772.197	21.72
772.376	21.44
772.555	21.27
772.734	21.59
772.913	21.57
773.092	21.44
773.271	21.61
773.449	21.54
773.628	21.78
773.807	21.93
773.986	21.55
774.165	21.4
774.344	21.62
774.523	21.79
774.701	21.66
774.88	21.58
775.059	21.95
775.238	22.02
775.417	21.65
775.595	21.26
775.774	21.79
775.953	22.35
776.131	22.48
776.31	22.59
776.489	22.88
776.667	22.74
776.846	23.05
777.025	22.92
777.203	23.03
777.382	22.94
777.56	23.06
777.739	22.64
777.917	22.3
778.096	22.19
778.274	22.1
778.453	21.94
778.631	21.59
778.81	21.38
778.988	20.91
779.166	20.72
779.345	20.7
779.523	20.53
779.702	20.8
779.88	20.76
780.058	20.99
780.237	21.19
780.415	21.42
780.593	22.03
780.771	21.64
780.95	21.83
781.128	21.56
781.306	21.75
781.484	22.3
781.662	21.89
781.841	22.08
782.019	22.12
782.197	21.76
782.375	21.63
782.553	21.5
782.731	22
782.909	22.49
783.087	22.49
783.265	23.11
783.443	22.57
783.621	22.43
783.799	22.31
783.977	21.94
784.155	21.88
784.333	21.69
784.511	21.77
784.689	21.41
784.867	21.23
785.045	21.4
785.223	20.94
785.4	21.02
785.578	20.98
785.756	21.22
785.934	20.96
786.112	21.53
786.289	21.7
786.467	21.5
786.645	21.43
786.823	21.37
787	21.32
787.178	21.53
787.356	21.34
787.533	21.69
787.711	21.95
787.889	22.34
788.066	22.2
788.244	21.97
788.421	22.3
788.599	22.82
788.776	22.63
788.954	22.49
789.131	22.03
789.309	22.13
789.486	21.69
789.664	21.44
789.841	20.75
790.019	20.53
790.196	20.34
790.373	19.97
790.551	19.38
790.728	19.82
790.906	20.36
791.083	19.92
791.26	19.77
791.437	20.2
791.615	19.93
791.792	20.67
791.969	20.22
792.146	20.38
792.324	20.53
792.501	20.98
792.678	21.01
792.855	20.67
793.032	21.13
793.209	21.67
793.387	21.96
793.564	21.86
793.741	21.83
793.918	22.08
794.095	22.6
794.272	22.81
794.449	22.32
794.626	22.51
794.803	21.93
794.98	21.41
795.157	21.41
795.334	20.96
795.511	21.01
795.688	20.63
795.864	20.6
796.041	20.21
796.218	19.75
796.395	20.3
796.572	20
796.749	20.1
796.925	21.19
797.102	20.8
797.279	21.14
797.456	21.64
797.632	21.81
797.809	22.07
797.986	22.34
798.162	22.73
798.339	22.04
798.516	22.04
798.692	22.45
798.869	22.51
799.046	22.49
799.222	22.54
799.399	21.85
799.575	22.01
799.752	21.55
799.928	21.26
800.105	20.95
800.281	21.34
800.458	21.84
800.634	22.22
800.811	21.82
800.987	22.14
801.163	21.84
801.34	21.56
801.516	21.44
801.692	21.83
801.869	22.31
802.045	22.34
802.221	22.22
802.398	21.29
802.574	21
802.75	20.66
802.926	20.45
803.103	20.55
803.279	21.43
803.455	21.59
803.631	22.24
803.807	21.56
803.983	21.85
804.16	22.23
804.336	22.25
804.512	21.84
804.688	22.61
804.864	22.82
805.04	22.63
805.216	22.71
805.392	22.37
805.568	21.46
805.744	22.45
805.92	21.99
806.096	21.45
806.272	22.44
806.448	22.57
806.623	21.99
806.799	22.5
806.975	23.05
807.151	22.91
807.327	22.82
807.503	23.59
807.678	22.71
807.854	23.09
808.03	23.35
808.206	22.61
808.381	23.06
808.557	22.85
808.733	22.75
808.908	22.9
809.084	22.03
809.26	22.55
809.435	22.37
809.611	23.01
809.787	23.07
809.962	22.85
810.138	23.01
810.313	22.69
810.489	22.55
810.664	22.13
810.84	21.19
811.015	21.94
811.191	21.95
811.366	21.53
811.542	20.68
811.717	20.39
811.892	20.77
812.068	21.55
812.243	22.12
812.419	22.8
812.594	22.66
812.769	23.02
812.944	22.88
813.12	21.71
813.295	22.25
813.47	22.48
813.645	22.38
813.821	22.62
813.996	21.41
814.171	21.44
814.346	21.89
814.521	22.23
814.697	21.92
814.872	22.44
815.047	23.67
815.222	23.09
815.397	23.39
815.572	23.37
815.747	23.14
815.922	23.28
816.097	23.05
816.272	22.08
816.447	21.92
816.622	22.59
816.797	21.89
816.972	21.57
817.147	21.99
817.322	21.66
817.496	22.01
817.671	22.15
817.846	22.77
818.021	22.22
818.196	22.59
818.371	23.04
818.545	22.78
818.72	23.5
818.895	23.82
819.069	23.47
819.244	23.39
819.419	22.97
819.594	22.97
819.768	22.39
819.943	22.49
820.117	22.06
820.292	21.69
820.467	21.69
820.641	21.46
820.816	21.29
820.99	21.37
821.165	21.35
821.339	21.38
821.514	21.28
821.688	21.29
821.863	21.19
822.037	21.31
822.212	21.4
822.386	21.37
822.56	21.36
822.735	21.39
822.909	21.36
823.084	21.33
823.258	21.37
823.432	21.38
823.606	21.45
823.781	21.54
823.955	21.51
824.129	21.26
824.303	21.43
824.478	21.52
824.652	21.51
824.826	21.49
825	21.56
825.174	21.37
825.348	21.24
825.523	21.25
825.697	21
825.871	21.04
826.045	21.29
826.219	21.1
826.393	21.11
826.567	21.25
826.741	21.4
826.915	21.64
827.089	21.59
827.263	21.9
827.437	22.09
827.611	22.46
827.784	22.38
827.958	22.25
828.132	22.37
828.306	22.18
828.48	21.85
828.654	21.72
828.827	21.34
829.001	21.63
829.175	21.3
829.349	21.2
829.522	21.42
829.696	21.8
829.87	21.97
830.044	21.82
830.217	22.17
830.391	22.23
830.565	22.69
830.738	22.76
830.912	22.69
831.085	23.01
831.259	23.12
831.432	22.6
831.606	22.19
831.779	22.13
831.953	22.17
832.126	21.67
832.3	21.68
832.473	21.4
832.647	21.4
832.82	21.45
832.994	21.32
833.167	21.04
833.34	20.95
833.514	21.14
833.687	21.55
833.86	20.78
834.034	21.26
834.207	21.45
834.38	21.25
834.553	21.37
834.727	21.38
834.9	21.35
835.073	21.2
835.246	21.13
835.419	21.03
835.593	21.09
835.766	22.67
835.939	22.49
836.112	22.6
836.285	22.56
836.458	22.73
836.631	23.07
836.804	23.08
836.977	23.64
837.15	24.67
837.323	24.97
837.496	23.92
837.669	23.19
837.842	23.06
838.015	23.66
838.188	23.86
838.361	23.68
838.533	24.23
838.706	23.31
838.879	23.03
839.052	22.73
839.225	22.72
839.398	23.09
839.57	21.88
839.743	21.4
839.916	20.72
840.088	21.19
840.261	21.07
840.434	20.42
840.607	20.44
840.779	20.78
840.952	20.68
841.124	20.14
841.297	21.02
841.47	21.05
841.642	21.28
841.815	22.01
841.987	21.45
842.16	21.92
842.332	21.27
842.505	22.88
842.677	23.64
842.85	24.37
843.022	25.68
843.194	24.25
843.367	25.43
843.539	26.58
843.712	25.8
843.884	25.05
844.056	24.47
844.229	24.2
844.401	22.73
844.573	23.63
844.745	23.17
844.918	23.26
845.09	24.96
845.262	25.97
845.434	26.75
845.606	26.93
845.779	28.37
845.951	30.58
846.123	31.81
846.295	32.44
846.467	30.67
846.639	29.83
846.811	29.17
846.983	28.58
847.155	29.81
847.327	28.53
847.499	27.66
847.671	25.55
847.843	21.41
848.015	19.97
848.187	20.61
848.359	19.63
848.531	20.18
848.703	20.39
848.875	23.56
849.047	22.74
849.218	22.69
849.39	23.47
849.562	26.67
849.734	27.53
849.905	29.17
850.077	29.57
850.249	30.02
850.421	30.12
850.592	30.6
850.764	27.39
850.936	25.94
851.107	25.11
851.279	24.03
851.451	24.41
851.622	25.97
851.794	28.07
851.965	26.13
852.137	26.38
852.308	26.76
852.48	25.57
852.651	24.1
852.823	24.13
852.994	26.48
853.166	28
853.337	26.99
853.509	27.77
853.68	25.66
853.851	28.45
854.023	28.55
854.194	28.13
854.365	28.34
854.537	28.7
854.708	28.32
854.879	25.41
855.05	23.51
855.222	23.41
855.393	21.68
855.564	23.05
855.735	21.24
855.906	20.92
856.078	19.91
856.249	21.19
856.42	18.8
856.591	20.33
856.762	23.47
856.933	24.17
857.104	23.52
857.275	24.28
857.446	22.81
857.617	22.41
857.788	22.85
857.959	24.01
858.13	22.99
858.301	24.95
858.472	24.08
858.643	22.94
858.814	24.77
858.985	24.34
859.155	24.53
859.326	24.95
859.497	27.85
859.668	26.66
859.839	29.48
860.009	32.33
860.18	31.4
860.351	33.64
860.522	33.06
860.692	32.82
860.863	33.44
861.034	31.65
861.204	30.52
861.375	29.56
861.546	28.75
861.716	24.74
861.887	21.65
862.057	22.03
862.228	19.79
862.398	17.84
862.569	19.22
862.739	18.25
862.91	20.49
863.08	22.07
863.251	18.31
863.421	19.35
863.592	20.96
863.762	24.5
863.932	25.97
864.103	25.77
864.273	25.18
864.443	25.46
864.614	26.99
864.784	26.29
864.954	26.59
865.125	29.97
865.295	31.69
865.465	32.2
865.635	28.7
865.805	28.5
865.976	27.6
866.146	30.05
866.316	27.72
866.486	27.42
866.656	25.9
866.826	25.07
866.996	22.96
867.166	20.17
867.336	19.38
867.506	20.09
867.676	20.95
867.846	22.8
868.016	22.5
868.186	22.35
868.356	22.19
868.526	26.26
868.696	25.46
868.866	29.38
869.036	29.99
869.206	30.69
869.376	30.09
869.545	27.16
869.715	26.46
869.885	27.29
870.055	26.64
870.224	29.12
870.394	25.82
870.564	27.44
870.734	24.71
870.903	27.36
871.073	25.7
871.243	26.82
871.412	27.04
871.582	28.66
871.751	28.45
871.921	28.61
872.091	25.49
872.26	25.6
872.43	24.71
872.599	25.1
872.769	24.23
872.938	25.27
873.108	24.86
873.277	25.19
873.446	24.84
873.616	23.44
873.785	26.51
873.955	29.03
874.124	29.27
874.293	29.67
874.463	29.66
874.632	29
874.801	27.49
874.971	29.73
875.14	30.02
875.309	27.89
875.478	26.97
875.647	26.6
875.817	24.85
875.986	24.29
876.155	23.73
876.324	23.15
876.493	25.82
876.662	26.18
876.831	24.58
877	26.48
877.17	31.19
877.339	34.02
877.508	33.54
877.677	35.47
877.846	37.77
878.015	37.58
878.184	38.01
878.352	36.7
878.521	37.91
878.69	36.6
878.859	35.32
879.028	32.12
879.197	28.97
879.366	28.09
879.534	27.04
879.703	25.14
879.872	24.79
880.041	24.48
880.21	23.53
880.378	22.88
880.547	23.3
880.716	23.07
880.884	22.41
881.053	23.03
881.222	22.45
881.39	22.26
881.559	22.47
881.727	22.56
881.896	22.52
882.065	22.27
882.233	22.64
882.402	22.54
882.57	22.37
882.739	22.54
882.907	22.73
883.076	23
883.244	22.91
883.412	22.92
883.581	23.07
883.749	22.99
883.918	23.88
884.086	23.8
884.254	23.93
884.423	24.06
884.591	25.02
884.759	24.88
884.927	25.65
885.096	25.69
885.264	26.32
885.432	26.39
885.6	26.31
885.769	26.06
885.937	25.78
886.105	24.36
886.273	24.95
886.441	24.47
886.609	25
886.777	24.03
886.945	24.81
887.113	24.89
887.281	23.49
887.449	25.9
887.617	26.01
887.785	25.26
887.953	25.82
888.121	27.17
888.289	27.79
888.457	27.31
888.625	28.29
888.793	28.2
888.961	27.33
889.129	27.44
889.296	26.32
889.464	26.08
889.632	27.65
889.8	29.5
889.967	26.63
890.135	26.45
