Data from JASIL_3159_Reflection_2.txt Node
Date: Thu Nov 12 21:48:33 EST 2015
User: Geneva
Spectrometer: USB4E03002
Autoset integration time: false
Trigger mode: 4
Integration Time (sec): 1.000000E-1
Scans to average: 10
Electric dark correction enabled: true
Nonlinearity correction enabled: false
Boxcar width: 5
Stray light correction enabled: false
XAxis mode: Wavelengths
Stop averaging: false
Number of Pixels in Spectrum: 3648
>>>>>Begin Spectral Data<<<<<
177.575	251.75
177.794	182.14
178.014	143.28
178.233	203.92
178.452	110.36
178.672	177.39
178.891	-34.46
179.11	-125.65
179.33	-301.81
179.549	-127.65
179.768	959.75
179.987	165.02
180.207	89.93
180.426	43.27
180.645	294.56
180.864	281.83
181.084	236.06
181.303	1622.72
181.522	408.38
181.741	166.18
181.96	295.4
182.179	171.56
182.398	498.17
182.618	306.35
182.837	-65.83
183.056	-50.04
183.275	23.07
183.494	27.91
183.713	76.63
183.932	74.39
184.151	52.54
184.37	58.05
184.589	29.89
184.808	48.66
185.027	39.96
185.246	35.5
185.465	42.12
185.684	19.42
185.903	34.36
186.122	-6.64
186.341	14.02
186.56	-33.4
186.779	-650.06
186.998	-317.58
187.216	-147.24
187.435	-294.28
187.654	-882.38
187.873	-400.28
188.092	399.92
188.311	760.4
188.53	2053.16
188.748	-4313.04
188.967	-56.71
189.186	-10.91
189.405	-58.58
189.623	-57.85
189.842	-93.77
190.061	-46.24
190.28	-108.15
190.498	-35.07
190.717	-26.84
190.936	-49.25
191.154	-28.95
191.373	-232.4
191.592	-131.95
191.81	-95.86
192.029	-547.72
192.248	-167.73
192.466	-188.85
192.685	-212.82
192.904	-209.97
193.122	-314.65
193.341	-198.91
193.559	-378.68
193.778	-107.27
193.996	-119.16
194.215	-40.43
194.433	-32.86
194.652	-61.64
194.87	-70.11
195.089	-93.84
195.307	-124.78
195.526	-309.12
195.744	2447.73
195.963	201.2
196.181	73.44
196.399	54.1
196.618	92.93
196.836	110.17
197.055	111
197.273	110.1
197.491	113.47
197.71	111.35
197.928	128.67
198.146	174.88
198.365	441.86
198.583	524.96
198.801	726.32
199.019	-46.5
199.238	12.66
199.456	-81.34
199.674	45.63
199.892	11.04
200.111	48.78
200.329	102.1
200.547	91.13
200.765	127.36
200.983	75.77
201.202	99.6
201.42	120.2
201.638	83.78
201.856	37.74
202.074	-2.11
202.292	66.35
202.51	36.38
202.728	3.95
202.946	10.16
203.165	-24.68
203.383	-39.32
203.601	-38.09
203.819	-23.33
204.037	-23.73
204.255	1.5
204.473	-26.92
204.691	-77.16
204.909	-37.82
205.127	-8.95
205.345	-27.01
205.562	-25.71
205.78	-20.28
205.998	-11.03
206.216	-46.98
206.434	-109.15
206.652	-151.37
206.87	-50.04
207.088	-3864.84
207.306	-581.16
207.523	789.9
207.741	484.91
207.959	-1340
208.177	-188.99
208.395	-324.62
208.612	-124
208.83	-46.77
209.048	-56.45
209.266	-85.13
209.483	-9.25
209.701	-15.08
209.919	-12.59
210.136	-11.92
210.354	2.32
210.572	-12.02
210.79	8.63
211.007	22.31
211.225	-13.13
211.442	-14.34
211.66	-14.63
211.878	7.53
212.095	171.58
212.313	129.95
212.53	125.77
212.748	127.6
212.966	134.96
213.183	131.98
213.401	123.66
213.618	127.4
213.836	137.31
214.053	128.09
214.271	130.67
214.488	-1895.45
214.705	-478.43
214.923	-577.58
215.14	-155.92
215.358	-180.31
215.575	-132.81
215.793	-215.08
216.01	532.28
216.227	-19327.27
216.445	-69.41
216.662	-182.32
216.879	-295.93
217.097	-148.41
217.314	-88.58
217.531	-175.99
217.749	-126.62
217.966	-90.83
218.183	-96.89
218.4	-85.86
218.618	-45.29
218.835	-60.95
219.052	-36.84
219.269	-2.36
219.487	0.25
219.704	-11.22
219.921	-11.17
220.138	-14.23
220.355	37.57
220.572	7.38
220.79	17.9
221.007	11.77
221.224	-2.31
221.441	-15.31
221.658	-18.13
221.875	-9.64
222.092	-19.31
222.309	8.76
222.526	-1.49
222.743	-21.29
222.96	-13.2
223.177	-48.67
223.394	-122.28
223.611	-44.74
223.828	-45.05
224.045	-23.35
224.262	-15.94
224.479	-38.44
224.696	-28
224.913	-20.19
225.13	-5.6
225.347	-12.02
225.564	12.26
225.781	25.33
225.997	22.83
226.214	22.19
226.431	7.04
226.648	2.64
226.865	4.16
227.082	-5.98
227.298	1.98
227.515	8.02
227.732	10.97
227.949	7.52
228.165	1.87
228.382	7.99
228.599	4.86
228.816	2.75
229.032	3.82
229.249	3.42
229.466	15.94
229.682	6.8
229.899	1.01
230.116	-12.76
230.332	-25.25
230.549	-21.56
230.765	-11.97
230.982	-3.88
231.199	5.26
231.415	3.25
231.632	18.68
231.848	13.86
232.065	16.13
232.281	27.73
232.498	32.4
232.714	32.53
232.931	26.48
233.147	24.57
233.364	23.7
233.58	31.72
233.797	38.44
234.013	31.83
234.23	32.78
234.446	34.57
234.662	8.43
234.879	19.43
235.095	33.1
235.312	39.53
235.528	36.14
235.744	32.07
235.961	14.47
236.177	-8.41
236.393	-11.63
236.61	-3.97
236.826	4.49
237.042	18.42
237.258	13.31
237.475	-9.44
237.691	-1.9
237.907	-4.58
238.123	-0.81
238.339	13.66
238.556	15.64
238.772	5.68
238.988	7.2
239.204	10.88
239.42	-2.29
239.636	-0.54
239.853	8.92
240.069	8.58
240.285	1.96
240.501	0.23
240.717	6.18
240.933	13.14
241.149	14.92
241.365	14.88
241.581	12.77
241.797	18.03
242.013	12.77
242.229	11.29
242.445	11.02
242.661	19.61
242.877	23.86
243.093	20.05
243.309	15.5
243.525	15.95
243.741	12.86
243.957	10.66
244.173	6.53
244.388	8.55
244.604	9.27
244.82	9.13
245.036	2.71
245.252	4.96
245.468	7.23
245.683	7.41
245.899	8.93
246.115	8.07
246.331	9.01
246.547	7.71
246.762	12.19
246.978	13.42
247.194	8.08
247.409	9.21
247.625	5.9
247.841	3.67
248.057	6.44
248.272	5.33
248.488	5.27
248.703	5.76
248.919	8.06
249.135	5
249.35	-0.08
249.566	8.95
249.782	4.45
249.997	5.33
250.213	2.5
250.428	-2.57
250.644	-8.67
250.859	-1.56
251.075	-3.8
251.29	-3.96
251.506	-6.53
251.721	-4
251.937	-7.12
252.152	-0.94
252.368	-5.52
252.583	-6.18
252.798	-4.06
253.014	-1.98
253.229	-11.74
253.445	-11.69
253.66	-9.72
253.875	-7.41
254.091	-12.44
254.306	-8.42
254.521	-18
254.737	-5.44
254.952	-6.17
255.167	-2.38
255.383	-1.26
255.598	-4.75
255.813	-2.96
256.028	-5.3
256.244	-7.69
256.459	-4.56
256.674	-4.35
256.889	-0.55
257.104	1.76
257.32	3.96
257.535	2.46
257.75	-0.75
257.965	2.39
258.18	0.03
258.395	-2.2
258.61	0.68
258.826	2.75
259.041	2.33
259.256	1.58
259.471	-0.04
259.686	-1.64
259.901	-0.72
260.116	1.33
260.331	0.64
260.546	4.2
260.761	5.63
260.976	5.5
261.191	5.01
261.406	5.47
261.621	2.18
261.836	2.96
262.05	2.96
262.265	-5.6
262.48	1.42
262.695	2.15
262.91	-0.6
263.125	-0.44
263.34	-2.53
263.555	-4.76
263.769	-10.88
263.984	-4.67
264.199	-10.66
264.414	-8.73
264.629	2.92
264.843	-8.33
265.058	-8.09
265.273	-6.78
265.488	-9.41
265.702	-6.26
265.917	-4.9
266.132	-4.72
266.346	-3.48
266.561	-2.84
266.776	-4.21
266.99	-8.01
267.205	-3.77
267.42	-6.26
267.634	-5.43
267.849	2.29
268.063	0.36
268.278	1.13
268.492	0.22
268.707	2.86
268.922	5.1
269.136	12.56
269.351	14.78
269.565	13.79
269.78	15.9
269.994	14.39
270.209	13.36
270.423	14.78
270.637	12.43
270.852	13.78
271.066	10.81
271.281	9.75
271.495	6.27
271.709	0.9
271.924	-1.77
272.138	-2.89
272.353	-3.54
272.567	-7.33
272.781	-9.69
272.996	-6.56
273.21	-4.51
273.424	-0.82
273.638	2.56
273.853	1.3
274.067	5.1
274.281	7.71
274.495	9.65
274.71	11.5
274.924	10.19
275.138	12.75
275.352	11.11
275.566	8.04
275.781	3.35
275.995	3.74
276.209	1.33
276.423	1.33
276.637	-0.1
276.851	3.31
277.065	-3.03
277.279	-4.07
277.493	-5.07
277.707	-3.95
277.921	-1.54
278.135	1.14
278.349	6.98
278.563	9.09
278.777	8.55
278.991	6.9
279.205	0.32
279.419	5.37
279.633	6.63
279.847	6.75
280.061	6.63
280.275	9.95
280.489	6.08
280.703	-6.32
280.917	-2.86
281.131	-2.89
281.344	-1.31
281.558	1.65
281.772	-0.9
281.986	0.54
282.2	-0.05
282.414	-1.71
282.627	-6.19
282.841	-3.11
283.055	4.49
283.269	2.96
283.482	2.34
283.696	-0.38
283.91	-0.95
284.123	-4.29
284.337	-2.85
284.551	-4.42
284.764	-0.97
284.978	0.28
285.192	1.65
285.405	-0.49
285.619	0.07
285.833	3.24
286.046	7.35
286.26	8.27
286.473	11.76
286.687	9.62
286.9	13.33
287.114	11.3
287.327	9.15
287.541	6.75
287.754	8.23
287.968	7.48
288.181	4.35
288.395	0.69
288.608	3.48
288.822	1.73
289.035	0.82
289.248	0.25
289.462	0.4
289.675	3.4
289.889	2.2
290.102	0.75
290.315	0.33
290.529	2.21
290.742	3.3
290.955	-0.71
291.169	1.36
291.382	4.05
291.595	5.46
291.808	5.18
292.022	3.44
292.235	5.78
292.448	4.98
292.661	4.77
292.875	0.96
293.088	0.68
293.301	2.76
293.514	-1.17
293.727	-1.96
293.94	-5.86
294.153	-5.91
294.367	-6.89
294.58	-7.22
294.793	-3.61
295.006	-5.76
295.219	-2.92
295.432	-1.68
295.645	-2.08
295.858	-0.13
296.071	-1.07
296.284	0.18
296.497	2.14
296.71	1.32
296.923	1.88
297.136	-1.28
297.349	-1.02
297.562	0.34
297.775	0.6
297.988	-0.33
298.201	0.77
298.414	2.4
298.626	2.84
298.839	-0.14
299.052	3.66
299.265	2.3
299.478	5.69
299.691	7.64
299.903	5.11
300.116	6.74
300.329	9.81
300.542	8.49
300.755	7.29
300.967	6.95
301.18	8.63
301.393	6.28
301.605	11.12
301.818	9.38
302.031	9.01
302.243	11.66
302.456	11.8
302.669	9.73
302.881	8.75
303.094	8.32
303.307	7.01
303.519	7.45
303.732	6.63
303.944	2.42
304.157	1.16
304.37	1.3
304.582	0.39
304.795	-3.88
305.007	-3.54
305.22	-0.33
305.432	0.04
305.645	0.63
305.857	0.84
306.069	1.56
306.282	4.08
306.494	7.53
306.707	8.92
306.919	9.35
307.132	8.9
307.344	7.15
307.556	5.02
307.769	3.67
307.981	5
308.193	1.7
308.406	3.54
308.618	1.56
308.83	-0.8
309.043	-1.29
309.255	-2.82
309.467	-1.74
309.679	-0.96
309.892	0.47
310.104	0.83
310.316	-1.11
310.528	1.17
310.74	0.55
310.953	1.2
311.165	2.3
311.377	3.39
311.589	3.13
311.801	2.77
312.013	3.1
312.225	1.64
312.437	1.63
312.649	2.41
312.862	2.57
313.074	4.2
313.286	6.49
313.498	8.19
313.71	4.89
313.922	3.45
314.134	3.2
314.346	2.43
314.558	2.01
314.77	5.33
314.982	5.93
315.193	3.29
315.405	-2.44
315.617	-4.03
315.829	-5.11
316.041	-5.37
316.253	1.02
316.465	3.41
316.677	3.08
316.888	6.17
317.1	6.62
317.312	6.51
317.524	8.87
317.736	11.83
317.947	10.79
318.159	10.58
318.371	14.04
318.583	14.4
318.794	13.44
319.006	14.14
319.218	12.74
319.43	10.9
319.641	12.28
319.853	14.49
320.064	15.73
320.276	16.96
320.488	13.05
320.699	14.39
320.911	12.39
321.123	11.18
321.334	9.7
321.546	10.09
321.757	12.54
321.969	10.44
322.18	7.26
322.392	7.2
322.603	6.63
322.815	10.8
323.026	9.57
323.238	8.28
323.449	9.4
323.661	9.24
323.872	9.52
324.083	7.51
324.295	9.77
324.506	12.35
324.718	11.74
324.929	11.74
325.14	11.2
325.352	8.25
325.563	10.13
325.774	9.69
325.986	10.32
326.197	10.04
326.408	13.61
326.62	12.48
326.831	10.38
327.042	11.01
327.253	10.91
327.464	11.07
327.676	15.57
327.887	15.23
328.098	16.11
328.309	17.16
328.52	18.55
328.732	15.98
328.943	14.23
329.154	16.16
329.365	14.71
329.576	14.22
329.787	14.16
329.998	10.73
330.209	9.27
330.42	9.17
330.631	8.44
330.842	8.3
331.053	9.39
331.264	13.47
331.475	12.78
331.686	14.23
331.897	16.63
332.108	16.59
332.319	19.14
332.53	19.23
332.741	19.74
332.952	19.63
333.163	17.11
333.374	16.39
333.585	13.98
333.795	12.84
334.006	11.68
334.217	12.08
334.428	12.51
334.639	11.89
334.849	12.68
335.06	15.06
335.271	16.35
335.482	17.11
335.692	16.43
335.903	17.1
336.114	20.08
336.325	22.5
336.535	23.1
336.746	21.14
336.957	20.37
337.167	20.92
337.378	16.64
337.589	17.53
337.799	18.81
338.01	20.07
338.22	20.73
338.431	18.77
338.642	17.74
338.852	16.34
339.063	18.47
339.273	17.56
339.484	21.27
339.694	23.24
339.905	22.17
340.115	21.49
340.326	20.38
340.536	20.6
340.746	19.65
340.957	18.3
341.167	16.77
341.378	15.5
341.588	13.91
341.799	10.66
342.009	10.53
342.219	10.29
342.43	11.55
342.64	13.8
342.85	12.14
343.061	12.14
343.271	11
343.481	11.06
343.691	9.66
343.902	12.01
344.112	11.84
344.322	12.34
344.532	12.59
344.743	13.09
344.953	11.32
345.163	13.07
345.373	14.31
345.583	15.47
345.793	15.29
346.004	18.1
346.214	17.11
346.424	17.8
346.634	17.81
346.844	18.33
347.054	19.74
347.264	19.31
347.474	19.48
347.684	19.64
347.894	19.47
348.104	20.74
348.314	19.6
348.524	21.46
348.734	23.88
348.944	24.79
349.154	26.55
349.364	24.05
349.574	25.4
349.784	25.6
349.994	26.11
350.204	27.1
350.413	25.58
350.623	25.9
350.833	24.8
351.043	21.49
351.253	20.61
351.463	18.45
351.672	19.47
351.882	17.51
352.092	13.93
352.302	12.86
352.511	13.32
352.721	12.58
352.931	11.92
353.141	12.29
353.35	12.56
353.56	12.17
353.77	9.98
353.979	9.83
354.189	10.82
354.399	15.06
354.608	14.38
354.818	13.35
355.027	14.76
355.237	15.35
355.447	13.79
355.656	13.11
355.866	11.97
356.075	13.34
356.285	13.23
356.494	14.01
356.704	12.34
356.913	12.81
357.123	13.72
357.332	14
357.542	14.02
357.751	14.66
357.96	15.15
358.17	16.05
358.379	17.79
358.589	17.88
358.798	17.62
359.007	17.56
359.217	19.47
359.426	18.9
359.635	18.51
359.845	18.03
360.054	17.28
360.263	17.44
360.472	17.62
360.682	16.61
360.891	16.6
361.1	16.13
361.309	17.5
361.519	16.01
361.728	15.8
361.937	15.7
362.146	16.31
362.355	17.72
362.564	18.86
362.774	18.34
362.983	18.03
363.192	18.55
363.401	18.04
363.61	17.08
363.819	16.59
364.028	17
364.237	18.1
364.446	18.55
364.655	18.49
364.864	17.87
365.073	19.32
365.282	19.69
365.491	18.35
365.7	19.46
365.909	19.46
366.118	20.44
366.327	20.36
366.536	20.03
366.745	18.99
366.954	17.42
367.162	16.18
367.371	15.13
367.58	15.41
367.789	17.22
367.998	16.65
368.207	16.19
368.415	14.5
368.624	15.1
368.833	14.86
369.042	15.27
369.25	17.51
369.459	18.24
369.668	18.71
369.877	18.05
370.085	17.88
370.294	18.45
370.503	19.66
370.711	19.58
370.92	19.33
371.129	19.76
371.337	19.15
371.546	18.49
371.754	17.99
371.963	16.82
372.171	16.95
372.38	16.31
372.589	15.36
372.797	13.06
373.006	13.81
373.214	11.84
373.423	12.47
373.631	13.41
373.84	13.97
374.048	13.91
374.256	15.44
374.465	14.88
374.673	13.29
374.882	12.67
375.09	13.89
375.298	13.9
375.507	16.53
375.715	14.82
375.923	14.63
376.132	13.15
376.34	13.88
376.548	13.69
376.757	13.53
376.965	14.94
377.173	15.6
377.381	15.01
377.59	15.2
377.798	13.06
378.006	14.04
378.214	13.1
378.423	13.4
378.631	13.29
378.839	11.81
379.047	13.38
379.255	13.44
379.463	13.49
379.671	14.14
379.879	14.28
380.088	16.44
380.296	16.31
380.504	16.73
380.712	17.9
380.92	17.91
381.128	19.05
381.336	18.63
381.544	17.54
381.752	16.44
381.96	16.98
382.168	17.08
382.376	16.02
382.584	15.91
382.791	15.84
382.999	14.34
383.207	13.01
383.415	12.6
383.623	12.4
383.831	12.7
384.039	13.19
384.247	12.23
384.454	12.53
384.662	12.04
384.87	12.71
385.078	12.76
385.285	14.57
385.493	14.48
385.701	15.94
385.909	15.75
386.116	15.47
386.324	16.43
386.532	16.52
386.739	16.65
386.947	16.11
387.155	15.47
387.362	15.98
387.57	14.32
387.778	15.1
387.985	13.29
388.193	13.14
388.4	13.12
388.608	13.31
388.816	13.07
389.023	12.39
389.231	13.07
389.438	12.23
389.646	12.16
389.853	12.23
390.061	12.69
390.268	12.6
390.475	13.73
390.683	13.62
390.89	13.64
391.098	13.96
391.305	14.27
391.512	13.67
391.72	13.53
391.927	13.92
392.135	14.39
392.342	14.35
392.549	15.06
392.756	14.01
392.964	14.89
393.171	13.92
393.378	13.33
393.586	13.56
393.793	14.12
394	14.74
394.207	14.05
394.414	14.87
394.622	14.77
394.829	13.89
395.036	13.89
395.243	13.4
395.45	13.76
395.657	13.93
395.864	13.35
396.072	13.64
396.279	13.48
396.486	13.46
396.693	11.79
396.9	11.3
397.107	11.96
397.314	12.63
397.521	12.83
397.728	12.81
397.935	12.09
398.142	11.95
398.349	12.13
398.556	13.16
398.763	13.42
398.97	13.99
399.177	14.43
399.383	14.99
399.59	14.38
399.797	13.99
400.004	14.48
400.211	14.93
400.418	14.67
400.625	13.52
400.831	11.87
401.038	11.11
401.245	10.79
401.452	10.14
401.658	9.28
401.865	9.22
402.072	8.53
402.279	8.07
402.485	8.02
402.692	8.8
402.899	9.06
403.105	10.47
403.312	11.42
403.519	11.05
403.725	11.12
403.932	11.02
404.138	11.1
404.345	11.73
404.552	11.78
404.758	11.27
404.965	10.19
405.171	10.41
405.378	9.75
405.584	9.29
405.791	10.27
405.997	9.91
406.204	10.13
406.41	9.43
406.617	9.28
406.823	9.53
407.029	10.18
407.236	10.54
407.442	10.04
407.649	9.64
407.855	10.28
408.061	8.91
408.268	9.91
408.474	10.47
408.68	10.81
408.887	11.94
409.093	11.84
409.299	11.32
409.505	12.63
409.712	12.97
409.918	13.97
410.124	13.76
410.33	14.12
410.537	13.98
410.743	13.84
410.949	13.5
411.155	13.21
411.361	13.22
411.567	13.87
411.773	13.44
411.98	14.19
412.186	13.34
412.392	12.62
412.598	13.29
412.804	12.91
413.01	12.43
413.216	12.99
413.422	12.98
413.628	12.26
413.834	11.25
414.04	10.57
414.246	10.46
414.452	10.21
414.658	11.01
414.864	10.38
415.07	10.83
415.275	11.2
415.481	10.68
415.687	9.96
415.893	10.44
416.099	11.21
416.305	11.28
416.511	12.12
416.716	12.41
416.922	11
417.128	11.4
417.334	10.98
417.539	10.51
417.745	10.87
417.951	11.53
418.157	11.34
418.362	11.55
418.568	11.2
418.774	10.49
418.979	10.68
419.185	11.42
419.391	11.4
419.596	11.59
419.802	11.89
420.008	11.86
420.213	11.43
420.419	11.36
420.624	11.79
420.83	12.32
421.035	12.27
421.241	12.27
421.446	11.71
421.652	11.71
421.857	11.52
422.063	11.69
422.268	11.58
422.474	11.47
422.679	12.04
422.885	11.27
423.09	10.96
423.295	11.27
423.501	10.78
423.706	11.16
423.911	10.88
424.117	10.94
424.322	10.54
424.527	10.36
424.733	10.67
424.938	10.29
425.143	10.01
425.349	9.95
425.554	9.7
425.759	10.36
425.964	10.34
426.169	10.79
426.375	11
426.58	11.36
426.785	11.27
426.99	10.4
427.195	10.2
427.4	10.33
427.605	10.32
427.811	10.7
428.016	9.78
428.221	9.29
428.426	8.6
428.631	8.53
428.836	8.29
429.041	8.68
429.246	8.82
429.451	9.07
429.656	9.73
429.861	9.87
430.066	9.59
430.271	10.15
430.476	10.84
430.681	10.56
430.886	10.7
431.09	10.7
431.295	10.67
431.5	11.39
431.705	11.25
431.91	11.62
432.115	11.85
432.32	11.23
432.524	10.84
432.729	10.58
432.934	10.69
433.139	10.51
433.343	10.43
433.548	10.37
433.753	9.88
433.958	10.01
434.162	9.25
434.367	8.93
434.572	8.45
434.776	8.81
434.981	9.18
435.186	9.41
435.39	9.41
435.595	9.38
435.799	9.61
436.004	10.03
436.209	9.76
436.413	9.86
436.618	9.58
436.822	10.56
437.027	10.14
437.231	10.04
437.436	9.96
437.64	9.52
437.845	9.67
438.049	9.88
438.253	10.08
438.458	10.1
438.662	10.62
438.867	10.82
439.071	10.18
439.275	10.26
439.48	10.06
439.684	9.98
439.888	10.44
440.093	9.99
440.297	9.91
440.501	10.2
440.706	10.05
440.91	9.33
441.114	9.11
441.318	9.32
441.523	9.01
441.727	9.22
441.931	9.98
442.135	9.98
442.339	9.85
442.543	10.22
442.748	9.68
442.952	9.98
443.156	10.44
443.36	11.06
443.564	10.94
443.768	11.03
443.972	10.52
444.176	10.58
444.38	10.74
444.584	11.38
444.788	11.43
444.992	11.29
445.196	11.33
445.4	11.1
445.604	11.04
445.808	11.08
446.012	11.5
446.216	11.85
446.42	11.56
446.624	11.18
446.828	10.51
447.032	10.49
447.235	10.57
447.439	10.48
447.643	10.83
447.847	10.4
448.051	10.3
448.254	10.23
448.458	10.37
448.662	10.17
448.866	10.64
449.069	10.88
449.273	10.78
449.477	10.81
449.681	10.6
449.884	9.46
450.088	9.37
450.292	10.32
450.495	9.97
450.699	9.9
450.902	10.15
451.106	9.85
451.31	10.21
451.513	9.34
451.717	9.19
451.92	9.29
452.124	9.63
452.327	10.12
452.531	9.31
452.734	9.72
452.938	9.41
453.141	9.32
453.345	9.18
453.548	9.48
453.752	9.9
453.955	9.77
454.158	10.07
454.362	9.93
454.565	10.54
454.769	10.76
454.972	10.06
455.175	10.36
455.379	10.43
455.582	10.14
455.785	9.69
455.988	9.34
456.192	9.27
456.395	9.42
456.598	10.23
456.801	9.7
457.005	9.49
457.208	9.59
457.411	9.37
457.614	9.25
457.817	9.55
458.021	9.73
458.224	10.42
458.427	11.11
458.63	10.39
458.833	9.84
459.036	9.36
459.239	9.45
459.442	9.52
459.645	9.66
459.848	9.76
460.051	9.65
460.254	9.89
460.457	9.32
460.66	8.54
460.863	9.03
461.066	9
461.269	9.33
461.472	9.18
461.675	9.42
461.878	9.72
462.081	9.9
462.284	9.93
462.486	9.47
462.689	9.49
462.892	9.93
463.095	9.69
463.298	10.01
463.5	10.26
463.703	9.99
463.906	9.64
464.109	8.65
464.311	8.08
464.514	8.48
464.717	8.81
464.92	9.56
465.122	9.39
465.325	9.56
465.528	9.99
465.73	9.82
465.933	10.57
466.135	10.22
466.338	11.06
466.541	11.42
466.743	11.54
466.946	11.27
467.148	10.54
467.351	10.57
467.553	10.88
467.756	10.97
467.958	11.41
468.161	11.42
468.363	12.25
468.566	11.78
468.768	11.4
468.971	11.26
469.173	12.2
469.375	12.5
469.578	11.86
469.78	11.57
469.983	11.26
470.185	10.46
470.387	10.45
470.59	11.03
470.792	10.93
470.994	10.76
471.196	9.97
471.399	8.96
471.601	8.98
471.803	9.82
472.005	9.53
472.208	9.49
472.41	9.71
472.612	9.69
472.814	8.67
473.016	8.46
473.218	9.05
473.421	9.46
473.623	9.53
473.825	9.68
474.027	9.38
474.229	9.77
474.431	9.78
474.633	10.41
474.835	10.51
475.037	10.84
475.239	11.23
475.441	11.48
475.643	11.43
475.845	11.35
476.047	11.23
476.249	10.77
476.451	11.11
476.653	11.15
476.855	11.04
477.057	10.82
477.258	10.79
477.46	10.89
477.662	10.82
477.864	10.97
478.066	11.14
478.268	11.32
478.469	12.05
478.671	11.58
478.873	11.8
479.075	11.52
479.276	11.69
479.478	12.01
479.68	11.42
479.882	11.08
480.083	11.12
480.285	10.92
480.487	10.95
480.688	10.85
480.89	10.79
481.091	10.6
481.293	10.5
481.495	10.47
481.696	10.34
481.898	10.79
482.099	10.78
482.301	10.8
482.502	10.86
482.704	10.72
482.905	10.57
483.107	10.58
483.308	10.48
483.51	10.59
483.711	10.49
483.913	10.47
484.114	10.51
484.315	10.56
484.517	10.48
484.718	10.55
484.92	10.7
485.121	10.77
485.322	10.83
485.524	11.22
485.725	11.04
485.926	10.98
486.127	11.13
486.329	10.89
486.53	10.75
486.731	10.65
486.932	10.55
487.134	10.34
487.335	10.37
487.536	10.25
487.737	10.08
487.938	10.06
488.139	9.93
488.341	9.76
488.542	9.76
488.743	9.73
488.944	9.76
489.145	9.69
489.346	9.55
489.547	9.43
489.748	9.76
489.949	9.85
490.15	10.24
490.351	10.44
490.552	10.5
490.753	10.72
490.954	10.72
491.155	10.89
491.356	10.78
491.557	11.07
491.758	11.11
491.959	11.03
492.159	10.86
492.36	10.59
492.561	10.59
492.762	10.29
492.963	9.93
493.164	9.96
493.364	10.05
493.565	10.38
493.766	10.41
493.967	10.56
494.167	10.33
494.368	10.5
494.569	10.36
494.769	10.19
494.97	10.47
495.171	10.5
495.371	10.56
495.572	10.09
495.773	10.31
495.973	9.87
496.174	9.44
496.375	9.57
496.575	9.54
496.776	9.77
496.976	9.92
497.177	9.99
497.377	10.14
497.578	10.26
497.778	10.28
497.979	9.72
498.179	10.17
498.38	10.87
498.58	10.9
498.78	11.15
498.981	11.44
499.181	11.99
499.382	11.88
499.582	11.89
499.782	11.74
499.983	11.91
500.183	12.35
500.383	12.42
500.584	12.06
500.784	12.28
500.984	12.24
501.184	11.92
501.385	11.55
501.585	11.99
501.785	12.34
501.985	12.87
502.185	12.88
502.386	12.63
502.586	12.5
502.786	12.64
502.986	12.72
503.186	12.32
503.386	12.48
503.586	12.54
503.786	12.65
503.987	12.52
504.187	11.56
504.387	11.85
504.587	11.99
504.787	12.22
504.987	12.46
505.187	11.92
505.387	12.5
505.587	12.5
505.786	12.53
505.986	12.16
506.186	11.81
506.386	12.54
506.586	12.44
506.786	12.73
506.986	12.48
507.186	12.62
507.386	13.18
507.585	13.1
507.785	13.56
507.985	13.72
508.185	13.7
508.384	13.72
508.584	13.35
508.784	13.37
508.984	13.11
509.183	13.2
509.383	13.26
509.583	13.02
509.782	13.36
509.982	13.08
510.182	13.21
510.381	13.29
510.581	13.75
510.781	14.26
510.98	14.66
511.18	15.15
511.379	15.21
511.579	15.43
511.778	15.65
511.978	15.13
512.177	15.21
512.377	15.14
512.576	15.44
512.776	15.14
512.975	15.7
513.175	15.88
513.374	15.79
513.573	15.92
513.773	16
513.972	16.18
514.172	16.12
514.371	16.17
514.57	16.28
514.77	16.33
514.969	16.97
515.168	16.5
515.367	16.25
515.567	16.49
515.766	16.95
515.965	16.42
516.164	16.73
516.364	17.4
516.563	17.63
516.762	17.77
516.961	17.97
517.16	18
517.359	18.19
517.559	18.09
517.758	17.92
517.957	17.96
518.156	18.39
518.355	18.16
518.554	18.23
518.753	18.14
518.952	18.32
519.151	18.11
519.35	18.07
519.549	18.04
519.748	18.46
519.947	18.4
520.146	18.35
520.345	18.34
520.544	18.29
520.743	18.11
520.942	18.54
521.141	18.38
521.339	18.72
521.538	18.67
521.737	18.41
521.936	18.53
522.135	19.06
522.333	19.34
522.532	19.6
522.731	20.23
522.93	20.42
523.129	20.16
523.327	20.68
523.526	20.82
523.725	21.04
523.923	21.35
524.122	21.11
524.321	21.4
524.519	21.43
524.718	21.47
524.917	21.04
525.115	20.84
525.314	20.87
525.512	20.76
525.711	21
525.909	21.55
526.108	21.8
526.306	21.98
526.505	22.11
526.703	22.04
526.902	21.9
527.1	22.08
527.299	22.26
527.497	22.42
527.696	22.52
527.894	22.46
528.092	22.19
528.291	22.3
528.489	22.18
528.688	22.04
528.886	22.18
529.084	22.17
529.283	22.36
529.481	22.61
529.679	22.61
529.877	22.45
530.076	22.71
530.274	22.83
530.472	22.58
530.67	22.97
530.869	23.1
531.067	23.32
531.265	23.42
531.463	23.26
531.661	23.2
531.859	23.18
532.057	23.5
532.255	23.36
532.454	23.51
532.652	23.77
532.85	23.93
533.048	24.02
533.246	23.89
533.444	24.19
533.642	24.51
533.84	24.53
534.038	24.75
534.236	24.95
534.434	24.94
534.632	25.22
534.83	25.42
535.027	25.44
535.225	25.63
535.423	25.79
535.621	25.95
535.819	25.78
536.017	26.03
536.215	26
536.412	25.84
536.61	26.18
536.808	26.11
537.006	26.29
537.203	26.33
537.401	26.19
537.599	26.51
537.797	26.79
537.994	27.26
538.192	27
538.39	27.3
538.587	27.63
538.785	27.27
538.983	27.56
539.18	27.46
539.378	27.53
539.575	27.48
539.773	27.22
539.97	27.07
540.168	27.01
540.366	27
540.563	26.95
540.761	26.94
540.958	26.85
541.155	26.6
541.353	26.56
541.55	26.43
541.748	26.54
541.945	26.72
542.143	26.66
542.34	26.8
542.537	27.14
542.735	27.06
542.932	26.71
543.129	27.07
543.327	27.42
543.524	27.35
543.721	27.63
543.919	27.49
544.116	27.09
544.313	27.03
544.51	26.8
544.708	26.64
544.905	27.06
545.102	27.77
545.299	27.9
545.496	27.81
545.693	27.81
545.891	27.98
546.088	28.46
546.285	28.75
546.482	28.87
546.679	29.02
546.876	29.26
547.073	29.16
547.27	28.79
547.467	29.2
547.664	29.17
547.861	29.69
548.058	30.03
548.255	29.79
548.452	30.17
548.649	30.74
548.846	30.83
549.043	30.69
549.24	30.6
549.437	31.04
549.633	30.5
549.83	30.8
550.027	30.55
550.224	29.99
550.421	29.83
550.618	30.14
550.814	29.4
551.011	29.43
551.208	29.68
551.405	29.85
551.601	29.73
551.798	29.57
551.995	29.06
552.191	28.74
552.388	28.38
552.585	28.32
552.781	28.32
552.978	28.79
553.175	29.2
553.371	29.36
553.568	29.53
553.764	29.24
553.961	29.42
554.157	29.84
554.354	30.51
554.55	31.34
554.747	32.52
554.943	32.57
555.14	32.69
555.336	32.69
555.533	32.22
555.729	32.36
555.926	33.02
556.122	34.09
556.318	34.36
556.515	34.52
556.711	34.39
556.907	33.91
557.104	33.53
557.3	34.02
557.496	34.3
557.693	34.56
557.889	35.12
558.085	35.24
558.281	34.45
558.478	34.57
558.674	34.38
558.87	34.8
559.066	34.51
559.262	34.5
559.459	34.2
559.655	34.11
559.851	34.36
560.047	33.83
560.243	33.59
560.439	33.68
560.635	33.68
560.831	33.8
561.027	33.86
561.223	34.74
561.419	35.28
561.615	35.21
561.811	34.98
562.007	35.43
562.203	36.14
562.399	35.96
562.595	36.47
562.791	36.3
562.987	36.94
563.183	37.27
563.379	36.67
563.575	36.48
563.771	36
563.966	35.85
564.162	35.73
564.358	35.81
564.554	36
564.75	35.94
564.945	36.56
565.141	35.32
565.337	34.72
565.533	34.56
565.728	34.89
565.924	35.51
566.12	35.82
566.315	35.6
566.511	35.93
566.707	36.02
566.902	36.23
567.098	35.77
567.293	36.25
567.489	36.51
567.684	36.89
567.88	36.17
568.076	36.09
568.271	36.04
568.467	35.99
568.662	35.34
568.858	35.56
569.053	35.28
569.248	35.68
569.444	36.26
569.639	36.53
569.835	36.39
570.03	36.98
570.225	36.92
570.421	36.92
570.616	37.33
570.812	37.01
571.007	37.17
571.202	37.08
571.397	36.81
571.593	36.8
571.788	36.79
571.983	37.28
572.178	37.49
572.374	37.78
572.569	37.43
572.764	37.46
572.959	38.08
573.154	38.17
573.35	38.92
573.545	39.05
573.74	39.37
573.935	38.99
574.13	38.79
574.325	38.79
574.52	39.04
574.715	39.47
574.91	39.81
575.105	39.01
575.3	38.95
575.495	38.74
575.69	39.29
575.885	39.31
576.08	39.9
576.275	40.51
576.47	40.65
576.665	40.78
576.86	41.03
577.055	41.17
577.25	42.17
577.444	41.81
577.639	41.8
577.834	41.19
578.029	40.65
578.224	40.81
578.418	40.73
578.613	40.81
578.808	40.71
579.003	40.83
579.197	40.88
579.392	40.89
579.587	41.61
579.781	41.5
579.976	42.19
580.171	42.79
580.365	42.57
580.56	42.32
580.755	41.81
580.949	41.69
581.144	41.86
581.338	41.24
581.533	40.83
581.727	40.5
581.922	40.62
582.116	39.82
582.311	39.82
582.505	39.92
582.7	40.02
582.894	40.73
583.089	40.85
583.283	40.17
583.478	40.61
583.672	40.67
583.866	40.88
584.061	40.76
584.255	41.5
584.449	42.06
584.644	41.97
584.838	41.95
585.032	41.47
585.226	41.34
585.421	42.36
585.615	43.23
585.809	43.62
586.003	43.62
586.198	43.8
586.392	43.91
586.586	43.71
586.78	44.16
586.974	43.97
587.168	44.34
587.363	44.74
587.557	44.64
587.751	44.2
587.945	43.7
588.139	43.81
588.333	43.93
588.527	43.8
588.721	43.66
588.915	43.54
589.109	44.34
589.303	44.42
589.497	43.85
589.691	43.73
589.885	43.24
590.079	44.01
590.273	44.24
590.466	43.6
590.66	43.18
590.854	43.63
591.048	43.29
591.242	42.45
591.436	41.84
591.629	42.04
591.823	41.8
592.017	41.81
592.211	42.05
592.404	42.31
592.598	42.62
592.792	43.41
592.986	43.05
593.179	43.49
593.373	44.15
593.567	44.7
593.76	44.89
593.954	45.5
594.147	46.09
594.341	45.88
594.535	45.43
594.728	45.59
594.922	45.53
595.115	45.38
595.309	45.3
595.502	45.43
595.696	45.14
595.889	44.93
596.083	44.59
596.276	44.41
596.47	44.47
596.663	44.86
596.856	45.37
597.05	45.09
597.243	44.77
597.437	44.91
597.63	44.24
597.823	43.98
598.017	44.34
598.21	44.29
598.403	44.27
598.596	44
598.79	44.2
598.983	43.71
599.176	43.92
599.369	44.23
599.563	44.64
599.756	45.29
599.949	46.26
600.142	46.07
600.335	46.61
600.528	46.34
600.722	46.5
600.915	45.95
601.108	45.61
601.301	45.92
601.494	46.72
601.687	45.96
601.88	46.32
602.073	45.6
602.266	45.89
602.459	45.93
602.652	45.92
602.845	45.59
603.038	45.89
603.231	46.34
603.424	46.1
603.617	45.34
603.809	45.93
604.002	45.51
604.195	46.08
604.388	45.8
604.581	45.59
604.774	45.64
604.966	46.02
605.159	45.76
605.352	45.66
605.545	45.81
605.737	45.49
605.93	45
606.123	45.03
606.316	45.22
606.508	46.24
606.701	45.59
606.894	46.19
607.086	46.06
607.279	45.77
607.471	46.38
607.664	46.54
607.857	47.07
608.049	46.97
608.242	46.53
608.434	46.67
608.627	46.24
608.819	46.68
609.012	46.28
609.204	46.33
609.397	46.35
609.589	46.12
609.782	45.72
609.974	45.66
610.166	46.03
610.359	45.92
610.551	46.26
610.743	46.53
610.936	46.8
611.128	46.7
611.32	47.19
611.513	47.48
611.705	47.03
611.897	47.38
612.09	47.93
612.282	48
612.474	48.37
612.666	47.16
612.858	46.86
613.051	46.82
613.243	46.95
613.435	46.63
613.627	46.72
613.819	46.77
614.011	46.76
614.203	46.08
614.395	45.9
614.588	46.48
614.78	46.38
614.972	47.18
615.164	47.61
615.356	47.75
615.548	47.88
615.74	48.02
615.932	48.52
616.124	48.49
616.315	49.01
616.507	49.41
616.699	49.23
616.891	50.14
617.083	48.77
617.275	48.62
617.467	48.07
617.659	47.29
617.85	46.44
618.042	45.74
618.234	45.76
618.426	45.83
618.618	46.06
618.809	46.48
619.001	46.08
619.193	46.08
619.384	46.44
619.576	47.15
619.768	48.56
619.959	49.48
620.151	49.41
620.343	49.44
620.534	49.33
620.726	48.04
620.917	47.95
621.109	48.28
621.301	49.23
621.492	48.73
621.684	48.59
621.875	47.95
622.067	48.53
622.258	49.6
622.45	49.71
622.641	49.97
622.832	50.92
623.024	50.95
623.215	50.3
623.407	49.82
623.598	49.59
623.789	49.74
623.981	48.56
624.172	48.13
624.363	48.67
624.555	48.48
624.746	47.81
624.937	47.5
625.129	47.48
625.32	47.89
625.511	47.87
625.702	49.06
625.893	48.56
626.085	49.45
626.276	49.45
626.467	48.97
626.658	49.01
626.849	49.76
627.04	50.63
627.231	50.14
627.422	50.19
627.614	50.71
627.805	49.69
627.996	50.48
628.187	50.41
628.378	51.12
628.569	50.95
628.76	51.23
628.951	51.12
629.142	50.74
629.332	51.3
629.523	51.8
629.714	50.95
629.905	51.04
630.096	50.55
630.287	50.71
630.478	50.06
630.669	49.46
630.859	49.31
631.05	49.28
631.241	49.09
631.432	48.85
631.623	48.67
631.813	48.89
632.004	49.13
632.195	48.97
632.385	49.84
632.576	49.11
632.767	50.88
632.957	50.86
633.148	50.91
633.339	51.2
633.529	50.91
633.72	50.81
633.91	51.21
634.101	51.73
634.292	52.63
634.482	51.8
634.673	52.48
634.863	51.34
635.054	51.9
635.244	51.46
635.435	51.24
635.625	51.2
635.815	51.96
636.006	51.77
636.196	51.83
636.387	51.66
636.577	52.6
636.767	53
636.958	53.69
637.148	54.04
637.338	54.26
637.529	54.25
637.719	55.47
637.909	54.14
638.099	55.06
638.29	55.12
638.48	54.08
638.67	52.5
638.86	53.27
639.05	53.46
639.241	53.02
639.431	53.19
639.621	53.74
639.811	52.81
640.001	53.9
640.191	53.72
640.381	52.25
640.571	53.92
640.761	54.06
640.951	52.67
641.141	52.4
641.331	52.83
641.521	52.43
641.711	52.38
641.901	52.7
642.091	51.79
642.281	51.31
642.471	51.48
642.661	50.59
642.851	51.92
643.041	52.77
643.231	52.31
643.42	52.21
643.61	51.96
643.8	51.55
643.99	51.59
644.18	52.02
644.369	51.77
644.559	52.67
644.749	52.3
644.939	51.07
645.128	50.62
645.318	49.91
645.508	50.17
645.697	50.58
645.887	50.46
646.076	51.27
646.266	51.06
646.456	52.83
646.645	52.11
646.835	53.24
647.024	53.81
647.214	53.54
647.403	53.22
647.593	52.38
647.782	52.65
647.972	52.72
648.161	50.57
648.351	50.93
648.54	50.1
648.73	50.34
648.919	49.88
649.108	51.48
649.298	51.67
649.487	53.33
649.677	52.92
649.866	54.07
650.055	55
650.244	56.82
650.434	56.67
650.623	56.8
650.812	57.39
651.002	58.06
651.191	56.57
651.38	56.96
651.569	56.03
651.758	56.11
651.947	54.35
652.137	53.64
652.326	53.97
652.515	53.78
652.704	53.48
652.893	52.87
653.082	52.03
653.271	51.21
653.46	50.7
653.649	52.03
653.838	52.52
654.027	53.75
654.216	53.76
654.405	52.91
654.594	53.22
654.783	53.67
654.972	53.43
655.161	53.63
655.35	54.58
655.539	55.64
655.728	53.64
655.916	53.94
656.105	53.85
656.294	53.79
656.483	53.95
656.672	54.68
656.86	54.2
657.049	53.94
657.238	52.67
657.427	52.9
657.615	51.67
657.804	52.63
657.993	51.93
658.181	51.55
658.37	51.43
658.559	51.52
658.747	50.82
658.936	50.14
659.125	51.76
659.313	52.17
659.502	52.13
659.69	53.28
659.879	54.3
660.067	54.42
660.256	55.43
660.444	55.83
660.633	56.46
660.821	57.27
661.01	57.97
661.198	57
661.387	58.26
661.575	58.83
661.763	58.93
661.952	57.84
662.14	58.23
662.328	57.44
662.517	57.48
662.705	57.48
662.893	57.43
663.082	56.57
663.27	56.71
663.458	55.61
663.646	55.34
663.834	53.87
664.023	53.04
664.211	52.49
664.399	52.63
664.587	53.45
664.775	53.53
664.963	53.97
665.152	54.94
665.34	56.48
665.528	57.2
665.716	55.98
665.904	57.44
666.092	58.41
666.28	59.71
666.468	59.35
666.656	58.42
666.844	58.14
667.032	56.83
667.22	56.96
667.408	54.9
667.596	55.14
667.784	55.79
667.971	53.82
668.159	53.88
668.347	53.05
668.535	53.16
668.723	53.51
668.911	53.21
669.098	52.97
669.286	52.3
669.474	53.55
669.662	52.51
669.849	52.26
670.037	52.52
670.225	51.45
670.413	51.9
670.6	50.66
670.788	50.73
670.976	50.03
671.163	49.67
671.351	49.44
671.538	49.23
671.726	50.86
671.913	51.33
672.101	52.34
672.289	53.73
672.476	53.54
672.664	55.17
672.851	55.23
673.039	54.45
673.226	55.12
673.413	57.47
673.601	57.33
673.788	56.87
673.976	57.68
674.163	56.65
674.35	55.37
674.538	56.11
674.725	55.62
674.912	54.64
675.1	55.74
675.287	55.91
675.474	54.24
675.662	54.67
675.849	54.9
676.036	54.75
676.223	54.86
676.411	55.77
676.598	55.93
676.785	55.06
676.972	56.03
677.159	56.91
677.346	57.2
677.533	57.04
677.721	55.85
677.908	55.2
678.095	55.34
678.282	56.11
678.469	54.81
678.656	54.15
678.843	56.12
679.03	56.99
679.217	56.9
679.404	57.29
679.591	57.06
679.778	58.06
679.964	58.18
680.151	57.49
680.338	57.84
680.525	58.97
680.712	58
680.899	57.38
681.086	55.48
681.272	54.44
681.459	52.6
681.646	53.13
681.833	51.94
682.02	51.49
682.206	51.5
682.393	51.22
682.58	51.11
682.766	53.41
682.953	52.54
683.14	53.67
683.326	55.16
683.513	56.42
683.7	57.14
683.886	58.35
684.073	58.99
684.259	59.28
684.446	59.85
684.632	59.58
684.819	58.6
685.005	58.45
685.192	58.38
685.378	58.16
685.565	58.55
685.751	57.66
685.938	57.25
686.124	58.41
686.31	58.58
686.497	57.37
686.683	56.58
686.87	56.49
687.056	57.98
687.242	58.25
687.429	58.09
687.615	56.87
687.801	57.28
687.987	56.77
688.174	56.43
688.36	55.18
688.546	55.75
688.732	56.38
688.918	56.44
689.105	55.65
689.291	54.73
689.477	53.85
689.663	55.13
689.849	54.49
690.035	55.26
690.221	54.67
690.407	56.35
690.593	56.08
690.779	56.99
690.965	56.2
691.151	56.51
691.337	56.26
691.523	55.73
691.709	56.22
691.895	57.04
692.081	58.69
692.267	57.52
692.453	56.05
692.639	56.93
692.825	57.52
693.011	57.9
693.196	56.19
693.382	56.57
693.568	57.57
693.754	56.52
693.94	56.54
694.125	54.94
694.311	55.02
694.497	55.56
694.682	54.51
694.868	53.15
695.054	53.92
695.239	56.13
695.425	55.68
695.611	55.96
695.796	56.3
695.982	57.82
696.168	57.35
696.353	57.52
696.539	56.96
696.724	57.46
696.91	57.93
697.095	57.49
697.281	56.33
697.466	56.26
697.652	55.43
697.837	55.58
698.023	54.49
698.208	53.52
698.393	53.76
698.579	55.01
698.764	53.88
698.949	54.8
699.135	55.03
699.32	55.53
699.505	56.7
699.691	56.62
699.876	56.4
700.061	55.81
700.246	57.42
700.432	57.71
700.617	57.12
700.802	58.71
700.987	57.69
701.172	56.18
701.358	56.59
701.543	55.17
701.728	56.72
701.913	57.37
702.098	56.19
702.283	55.22
702.468	54.44
702.653	54.94
702.838	53.88
703.023	53.72
703.208	55.98
703.393	56.84
703.578	57.53
703.763	57.9
703.948	57.48
704.133	59.22
704.318	59.09
704.503	60.19
704.688	60.93
704.873	63.23
705.057	63.92
705.242	62.1
705.427	62.03
705.612	61.18
705.797	61.02
705.981	62.1
706.166	64.59
706.351	65.01
706.536	66.1
706.72	64.83
706.905	62.08
707.09	61.1
707.274	62.84
707.459	61.34
707.644	62.29
707.828	61.75
708.013	60.13
708.197	58.92
708.382	60.38
708.567	58.51
708.751	58.21
708.936	59.6
709.12	59.52
709.305	59.2
709.489	59.16
709.673	58.92
709.858	59.49
710.042	60.57
710.227	60.42
710.411	60.2
710.596	60.99
710.78	61.43
710.964	61.22
711.149	62.89
711.333	62.72
711.517	62.83
711.702	63.25
711.886	61.45
712.07	59.96
712.254	59.12
712.438	58.28
712.623	56.64
712.807	57.52
712.991	57.94
713.175	57.01
713.359	57.04
713.544	57.17
713.728	55.43
713.912	58.99
714.096	60
714.28	60.84
714.464	60.38
714.648	61.55
714.832	59.58
715.016	60.46
715.2	59.79
715.384	59.74
715.568	59.99
715.752	62.62
715.936	61.02
716.12	60.17
716.304	59.1
716.488	58.95
716.671	58.04
716.855	57.36
717.039	56.58
717.223	56.8
717.407	56.65
717.59	58.23
717.774	57.68
717.958	55.97
718.142	56.98
718.325	57.12
718.509	58.7
718.693	58.48
718.877	61.01
719.06	58.91
719.244	60.35
719.428	60.57
719.611	57.61
719.795	57.61
719.978	57.3
720.162	58.02
720.345	58.13
720.529	57.87
720.713	59.65
720.896	58.49
721.08	60.67
721.263	59.12
721.446	59.11
721.63	60.99
721.813	60.82
721.997	63.88
722.18	63.37
722.364	64.58
722.547	63.41
722.73	64.34
722.914	62.63
723.097	63.58
723.28	63.7
723.464	64.43
723.647	64
723.83	62.64
724.013	60.9
724.197	62.33
724.38	62.9
724.563	63.69
724.746	61.85
724.929	62.19
725.112	59.53
725.296	58.75
725.479	58.59
725.662	58.26
725.845	59.32
726.028	58.29
726.211	56.09
726.394	52.95
726.577	53.94
726.76	53.24
726.943	53.65
727.126	55.5
727.309	57.41
727.492	56.21
727.675	55.36
727.858	52.64
728.041	52.42
728.224	52.39
728.407	54.37
728.589	52.4
728.772	54.48
728.955	55.74
729.138	55.3
729.321	52.85
729.503	52.8
729.686	52.41
729.869	55.52
730.052	55.78
730.234	55.31
730.417	54.35
730.6	56.14
730.782	53.4
730.965	54.36
731.148	53.17
731.33	53.83
731.513	53.75
731.695	57.44
731.878	55.17
732.061	54.69
732.243	55.37
732.426	54.6
732.608	52.96
732.791	54.85
732.973	53.67
733.156	54.4
733.338	55.42
733.52	55.67
733.703	52.37
733.885	55.31
734.068	58.84
734.25	59.94
734.432	62.25
734.615	62.46
734.797	63.67
734.979	65.19
735.162	67.63
735.344	66.68
735.526	67.71
735.708	68.08
735.891	66.2
736.073	65.98
736.255	65.42
736.437	65.37
736.619	67.19
736.802	64.63
736.984	63.68
737.166	60.1
737.348	62.09
737.53	62.85
737.712	62.12
737.894	62.27
738.076	59.32
738.258	58.72
738.44	56.42
738.622	56.68
738.804	57.56
738.986	56.33
739.168	57.7
739.35	53.76
739.532	49.8
739.714	51.15
739.896	52.59
740.078	54.55
740.259	55.51
740.441	57.37
740.623	57.28
740.805	59.35
740.987	58.7
741.168	58.27
741.35	61.86
741.532	64.83
741.714	64.46
741.895	65.02
742.077	66.78
742.259	65.31
742.44	61.94
742.622	61.85
742.804	60.33
742.985	61.25
743.167	61.83
743.348	62.69
743.53	62.09
743.711	60.13
743.893	61.24
744.075	55.62
744.256	61.99
744.438	64.55
744.619	61.33
744.8	60.49
744.982	64.24
745.163	65.28
745.345	62.35
745.526	63.44
745.707	67.46
745.889	66.74
746.07	69.39
746.252	64.92
746.433	62.87
746.614	64.04
746.795	62.51
746.977	57.2
747.158	54.56
747.339	55.16
747.52	54.91
747.702	54.41
747.883	54.24
748.064	57.01
748.245	55.99
748.426	59.44
748.607	57.78
748.788	60.39
748.97	61.35
749.151	64.65
749.332	67.47
749.513	68.38
749.694	67.93
749.875	63.64
750.056	61.55
750.237	62.12
750.418	63.45
750.599	65.51
750.78	64.16
750.96	63.41
751.141	61.98
751.322	59.45
751.503	57.94
751.684	56.89
751.865	61.16
752.046	57.89
752.226	57.4
752.407	52.93
752.588	53.43
752.769	56.77
752.949	59.06
753.13	58.5
753.311	58.07
753.492	57.84
753.672	57.2
753.853	55.92
754.034	59.25
754.214	60.49
754.395	63.71
754.575	65.22
754.756	62.16
754.937	60.96
755.117	61.73
755.298	62.73
755.478	60.94
755.659	63.08
755.839	64.36
756.02	61.9
756.2	61.02
756.381	59.21
756.561	57.08
756.741	57.81
756.922	60.56
757.102	62.18
757.283	59.55
757.463	60.64
757.643	60.31
757.823	56.62
758.004	59.4
758.184	59.63
758.364	60.5
758.545	63.13
758.725	62.92
758.905	61.92
759.085	61.13
759.265	61.62
759.446	62.87
759.626	61.28
759.806	60.94
759.986	60.57
760.166	59.99
760.346	61.98
760.526	59.05
760.706	58.87
760.886	58.33
761.066	55.21
761.246	55.93
761.426	56.79
761.606	59.28
761.786	61.76
761.966	58.16
762.146	57.46
762.326	54.84
762.506	55.39
762.686	54.13
762.866	52.36
763.046	54.08
763.225	54.73
763.405	54.26
763.585	52.71
763.765	53.19
763.945	54.43
764.124	53.5
764.304	53.66
764.484	53.57
764.664	52.76
764.843	55.07
765.023	54.66
765.203	53.23
765.382	52.95
765.562	55.1
765.741	54.97
765.921	56.36
766.101	56.24
766.28	60.21
766.46	59.11
766.639	64.15
766.819	62.17
766.998	62.3
767.178	64.36
767.357	62.9
767.537	62.83
767.716	62.22
767.896	62.76
768.075	63.7
768.254	62.16
768.434	64.41
768.613	59.53
768.792	59.07
768.972	59.93
769.151	61.78
769.33	65.57
769.51	64.55
769.689	66.71
769.868	66.92
770.047	68.43
770.226	66.25
770.406	66.94
770.585	68.5
770.764	69.32
770.943	70.23
771.122	65.9
771.301	63.42
771.48	63.12
771.66	58.91
771.839	59.53
772.018	59.49
772.197	60.43
772.376	61.6
772.555	63.91
772.734	66.78
772.913	64.08
773.092	64.53
773.271	65.71
773.449	66.19
773.628	67.32
773.807	65.61
773.986	67.24
774.165	68.41
774.344	66.19
774.523	66.71
774.701	65.18
774.88	65.25
775.059	70.81
775.238	67.41
775.417	67.09
775.595	71.49
775.774	74.46
775.953	72.86
776.131	69.43
776.31	68.3
776.489	65.24
776.667	63.48
776.846	62.25
777.025	61.08
777.203	65.06
777.382	66.52
777.56	59.54
777.739	58.41
777.917	58.64
778.096	61.17
778.274	60.37
778.453	61.88
778.631	65.95
778.81	65.04
778.988	65.01
779.166	64.82
779.345	61.25
779.523	65.64
779.702	63.25
779.88	64.71
780.058	62.04
780.237	60.8
780.415	61.5
780.593	64.36
780.771	66.91
780.95	64.21
781.128	68.68
781.306	67.99
781.484	67.52
781.662	69.41
781.841	65.35
782.019	66.09
782.197	67.92
782.375	63.33
782.553	54.79
782.731	55.19
782.909	55.36
783.087	49.32
783.265	51.57
783.443	48.93
783.621	49.62
783.799	53.37
783.977	57.12
784.155	60.52
784.333	65.93
784.511	74.44
784.689	77.78
784.867	78.04
785.045	80.36
785.223	82.48
785.4	82.56
785.578	84.52
785.756	83.46
785.934	83.45
786.112	81.84
786.289	78.15
786.467	71.75
786.645	69.78
786.823	72.88
787	72.75
787.178	75.15
787.356	74.65
787.533	70.14
787.711	66.58
787.889	61.85
788.066	58.95
788.244	64.2
788.421	69.02
788.599	65.29
788.776	63.03
788.954	61.64
789.131	58.92
789.309	59.16
789.486	58.26
789.664	62.11
789.841	70.13
790.019	70.47
790.196	65.02
790.373	61.89
790.551	65.31
790.728	66.16
790.906	68.43
791.083	70.74
791.26	73.9
791.437	72.89
791.615	71.91
791.792	67.96
791.969	71.93
792.146	74.86
792.324	77.95
792.501	73.65
792.678	71.51
792.855	66.98
793.032	64.86
793.209	60.49
793.387	63.29
793.564	66.74
793.741	68.59
793.918	65.68
794.095	63.1
794.272	62.38
794.449	64.72
794.626	65.81
794.803	70.3
794.98	69.43
795.157	71.01
795.334	73.84
795.511	69.35
795.688	62.9
795.864	62.75
796.041	64.27
796.218	57.27
796.395	61.53
796.572	59.65
796.749	58.24
796.925	62.78
797.102	62.05
797.279	56.91
797.456	58.77
797.632	65.34
797.809	68.83
797.986	65.57
798.162	66.7
798.339	60.83
798.516	67.12
798.692	63.67
798.869	69.39
799.046	69.88
799.222	73.74
799.399	70.19
799.575	66.65
799.752	62.5
799.928	62
800.105	66.08
800.281	65.4
800.458	55.97
800.634	61.37
800.811	56
800.987	60.22
801.163	58.2
801.34	56.72
801.516	59.58
801.692	60.44
801.869	64.21
802.045	62.78
802.221	70.73
802.398	75.94
802.574	66.61
802.75	63.06
802.926	56.07
803.103	55.06
803.279	56.91
803.455	55.55
803.631	59.12
803.807	60.53
803.983	55.69
804.16	48.3
804.336	45.06
804.512	50.73
804.688	56.18
804.864	53.77
805.04	53.45
805.216	55.1
805.392	53.81
805.568	48.66
805.744	49.61
805.92	56.57
806.096	56.24
806.272	51.23
806.448	51.32
806.623	45.35
806.799	48.92
806.975	51.42
807.151	51.9
807.327	53.42
807.503	54.77
807.678	50.04
807.854	47.23
808.03	46.67
808.206	49.32
808.381	47.65
808.557	49.8
808.733	56
808.908	56.82
809.084	57.82
809.26	56.49
809.435	57.1
809.611	54.58
809.787	55.4
809.962	59.46
810.138	64.6
810.313	64.54
810.489	59.2
810.664	54.83
810.84	52.3
811.015	49.35
811.191	51.48
811.366	53.57
811.542	62.02
811.717	72.32
811.892	75.14
812.068	78.91
812.243	85.69
812.419	82.34
812.594	78.71
812.769	77.28
812.944	73.41
813.12	74.22
813.295	72.41
813.47	71.62
813.645	57.24
813.821	50.84
813.996	43.35
814.171	44.34
814.346	51.71
814.521	50.69
814.697	49.56
814.872	53.29
815.047	54.53
815.222	59.43
815.397	53.01
815.572	60.31
815.747	61.44
815.922	67.55
816.097	62.15
816.272	61.02
816.447	63.58
816.622	64.77
816.797	65.37
816.972	59.85
817.147	56.38
817.322	59
817.496	59.23
817.671	49.56
817.846	44.46
818.021	46.58
818.196	51.97
818.371	50.2
818.545	47.08
818.72	47.95
818.895	52.21
819.069	54.47
819.244	51.57
819.419	48.6
819.594	50.78
819.768	53.23
819.943	51.16
820.117	47.69
820.292	47.32
820.467	49.73
820.641	48.19
820.816	48.23
820.99	46.64
821.165	48.07
821.339	46.94
821.514	47.4
821.688	46.44
821.863	47.25
822.037	47.5
822.212	47.53
822.386	46.44
822.56	45.9
822.735	45.28
822.909	46.28
823.084	45.38
823.258	45.68
823.432	46.51
823.606	46.25
823.781	45.08
823.955	44.01
824.129	43.03
824.303	43.87
824.478	44.6
824.652	42.89
824.826	43.53
825	44.59
825.174	45.45
825.348	42.17
825.523	44.17
825.697	44.09
825.871	46.32
826.045	47.48
826.219	48.31
826.393	48.59
826.567	51.67
826.741	49.39
826.915	50.64
827.089	50.7
827.263	54.62
827.437	54.76
827.611	57.56
827.784	56.17
827.958	57.52
828.132	55.04
828.306	56.82
828.48	56.6
828.654	58.69
828.827	57.11
829.001	60.11
829.175	58.7
829.349	58.66
829.522	58.53
829.696	62.2
829.87	62.82
830.044	67.54
830.217	66.65
830.391	63.44
830.565	61.83
830.738	61.7
830.912	58.64
831.085	55.15
831.259	51.02
831.432	50.62
831.606	48.35
831.779	46.06
831.953	41.04
832.126	45.59
832.3	45.86
832.473	41.79
832.647	38.94
832.82	40.93
832.994	41.04
833.167	42.2
833.34	39.83
833.514	37.43
833.687	38.95
833.86	42.94
834.034	39.71
834.207	41.66
834.38	44.96
834.553	47.51
834.727	46.28
834.9	49.32
835.073	51.09
835.246	53.85
835.419	58.8
835.593	60.29
835.766	58.98
835.939	54.98
836.112	55.21
836.285	54.58
836.458	54.37
836.631	50.72
836.804	49.6
836.977	47.65
837.15	46.96
837.323	48.61
837.496	50
837.669	48.53
837.842	53.04
838.015	54.26
838.188	61.81
838.361	65.91
838.533	79.02
838.706	80.37
838.879	73.69
839.052	66.73
839.225	67.49
839.398	63.07
839.57	65.66
839.743	76.25
839.916	75.25
840.088	67.85
840.261	65.26
840.434	61.91
840.607	59.19
840.779	69.2
840.952	66.79
841.124	59.58
841.297	58.66
841.47	60.16
841.642	55.43
841.815	52.23
841.987	55.18
842.16	50.9
842.332	55.7
842.505	65.73
842.677	42.97
842.85	51.82
843.022	53.76
843.194	50.17
843.367	46.63
843.539	44.85
843.712	55.66
843.884	45.63
844.056	53.17
844.229	55.31
844.401	41.47
844.573	58.85
844.745	66.87
844.918	76.19
845.09	89.8
845.262	79.54
845.434	85.28
845.606	68.4
845.779	66.55
845.951	61.12
846.123	58.44
846.295	62.57
846.467	66.63
846.639	53.51
846.811	44.12
846.983	42.16
847.155	50.23
847.327	52.95
847.499	63.74
847.671	64.47
847.843	67.67
848.015	64.07
848.187	75.19
848.359	55.47
848.531	65.37
848.703	80.24
848.875	55.01
849.047	61.75
849.218	57.57
849.39	49.52
849.562	53.02
849.734	44.13
849.905	39.16
850.077	25.7
850.249	37.74
850.421	19.12
850.592	4.81
850.764	33.9
850.936	17.31
851.107	46.17
851.279	68.15
851.451	95.26
851.622	120.96
851.794	113.84
851.965	109.76
852.137	77.69
852.308	91.19
852.48	68.59
852.651	39.2
852.823	44.15
852.994	10.24
853.166	-4.72
853.337	-17.96
853.509	-21.06
853.68	-46.76
853.851	-15.64
854.023	-9.33
854.194	-9.07
854.365	-8.2
854.537	38.91
854.708	34.24
854.879	65.5
855.05	53.1
855.222	54.41
855.393	48.95
855.564	60.26
855.735	54.72
855.906	64.73
856.078	68.07
856.249	70.18
856.42	64.75
856.591	68.92
856.762	57.39
856.933	73.14
857.104	68.26
857.275	81.3
857.446	89.94
857.617	95.86
857.788	85.32
857.959	72.85
858.13	78.13
858.301	74.81
858.472	80.99
858.643	96.19
858.814	90.11
858.985	81.35
859.155	65.36
859.326	22.56
859.497	23.53
859.668	11.79
859.839	17.46
860.009	-8.43
860.18	-15.4
860.351	-9.78
860.522	-12.38
860.692	2.84
860.863	-23.73
861.034	-1.96
861.204	50.01
861.375	37.51
861.546	48.47
861.716	43.64
861.887	55.68
862.057	80.65
862.228	76.59
862.398	57.97
862.569	72.63
862.739	86.86
862.91	89.66
863.08	73.76
863.251	75.46
863.421	86.17
863.592	92.76
863.762	83.25
863.932	82.61
864.103	95.64
864.273	89.57
864.443	86.11
864.614	75.01
864.784	60.56
864.954	75.37
865.125	76
865.295	68.5
865.465	27.85
865.635	39.11
865.805	43.9
865.976	46.44
866.146	57.6
866.316	45.29
866.486	45.52
866.656	49.62
866.826	47.93
866.996	39.78
867.166	29.09
867.336	23.64
867.506	27.19
867.676	6.15
867.846	6
868.016	-21.86
868.186	1.91
868.356	-11.98
868.526	-61.95
868.696	-115.66
868.866	-286.61
869.036	-77.56
869.206	-30.72
869.376	-55.29
869.545	-17.18
869.715	-22.99
869.885	-26.61
870.055	-25.3
870.224	-23.51
870.394	-5.74
870.564	1
870.734	18.43
870.903	18.03
871.073	31.08
871.243	26.68
871.412	26.85
871.582	22.56
871.751	46.4
871.921	59.01
872.091	60.78
872.26	54.7
872.43	48.14
872.599	56.95
872.769	47.21
872.938	41.89
873.108	64.75
873.277	56.25
873.446	56.32
873.616	42.89
873.785	42.83
873.955	45.06
874.124	50.53
874.293	61.74
874.463	45.59
874.632	42.64
874.801	44.25
874.971	14.5
875.14	10.05
875.309	0.06
875.478	-1.98
875.647	-16.99
875.817	-13.41
875.986	-14.26
876.155	-11.77
876.324	8.63
876.493	19.06
876.662	26.48
876.831	32.66
877	52.44
877.17	56.77
877.339	51.59
877.508	52.33
877.677	55.78
877.846	56.56
878.015	38.07
878.184	21.94
878.352	9.29
878.521	-10.33
878.69	-8.3
878.859	-4.37
879.028	6.48
879.197	4.64
879.366	5.4
879.534	1.98
879.703	16.77
879.872	25.82
880.041	33.56
880.21	35.99
880.378	38.28
880.547	42.22
880.716	39.24
880.884	36.19
881.053	39.92
881.222	35.1
881.39	33.61
881.559	31.67
881.727	31.41
881.896	31.68
882.065	30.04
882.233	27.33
882.402	25.57
882.57	24.95
882.739	26.78
882.907	25.27
883.076	28.07
883.244	28.64
883.412	27.74
883.581	28.89
883.749	28.57
883.918	30.64
884.086	35.14
884.254	35.65
884.423	40.82
884.591	39.55
884.759	39.59
884.927	37.06
885.096	36.99
885.264	35.63
885.432	31.9
885.6	33.53
885.769	37.49
885.937	42.46
886.105	36.8
886.273	21.54
886.441	21.58
886.609	19.1
886.777	23.74
886.945	33.13
887.113	63.93
887.281	110.53
887.449	67.95
887.617	62.46
887.785	56.75
887.953	56.24
888.121	68.83
888.289	84.28
888.457	95.76
888.625	81.85
888.793	66.36
888.961	27.63
889.129	37.57
889.296	56.5
889.464	52.18
889.632	49.13
889.8	64.01
889.967	65.4
890.135	62.43
