Data from JASIL_3001_Reflection_01.txt Node
Date: Mon Nov 09 10:03:07 EST 2015
User: Geneva
Spectrometer: USB4E03002
Autoset integration time: false
Trigger mode: 4
Integration Time (sec): 1.000000E-1
Scans to average: 10
Electric dark correction enabled: false
Nonlinearity correction enabled: false
Boxcar width: 5
Stray light correction enabled: false
XAxis mode: Wavelengths
Stop averaging: false
Number of Pixels in Spectrum: 3648
>>>>>Begin Spectral Data<<<<<
177.575	82.34
177.794	73.68
178.014	68.04
178.233	60.36
178.452	56.61
178.672	48.12
178.891	33.46
179.11	19.26
179.33	-14.66
179.549	-27.75
179.768	-67.82
179.987	-20.66
180.207	10.57
180.426	-4.9
180.645	5.31
180.864	-0.35
181.084	22.88
181.303	28.97
181.522	32.33
181.741	57.25
181.96	51.65
182.179	75.45
182.398	46.25
182.618	77.61
182.837	103.97
183.056	95.34
183.275	86.14
183.494	77.97
183.713	87.73
183.932	92.24
184.151	79.88
184.37	65.4
184.589	32.48
184.808	38.85
185.027	7.11
185.246	-20.07
185.465	-19.81
185.684	11.64
185.903	-6.21
186.122	-12.89
186.341	-40.25
186.56	-48.49
186.779	-34.2
186.998	-1.36
187.216	1.94
187.435	-6.36
187.654	17.91
187.873	13.39
188.092	4.95
188.311	38.01
188.53	50.14
188.748	43.91
188.967	3.19
189.186	49.05
189.405	72.33
189.623	77.96
189.842	130
190.061	138.1
190.28	154.55
190.498	103.59
190.717	112.41
190.936	90.18
191.154	227.05
191.373	148.53
191.592	138.87
191.81	105.78
192.029	244.14
192.248	140.54
192.466	119.08
192.685	139.71
192.904	164.69
193.122	163.51
193.341	170.46
193.559	165.22
193.778	153.64
193.996	66.16
194.215	63.41
194.433	40
194.652	53.61
194.87	7.22
195.089	-35.74
195.307	-101.98
195.526	-27.32
195.744	-22.08
195.963	-32.65
196.181	-40.09
196.399	-58.44
196.618	-47.35
196.836	-83.77
197.055	-77.39
197.273	-69.36
197.491	-38.14
197.71	4.14
197.928	-24.94
198.146	12.21
198.365	12.23
198.583	11.43
198.801	18.62
199.019	-7.59
199.238	-7.41
199.456	-40.31
199.674	-53.93
199.892	-29.21
200.111	-102.46
200.329	-71.99
200.547	-28.67
200.765	-30.07
200.983	-35.82
201.202	-98.26
201.42	-90.76
201.638	-24.38
201.856	-60.56
202.074	21.62
202.292	46.34
202.51	10.84
202.728	-22.22
202.946	-150
203.165	-59.77
203.383	-82.8
203.601	-160.14
203.819	-266.28
204.037	-197.13
204.255	-161.86
204.473	-93.71
204.691	-132.78
204.909	-213.99
205.127	-206.41
205.345	-191.7
205.562	-471.91
205.78	-168.75
205.998	-27.74
206.216	-58.12
206.434	-62.29
206.652	-25.93
206.87	-44.73
207.088	-54.91
207.306	-47.6
207.523	-51.75
207.741	-29.45
207.959	-37.87
208.177	-123.72
208.395	-85.51
208.612	-28.49
208.83	-10.2
209.048	-11.9
209.266	-14.32
209.483	44.93
209.701	115.81
209.919	89.44
210.136	42.19
210.354	38.35
210.572	92.35
210.79	52.62
211.007	70.31
211.225	96.51
211.442	71.32
211.66	67.1
211.878	36.79
212.095	8.92
212.313	7.97
212.53	22.85
212.748	30.35
212.966	34.42
213.183	39.49
213.401	28.57
213.618	25.48
213.836	31.67
214.053	27.05
214.271	23.75
214.488	42.23
214.705	40.43
214.923	32.39
215.14	35.16
215.358	25.17
215.575	26.45
215.793	34.53
216.01	47.48
216.227	98.67
216.445	140.32
216.662	124.75
216.879	116.12
217.097	161.11
217.314	163.51
217.531	145.64
217.749	93.54
217.966	89.27
218.183	101.54
218.4	107.44
218.618	-0.33
218.835	-11.01
219.052	-185.71
219.269	-364.91
219.487	-166.08
219.704	-379.37
219.921	436.84
220.138	179.49
220.355	275.34
220.572	0
220.79	-321.21
221.007	-45.45
221.224	114.71
221.441	48.75
221.658	50.33
221.875	72.69
222.092	38.26
222.309	53.69
222.526	55.5
222.743	70.92
222.96	64.16
223.177	60.27
223.394	64.25
223.611	50.64
223.828	83.23
224.045	50.49
224.262	61
224.479	53.85
224.696	37.4
224.913	7.54
225.13	-14.31
225.347	-0.99
225.564	-33.24
225.781	-15.32
225.997	-22.17
226.214	-18.58
226.431	-12.28
226.648	-34.08
226.865	-19.15
227.082	-23.86
227.298	-32.21
227.515	-24.16
227.732	-21.95
227.949	-11.77
228.165	-7.48
228.382	2.09
228.599	6.66
228.816	5.91
229.032	3.93
229.249	2.14
229.466	5.08
229.682	10.87
229.899	13.32
230.116	6.64
230.332	4.71
230.549	3.48
230.765	-31.95
230.982	-40.46
231.199	-39.69
231.415	-6.91
231.632	-24.66
231.848	-21.86
232.065	-14.81
232.281	-28.45
232.498	-6.52
232.714	2.89
232.931	-9.24
233.147	13.59
233.364	21.32
233.58	28.84
233.797	19.37
234.013	27.47
234.23	20.74
234.446	32.42
234.662	49.03
234.879	31.42
235.095	30.97
235.312	33.72
235.528	28.13
235.744	29.48
235.961	32.61
236.177	28.4
236.393	31.02
236.61	21.98
236.826	11.14
237.042	14.97
237.258	15.01
237.475	16.7
237.691	22.55
237.907	20.08
238.123	13.57
238.339	-4.74
238.556	-6.82
238.772	-25.71
238.988	-2.72
239.204	2.5
239.42	-5.65
239.636	5.38
239.853	7.01
240.069	1.65
240.285	5.29
240.501	9.47
240.717	14.23
240.933	14.31
241.149	17.82
241.365	16.47
241.581	15.91
241.797	17.49
242.013	13.1
242.229	8.3
242.445	11.9
242.661	10.05
242.877	4.07
243.093	-2.39
243.309	-4.78
243.525	-10.69
243.741	-9.22
243.957	-2.8
244.173	-4.99
244.388	-2.72
244.604	-2.07
244.82	-0.86
245.036	2.6
245.252	8.33
245.468	11.85
245.683	12.33
245.899	12.66
246.115	10.79
246.331	5.6
246.547	4.39
246.762	7.73
246.978	8.42
247.194	6.94
247.409	3.43
247.625	-1.34
247.841	-1.41
248.057	0.03
248.272	5.9
248.488	9.7
248.703	18.92
248.919	17.18
249.135	9.85
249.35	10.73
249.566	14.92
249.782	16.05
249.997	19.82
250.213	12.55
250.428	11.25
250.644	5.47
250.859	1.36
251.075	0.03
251.29	4.07
251.506	7.37
251.721	8.19
251.937	5.99
252.152	7.24
252.368	7.04
252.583	11.7
252.798	9.21
253.014	14.86
253.229	15.19
253.445	5.43
253.66	6.64
253.875	-1.77
254.091	-3.42
254.306	-0
254.521	3.96
254.737	6.82
254.952	10.41
255.167	13.77
255.383	14.37
255.598	11.05
255.813	17.26
256.028	11.04
256.244	14.46
256.459	14.44
256.674	16.14
256.889	16.91
257.104	11.04
257.32	10.41
257.535	10.19
257.75	7.63
257.965	9.53
258.18	8.35
258.395	9.73
258.61	10.11
258.826	8.88
259.041	6.69
259.256	3.34
259.471	5.78
259.686	4.77
259.901	3.59
260.116	1.16
260.331	0.18
260.546	2
260.761	0.68
260.976	-3.08
261.191	2.75
261.406	-1.42
261.621	3.61
261.836	2.47
262.05	0.55
262.265	-1.08
262.48	3.8
262.695	4.66
262.91	4.94
263.125	6.32
263.34	6.13
263.555	1.64
263.769	7.31
263.984	11.93
264.199	8.1
264.414	9.95
264.629	14.64
264.843	13.51
265.058	13
265.273	11.35
265.488	14.38
265.702	13.19
265.917	17.73
266.132	16.14
266.346	11.09
266.561	16.85
266.776	21.2
266.99	20.02
267.205	26.96
267.42	24.77
267.634	23.39
267.849	20.04
268.063	22.62
268.278	19.79
268.492	23.45
268.707	24.64
268.922	24.31
269.136	16.2
269.351	15.1
269.565	13.01
269.78	15.1
269.994	17.88
270.209	19.75
270.423	18.61
270.637	17.68
270.852	15.23
271.066	15.55
271.281	11.35
271.495	14.47
271.709	13.4
271.924	10.38
272.138	10.73
272.353	7.77
272.567	5.87
272.781	7.53
272.996	8.16
273.21	6.5
273.424	3.48
273.638	3.08
273.853	5.1
274.067	6.77
274.281	4.93
274.495	5.09
274.71	6.67
274.924	7.57
275.138	6.14
275.352	5.45
275.566	8.12
275.781	8.77
275.995	12.15
276.209	10.43
276.423	10.76
276.637	11.42
276.851	11.72
277.065	9.9
277.279	9.31
277.493	9.48
277.707	8.36
277.921	3.79
278.135	4.47
278.349	1.21
278.563	-0.05
278.777	-2.23
278.991	-1.03
279.205	-3.01
279.419	-2.61
279.633	-1.45
279.847	-4.01
280.061	-3.12
280.275	2.78
280.489	4.82
280.703	4.26
280.917	5.09
281.131	7.25
281.344	10.38
281.558	10.49
281.772	12.83
281.986	11.12
282.2	11.91
282.414	10.61
282.627	9.94
282.841	8.01
283.055	7.97
283.269	8.06
283.482	8.99
283.696	7.53
283.91	8.04
284.123	4.77
284.337	6.42
284.551	9.81
284.764	11.26
284.978	11.35
285.192	10.74
285.405	11.11
285.619	10.71
285.833	9.12
286.046	6.17
286.26	5.01
286.473	7.58
286.687	6.64
286.9	4.89
287.114	5.63
287.327	3.47
287.541	3.57
287.754	3.03
287.968	5.71
288.181	2.57
288.395	3.45
288.608	1.86
288.822	1.71
289.035	1.61
289.248	-0.15
289.462	-2.11
289.675	-1.28
289.889	-0.98
290.102	2.26
290.315	0
290.529	1.39
290.742	3.16
290.955	5.67
291.169	5.06
291.382	4.67
291.595	2.07
291.808	4
292.022	4.85
292.235	4.96
292.448	4.11
292.661	3.71
292.875	3.95
293.088	2.07
293.301	3.06
293.514	0.1
293.727	0.75
293.94	2.86
294.153	0.76
294.367	-1.29
294.58	-1.95
294.793	-2.46
295.006	-3.35
295.219	0
295.432	0.6
295.645	1.52
295.858	3.02
296.071	2.93
296.284	3.83
296.497	3.08
296.71	3.59
296.923	4.61
297.136	3.53
297.349	6.4
297.562	4.77
297.775	4.16
297.988	4.73
298.201	8.21
298.414	9.03
298.626	9.53
298.839	10.19
299.052	11.55
299.265	12.41
299.478	14.31
299.691	14.75
299.903	14.89
300.116	13.82
300.329	11.37
300.542	9.34
300.755	9.21
300.967	9.94
301.18	11.91
301.393	11.55
301.605	11.26
301.818	9.97
302.031	9.72
302.243	8.03
302.456	9.64
302.669	10.51
302.881	9.08
303.094	10.57
303.307	9.59
303.519	8.13
303.732	7.31
303.944	8.16
304.157	9.76
304.37	8.03
304.582	8.99
304.795	11.73
305.007	12.92
305.22	14.51
305.432	10.47
305.645	12.52
305.857	13.45
306.069	13.58
306.282	12.93
306.494	13.56
306.707	13.8
306.919	14.49
307.132	12.75
307.344	8.66
307.556	9.72
307.769	12.71
307.981	9.78
308.193	8.97
308.406	10.15
308.618	10.29
308.83	10.16
309.043	11.32
309.255	12.13
309.467	11.84
309.679	13.33
309.892	13.7
310.104	13.82
310.316	14.8
310.528	17.09
310.74	18.35
310.953	18.39
311.165	17.53
311.377	17.04
311.589	16.73
311.801	17.11
312.013	17.99
312.225	16.4
312.437	16.46
312.649	15.9
312.862	14.22
313.074	10.58
313.286	12.47
313.498	12.54
313.71	12.18
313.922	12
314.134	12.35
314.346	10.19
314.558	10.37
314.77	7.45
314.982	9.93
315.193	11.91
315.405	14.44
315.617	10.34
315.829	10.36
316.041	11.21
316.253	10.97
316.465	12.33
316.677	15.58
316.888	17.11
317.1	18.93
317.312	16.25
317.524	16.17
317.736	16.63
317.947	20.41
318.159	20.34
318.371	17.83
318.583	16.47
318.794	12.93
319.006	11.4
319.218	9.13
319.43	7.12
319.641	8.62
319.853	6.41
320.064	4.61
320.276	2.93
320.488	3.6
320.699	3.76
320.911	3.95
321.123	10.41
321.334	9.7
321.546	8.78
321.757	7.71
321.969	6.57
322.18	7.46
322.392	7.65
322.603	5.44
322.815	4.93
323.026	9.32
323.238	11.86
323.449	8.33
323.661	9.75
323.872	10.27
324.083	12.15
324.295	13.55
324.506	13.41
324.718	11.66
324.929	12.29
325.14	13.12
325.352	10.85
325.563	11.49
325.774	12.33
325.986	12.24
326.197	14.65
326.408	15.23
326.62	14
326.831	14.89
327.042	15.38
327.253	16.21
327.464	16.66
327.676	19.7
327.887	19.7
328.098	18.28
328.309	16.17
328.52	15.31
328.732	15.58
328.943	13.99
329.154	9.23
329.365	6.73
329.576	6.07
329.787	6.7
329.998	5.55
330.209	3.98
330.42	5.35
330.631	5.48
330.842	4.66
331.053	4.98
331.264	6.78
331.475	9.38
331.686	13.88
331.897	15.41
332.108	13.02
332.319	10.35
332.53	10.23
332.741	12.21
332.952	14.42
333.163	15.4
333.374	16.37
333.585	15.58
333.795	16.59
334.006	18.71
334.217	20.04
334.428	20.65
334.639	22.57
334.849	21.14
335.06	20.3
335.271	19.66
335.482	19.12
335.692	18.68
335.903	20.47
336.114	20.92
336.325	20.19
336.535	15.83
336.746	16.51
336.957	15.98
337.167	18.54
337.378	18.17
337.589	18.4
337.799	18.32
338.01	17.25
338.22	16.64
338.431	14.66
338.642	10.94
338.852	12.41
339.063	10.52
339.273	13.87
339.484	13.59
339.694	11.2
339.905	9.36
340.115	11.16
340.326	10.06
340.536	10.37
340.746	13.68
340.957	16.28
341.167	17.74
341.378	17.52
341.588	13.38
341.799	11.23
342.009	14.75
342.219	14.55
342.43	12.88
342.64	14.28
342.85	15.81
343.061	13.4
343.271	13.36
343.481	14.26
343.691	15.54
343.902	17.9
344.112	17.8
344.322	15.38
344.532	17.06
344.743	17.45
344.953	18.17
345.163	18.39
345.373	20.42
345.583	19.29
345.793	18.19
346.004	18.46
346.214	17.63
346.424	19.25
346.634	20.57
346.844	21.42
347.054	21
347.264	16.82
347.474	15.91
347.684	15.89
347.894	17.47
348.104	18.73
348.314	19.29
348.524	18.87
348.734	19.41
348.944	18.03
349.154	16.37
349.364	15.01
349.574	17.84
349.784	17.6
349.994	19.04
350.204	18.59
350.413	16.58
350.623	17.32
350.833	16.68
351.043	13.98
351.253	14.11
351.463	16.12
351.672	18.11
351.882	18.84
352.092	19.88
352.302	18.49
352.511	17.37
352.721	17.99
352.931	16.39
353.141	16.94
353.35	19.42
353.56	21.24
353.77	16.44
353.979	17.23
354.189	17.74
354.399	13.82
354.608	12.14
354.818	11.17
355.027	11.94
355.237	11.54
355.447	12.26
355.656	11.26
355.866	9.92
356.075	13.69
356.285	11.59
356.494	9.7
356.704	9.83
356.913	10.28
357.123	10.42
357.332	8.16
357.542	8.06
357.751	6.09
357.96	6.6
358.17	6.07
358.379	5.05
358.589	4.85
358.798	6.77
359.007	8.58
359.217	8.6
359.426	8.98
359.635	9.86
359.845	8.77
360.054	8.56
360.263	8.96
360.472	11.17
360.682	11.13
360.891	12.61
361.1	11.58
361.309	12.08
361.519	11
361.728	11.73
361.937	11.27
362.146	13.56
362.355	14.83
362.564	14.86
362.774	13.73
362.983	14.18
363.192	13.8
363.401	14.79
363.61	14.03
363.819	15.32
364.028	14.55
364.237	16.09
364.446	15.34
364.655	16.21
364.864	16.14
365.073	14.54
365.282	14.06
365.491	15.46
365.7	15.78
365.909	15.32
366.118	15.14
366.327	16.12
366.536	15.67
366.745	15.35
366.954	14.51
367.162	15.28
367.371	15.43
367.58	16.07
367.789	14.77
367.998	14.41
368.207	16.37
368.415	17.31
368.624	15.94
368.833	17.19
369.042	17.67
369.25	17.73
369.459	16.94
369.668	17.36
369.877	18
370.085	18.95
370.294	18.53
370.503	17.39
370.711	16.66
370.92	16.71
371.129	16.93
371.337	15.55
371.546	15.48
371.754	15.91
371.963	15.23
372.171	14.16
372.38	13.61
372.589	12.36
372.797	12.1
373.006	12.98
373.214	12.95
373.423	12.46
373.631	14.29
373.84	15.61
374.048	14.43
374.256	14
374.465	14.67
374.673	13.46
374.882	14.47
375.09	13.74
375.298	12.32
375.507	14.27
375.715	13.59
375.923	12.97
376.132	11.48
376.34	12.08
376.548	13.21
376.757	12.62
376.965	13.42
377.173	14.52
377.381	13.87
377.59	13.98
377.798	13.02
378.006	12.17
378.214	11.64
378.423	11.73
378.631	10.45
378.839	11.32
379.047	11.61
379.255	11.04
379.463	10.48
379.671	11.6
379.879	11.86
380.088	10.62
380.296	10.95
380.504	12.22
380.712	11.11
380.92	11.68
381.128	11.83
381.336	11.56
381.544	12.65
381.752	12.3
381.96	12.43
382.168	12.28
382.376	12.98
382.584	12.98
382.791	11.91
382.999	13.05
383.207	13.92
383.415	11.92
383.623	12.68
383.831	12.52
384.039	11.37
384.247	11.69
384.454	11.68
384.662	11.74
384.87	11.11
385.078	11.46
385.285	11.33
385.493	10.28
385.701	11.64
385.909	11.47
386.116	11.23
386.324	13.32
386.532	13.14
386.739	13.21
386.947	12.86
387.155	14.61
387.362	14.59
387.57	14.04
387.778	14.68
387.985	14.19
388.193	13.2
388.4	12.74
388.608	12.65
388.816	11.85
389.023	12.25
389.231	12.38
389.438	12.32
389.646	12.54
389.853	13.53
390.061	12.96
390.268	12.94
390.475	12.9
390.683	12.07
390.89	11.11
391.098	11.66
391.305	11.05
391.512	13.12
391.72	12.57
391.927	11.54
392.135	11.43
392.342	11.66
392.549	11.88
392.756	11.78
392.964	12.66
393.171	12.39
393.378	12.66
393.586	13.59
393.793	11.88
394	12.36
394.207	14
394.414	13.8
394.622	14.24
394.829	13.58
395.036	15.14
395.243	16.25
395.45	17.12
395.657	16.65
395.864	14.08
396.072	14.96
396.279	14.69
396.486	12.82
396.693	14.14
396.9	13.72
397.107	15.49
397.314	14.22
397.521	13.28
397.728	12.93
397.935	12.71
398.142	14.36
398.349	12.24
398.556	12.06
398.763	13.39
398.97	12.3
399.177	12.34
399.383	12.06
399.59	12.06
399.797	12.19
400.004	13.01
400.211	13.39
400.418	14.43
400.625	17
400.831	17.06
401.038	16.26
401.245	15.02
401.452	15.58
401.658	15.79
401.865	16.85
402.072	16.79
402.279	16.17
402.485	16.11
402.692	15.24
402.899	14.43
403.105	14.99
403.312	15.47
403.519	16.59
403.725	16.37
403.932	16.17
404.138	15.77
404.345	16
404.552	16.21
404.758	15.73
404.965	16.56
405.171	16.68
405.378	16.93
405.584	17.11
405.791	17.55
405.997	18.16
406.204	17.33
406.41	17.33
406.617	17.73
406.823	16.74
407.029	17.73
407.236	17.48
407.442	18.43
407.649	18.26
407.855	17.27
408.061	16.31
408.268	16.23
408.474	16.82
408.68	17.09
408.887	16.86
409.093	18.04
409.299	18.25
409.505	18.6
409.712	16.63
409.918	15.99
410.124	17.35
410.33	17.72
410.537	18.17
410.743	18.72
410.949	17.77
411.155	18.2
411.361	18.63
411.567	18.54
411.773	18.91
411.98	19.77
412.186	19.98
412.392	19.27
412.598	19.98
412.804	19.27
413.01	18.74
413.216	19.64
413.422	19.39
413.628	18.31
413.834	18.17
414.04	17.24
414.246	18.39
414.452	18.99
414.658	18.6
414.864	18.27
415.07	18.79
415.275	18.48
415.481	18.03
415.687	17.4
415.893	17.05
416.099	16.82
416.305	17.31
416.511	17.1
416.716	16.99
416.922	17.99
417.128	17.85
417.334	17.02
417.539	17.48
417.745	17.77
417.951	17.45
418.157	17.41
418.362	17.22
418.568	16.59
418.774	16.11
418.979	15.59
419.185	15.2
419.391	14.81
419.596	14.93
419.802	14.93
420.008	15.05
420.213	11.03
420.419	11.29
420.624	11.34
420.83	11.36
421.035	11.71
421.241	11.58
421.446	10.98
421.652	11.59
421.857	11.53
422.063	11.35
422.268	10.88
422.474	14.68
422.679	14.73
422.885	14.88
423.09	15.16
423.295	14.53
423.501	14.74
423.706	14.77
423.911	13.98
424.117	14
424.322	14.48
424.527	14.79
424.733	15.09
424.938	14.85
425.143	14.57
425.349	14.7
425.554	15.78
425.759	15.37
425.964	15.74
426.169	16.53
426.375	17.06
426.58	16.35
426.785	16.54
426.99	16.92
427.195	17.31
427.4	17.9
427.605	17.22
427.811	16.63
428.016	17.07
428.221	17.9
428.426	17.48
428.631	17.46
428.836	17.4
429.041	16.85
429.246	17.2
429.451	17.23
429.656	16.9
429.861	17.1
430.066	17.04
430.271	17.66
430.476	16.93
430.681	17.02
430.886	16.89
431.09	17.03
431.295	16.94
431.5	16.75
431.705	16.63
431.91	16.48
432.115	16.39
432.32	16.71
432.524	16.13
432.729	16.24
432.934	16.32
433.139	16.49
433.343	16.6
433.548	17.22
433.753	17.11
433.958	17.76
434.162	18.51
434.367	18.5
434.572	17.28
434.776	17.77
434.981	17.21
435.186	17.69
435.39	17.83
435.595	17.62
435.799	16.77
436.004	17.32
436.209	17.19
436.413	16.49
436.618	16.77
436.822	17.65
437.027	16.78
437.231	16.95
437.436	16.86
437.64	16.22
437.845	15.88
438.049	16.74
438.253	16.07
438.458	15.26
438.662	15.62
438.867	15.65
439.071	15.43
439.275	16.19
439.48	16.36
439.684	16.03
439.888	16.23
440.093	16.57
440.297	16.61
440.501	17.2
440.706	17.56
440.91	17.49
441.114	17.72
441.318	18.15
441.523	18.44
441.727	18.89
441.931	19.14
442.135	19.23
442.339	18.94
442.543	18.7
442.748	18.6
442.952	18.3
443.156	17.67
443.36	17.65
443.564	16.93
443.768	16.15
443.972	15.47
444.176	15.79
444.38	15.58
444.584	15.58
444.788	15.42
444.992	14.95
445.196	14.84
445.4	15.98
445.604	15.93
445.808	16.14
446.012	16.38
446.216	16.58
446.42	16.67
446.624	16.69
446.828	17.21
447.032	17.1
447.235	17.28
447.439	17.31
447.643	16.97
447.847	16.64
448.051	16.46
448.254	16.58
448.458	16.77
448.662	16.55
448.866	16.62
449.069	15.86
449.273	15.93
449.477	15.88
449.681	16.73
449.884	16.16
450.088	16.3
450.292	16.56
450.495	16.3
450.699	16.59
450.902	16.09
451.106	16.11
451.31	16.75
451.513	17.23
451.717	17.26
451.92	16.87
452.124	17.15
452.327	17.31
452.531	18.08
452.734	18.02
452.938	17.65
453.141	18.56
453.345	18.67
453.548	18.67
453.752	18.44
453.955	18.7
454.158	18.38
454.362	18.73
454.565	18.84
454.769	18.35
454.972	18.4
455.175	18.15
455.379	17.18
455.582	17.17
455.785	16.67
455.988	15.23
456.192	15.08
456.395	15.81
456.598	14.72
456.801	14.22
457.005	14.66
457.208	14.64
457.411	14.92
457.614	15.33
457.817	15.16
458.021	14.99
458.224	15.89
458.427	15.57
458.63	15.17
458.833	15.51
459.036	15.49
459.239	15.56
459.442	15.51
459.645	15.61
459.848	15.35
460.051	15.71
460.254	16.46
460.457	16.26
460.66	16.69
460.863	16.86
461.066	16.68
461.269	17.36
461.472	17.29
461.675	17.78
461.878	18.46
462.081	18.66
462.284	18.27
462.486	18.02
462.689	18.1
462.892	18.04
463.095	18.57
463.298	18.92
463.5	18.68
463.703	18.55
463.906	19.08
464.109	18.77
464.311	19.36
464.514	19.14
464.717	19.49
464.92	19.72
465.122	19.39
465.325	19.07
465.528	19.46
465.73	18.87
465.933	18.14
466.135	16.96
466.338	16.79
466.541	16.83
466.743	17.22
466.946	16.72
467.148	16.73
467.351	17.55
467.553	17.24
467.756	16.75
467.958	17.78
468.161	18.12
468.363	18.4
468.566	18.4
468.768	17.74
468.971	17.81
469.173	18.06
469.375	17.54
469.578	16.83
469.78	16.78
469.983	16.72
470.185	16.2
470.387	15.94
470.59	16.16
470.792	15.49
470.994	15.73
471.196	15.84
471.399	15.24
471.601	15.93
471.803	16.19
472.005	16.06
472.208	16.12
472.41	15.9
472.612	16.41
472.814	16.05
473.016	16.42
473.218	16.11
473.421	16.17
473.623	16.37
473.825	16.47
474.027	16.11
474.229	16.88
474.431	17.08
474.633	17.14
474.835	17.46
475.037	18.12
475.239	18.11
475.441	18.43
475.643	18.45
475.845	19.02
476.047	19.17
476.249	19.32
476.451	19.16
476.653	19.21
476.855	19.54
477.057	18.95
477.258	18.93
477.46	19.33
477.662	19.16
477.864	19.3
478.066	18.56
478.268	17.76
478.469	17.86
478.671	17.9
478.873	17.67
479.075	17.44
479.276	17.37
479.478	17.4
479.68	16.71
479.882	16.68
480.083	16.01
480.285	16.23
480.487	16.53
480.688	16.52
480.89	15.81
481.091	15.7
481.293	15.32
481.495	15.14
481.696	14.93
481.898	14.79
482.099	14.58
482.301	14.61
482.502	14.48
482.704	14.44
482.905	14.44
483.107	14.6
483.308	14.68
483.51	14.95
483.711	14.95
483.913	14.96
484.114	15.02
484.315	15.13
484.517	15.11
484.718	15.05
484.92	14.86
485.121	14.67
485.322	14.44
485.524	14.36
485.725	14.01
485.926	14.06
486.127	13.8
486.329	13.98
486.53	14.19
486.731	14.22
486.932	14.37
487.134	14.46
487.335	14.59
487.536	14.9
487.737	14.95
487.938	15.11
488.139	15.26
488.341	15.72
488.542	15.83
488.743	15.93
488.944	15.95
489.145	15.87
489.346	15.91
489.547	15.85
489.748	15.91
489.949	15.9
490.15	16.12
490.351	15.94
490.552	15.6
490.753	15.58
490.954	15.26
491.155	15.36
491.356	15.67
491.557	15.74
491.758	15.9
491.959	15.83
492.159	15.87
492.36	15.89
492.561	16.17
492.762	16.6
492.963	16.81
493.164	17.44
493.364	17.64
493.565	17.57
493.766	17.84
493.967	18.26
494.167	18.28
494.368	18.37
494.569	18.4
494.769	18.23
494.97	18.82
495.171	18.41
495.371	17.99
495.572	17.99
495.773	18.18
495.973	17.98
496.174	18
496.375	17.99
496.575	17.73
496.776	17.85
496.976	18.12
497.177	17.93
497.377	18.1
497.578	18.14
497.778	18.56
497.979	18.23
498.179	18.61
498.38	18.33
498.58	18.65
498.78	19.12
498.981	18.83
499.181	18.53
499.382	18.2
499.582	18.27
499.782	18.23
499.983	18.28
500.183	18.13
500.383	17.99
500.584	17.59
500.784	17
500.984	17.3
501.184	17.42
501.385	17.91
501.585	17.7
501.785	17.17
501.985	16.99
502.185	16.86
502.386	16.83
502.586	17.25
502.786	17.56
502.986	18.01
503.186	17.67
503.386	18.04
503.586	17.83
503.786	18.29
503.987	18.83
504.187	19.23
504.387	19.22
504.587	19.3
504.787	19.35
504.987	19.13
505.187	19.29
505.387	19.07
505.587	18.11
505.786	17.77
505.986	17.69
506.186	17.48
506.386	17.18
506.586	16.94
506.786	18.06
506.986	17.68
507.186	17.55
507.386	17.56
507.585	17.59
507.785	17.73
507.985	18.1
508.185	18.27
508.384	18.39
508.584	18.71
508.784	18.66
508.984	18.34
509.183	18.48
509.383	18.97
509.583	19.04
509.782	19.13
509.982	19.34
510.182	19.25
510.381	18.89
510.581	19.13
510.781	18.94
510.98	18.65
511.18	18.45
511.379	18.53
511.579	18.4
511.778	18.03
511.978	18.26
512.177	18.74
512.377	18.7
512.576	19.39
512.776	19.56
512.975	19.61
513.175	19.85
513.374	20
513.573	19.85
513.773	19.76
513.972	19.99
514.172	20.05
514.371	19.22
514.57	19.23
514.77	18.77
514.969	18.72
515.168	18.77
515.367	19.16
515.567	18.96
515.766	18.61
515.965	18.67
516.164	18.44
516.364	18.29
516.563	18.68
516.762	18.62
516.961	18.5
517.16	18.69
517.359	18.72
517.559	18.62
517.758	18.89
517.957	19.21
518.156	19.14
518.355	19.38
518.554	19.48
518.753	19.63
518.952	19.87
519.151	20.04
519.35	19.68
519.549	19.7
519.748	19.32
519.947	18.87
520.146	18.78
520.345	19.35
520.544	19.58
520.743	19
520.942	19.09
521.141	19.44
521.339	19.53
521.538	19.43
521.737	19.46
521.936	19.9
522.135	19.79
522.333	19.76
522.532	19.53
522.731	19.44
522.93	19.62
523.129	19.55
523.327	19.18
523.526	18.85
523.725	18.91
523.923	18.92
524.122	18.62
524.321	18.74
524.519	18.61
524.718	18.6
524.917	18.5
525.115	18.62
525.314	18.57
525.512	18.66
525.711	18.57
525.909	18.52
526.108	18.73
526.306	18.42
526.505	18.23
526.703	18.25
526.902	18.15
527.1	17.88
527.299	17.8
527.497	17.57
527.696	17.59
527.894	17.6
528.092	17.71
528.291	17.48
528.489	17.76
528.688	17.99
528.886	18.13
529.084	18.32
529.283	18.62
529.481	18.91
529.679	19.1
529.877	19.2
530.076	19.22
530.274	19.29
530.472	19.7
530.67	19.9
530.869	19.92
531.067	19.83
531.265	19.53
531.463	19.35
531.661	19.1
531.859	18.91
532.057	18.74
532.255	18.84
532.454	18.8
532.652	18.82
532.85	18.71
533.048	18.49
533.246	18.46
533.444	18.62
533.642	18.79
533.84	19.22
534.038	19.4
534.236	19.52
534.434	19.53
534.632	19.23
534.83	19.26
535.027	19.36
535.225	19.56
535.423	19.36
535.621	19.09
535.819	19.01
536.017	19.03
536.215	19.48
536.412	19.22
536.61	19.45
536.808	19.73
537.006	19.77
537.203	19.61
537.401	19.78
537.599	20.4
537.797	20.9
537.994	21.14
538.192	20.85
538.39	20.54
538.587	20.76
538.785	20.6
538.983	20.61
539.18	20.35
539.378	20.08
539.575	19.98
539.773	19.74
539.97	19.57
540.168	19.44
540.366	19.3
540.563	19.43
540.761	19.35
540.958	19.43
541.155	19.13
541.353	19.07
541.55	19.72
541.748	19.73
541.945	19.78
542.143	19.6
542.34	19.87
542.537	19.88
542.735	19.71
542.932	19.81
543.129	19.73
543.327	20.11
543.524	20.46
543.721	19.94
543.919	20.14
544.116	20.08
544.313	20.71
544.51	20.74
544.708	20.98
544.905	21.39
545.102	21.64
545.299	22.21
545.496	22.69
545.693	22.67
545.891	22.93
546.088	22.97
546.285	23.12
546.482	22.72
546.679	22.78
546.876	22.99
547.073	22.93
547.27	23.11
547.467	23.1
547.664	22.96
547.861	22.33
548.058	22.04
548.255	21.65
548.452	21.51
548.649	22.48
548.846	22.3
549.043	22.88
549.24	23.24
549.437	23.61
549.633	23.55
549.83	23.12
550.027	23.85
550.224	24.34
550.421	24.5
550.618	24.92
550.814	24.18
551.011	24.28
551.208	24.11
551.405	24.04
551.601	23.55
551.798	23.19
551.995	23.23
552.191	22.98
552.388	22.79
552.585	23.21
552.781	23.1
552.978	23.91
553.175	24.38
553.371	24.61
553.568	24.69
553.764	24.62
553.961	24.99
554.157	25.28
554.354	25.61
554.55	26.22
554.747	26.41
554.943	26.46
555.14	26.16
555.336	25.78
555.533	25.12
555.729	25.05
555.926	25.35
556.122	25.51
556.318	25.6
556.515	26.19
556.711	25.67
556.907	25.63
557.104	26.02
557.3	25.76
557.496	26.03
557.693	26.34
557.889	26.58
558.085	26.79
558.281	26.79
558.478	27.32
558.674	27.32
558.87	28.07
559.066	27.64
559.262	27.7
559.459	27.72
559.655	28.07
559.851	28.14
560.047	27.73
560.243	27.03
560.439	26.56
560.635	25.88
560.831	25.55
561.027	25.02
561.223	25.49
561.419	24.92
561.615	24.65
561.811	24.34
562.007	23.89
562.203	23.95
562.399	24.74
562.595	24.52
562.791	24.71
562.987	24.63
563.183	24.55
563.379	23.96
563.575	24.35
563.771	24.8
563.966	24.82
564.162	25.14
564.358	25.64
564.554	25.81
564.75	26.18
564.945	26.01
565.141	26.29
565.337	26.49
565.533	26.59
565.728	26.02
565.924	25.76
566.12	25.38
566.315	25.41
566.511	24.93
566.707	24.56
566.902	24.44
567.098	24.82
567.293	24.84
567.489	24.36
567.684	24.42
567.88	24.93
568.076	25.05
568.271	25.14
568.467	25.24
568.662	25.31
568.858	25.32
569.053	25.55
569.248	25.56
569.444	25.02
569.639	25.39
569.835	25.5
570.03	25.94
570.225	25.64
570.421	25.57
570.616	25.5
570.812	25.06
571.007	24.84
571.202	24.53
571.397	24.4
571.593	24.71
571.788	24.67
571.983	25.12
572.178	24.58
572.374	24.64
572.569	24.57
572.764	24.19
572.959	24.15
573.154	24.05
573.35	24.21
573.545	24.05
573.74	24.06
573.935	23.86
574.13	23.74
574.325	24.08
574.52	24.32
574.715	24.24
574.91	24.27
575.105	25.21
575.3	25.63
575.495	25.64
575.69	25.64
575.885	25.94
576.08	26.31
576.275	26.02
576.47	26.02
576.665	26.25
576.86	27.44
577.055	27.77
577.25	27.36
577.444	27.3
577.639	27.49
577.834	27.47
578.029	26.86
578.224	25.97
578.418	26.28
578.613	26.86
578.808	26.31
579.003	25.31
579.197	25.39
579.392	25.16
579.587	25.35
579.781	25.49
579.976	26.14
580.171	26.19
580.365	26.58
580.56	26.84
580.755	27.08
580.949	27.57
581.144	27.69
581.338	28.08
581.533	28.28
581.727	27.75
581.922	27.5
582.116	27.33
582.311	27.12
582.505	27.56
582.7	27.6
582.894	27.38
583.089	27.72
583.283	27.53
583.478	28.3
583.672	28.08
583.866	28.51
584.061	28.83
584.255	28.72
584.449	28.89
584.644	28.71
584.838	28.73
585.032	28.75
585.226	28.53
585.421	28.85
585.615	27.91
585.809	28.28
586.003	28.14
586.198	28.48
586.392	28.53
586.586	29.29
586.78	28.68
586.974	29.18
587.168	28.45
587.363	28.15
587.557	28.07
587.751	27.51
587.945	27.39
588.139	27.34
588.333	26.88
588.527	27.21
588.721	26.77
588.915	27.43
589.109	26.35
589.303	26.14
589.497	26.38
589.691	25.89
589.885	27.31
590.079	27.33
590.273	27.03
590.466	26.93
590.66	25.58
590.854	26.02
591.048	25.95
591.242	26.4
591.436	26.88
591.629	26.92
591.823	28.19
592.017	26.48
592.211	26.41
592.404	26.56
592.598	26.5
592.792	27.18
592.986	26.19
593.179	25.46
593.373	25.16
593.567	24.62
593.76	25.02
593.954	24.9
594.147	26
594.341	26.1
594.535	26.71
594.728	27.28
594.922	27.51
595.115	27.98
595.309	28.78
595.502	28.99
595.696	29.05
595.889	28.86
596.083	28.41
596.276	27.74
596.47	27.62
596.663	26.96
596.856	26.48
597.05	26.44
597.243	26.53
597.437	26.18
597.63	25.93
597.823	26.58
598.017	25.53
598.21	25.84
598.403	26.03
598.596	26.29
598.79	26.82
598.983	26.34
599.176	26.62
599.369	26.73
599.563	26.98
599.756	27.82
599.949	27.57
600.142	27.99
600.335	27.07
600.528	27.61
600.722	27.68
600.915	27.85
601.108	28.5
601.301	28.19
601.494	27.92
601.687	28.09
601.88	27.41
602.073	26.71
602.266	26.96
602.459	27.86
602.652	27.4
602.845	26.85
603.038	26.1
603.231	26.41
603.424	26.39
603.617	26.46
603.809	26.32
604.002	26.01
604.195	27.01
604.388	26.85
604.581	26.49
604.774	27.73
604.966	28.25
605.159	28.99
605.352	28.96
605.545	29.19
605.737	29.64
605.93	29.48
606.123	29.93
606.316	29.24
606.508	29.76
606.701	29.44
606.894	28.2
607.086	27.97
607.279	27.52
607.471	27.31
607.664	27.41
607.857	26.37
608.049	26.77
608.242	26.54
608.434	26.96
608.627	26.38
608.819	26.42
609.012	26.91
609.204	27.79
609.397	27.91
609.589	28.11
609.782	27.87
609.974	27.81
610.166	27.98
610.359	28.58
610.551	28.17
610.743	29.26
610.936	29.86
611.128	29.95
611.32	29.53
611.513	30.38
611.705	31.49
611.897	30.95
612.09	31.63
612.282	32.28
612.474	32.34
612.666	32.53
612.858	31.96
613.051	32.49
613.243	32.64
613.435	32.4
613.627	32.64
613.819	31.43
614.011	32.34
614.203	32.55
614.395	31.11
614.588	31.18
614.78	31.29
614.972	31.75
615.164	30.58
615.356	29.54
615.548	29.43
615.74	29.74
615.932	28.92
616.124	29.29
616.315	29.48
616.507	30.79
616.699	29.98
616.891	29.7
617.083	29.8
617.275	30.23
617.467	30.73
617.659	30.29
617.85	29.94
618.042	30.87
618.234	30.78
618.426	31.36
618.618	30.05
618.809	30.75
619.001	31.43
619.193	30.63
619.384	30.4
619.576	30.72
619.768	31.58
619.959	30.9
620.151	30.78
620.343	31.14
620.534	31.04
620.726	31.78
620.917	31.12
621.109	31.18
621.301	31.4
621.492	32.05
621.684	31.91
621.875	31.69
622.067	32.07
622.258	31.1
622.45	31.03
622.641	30.41
622.832	30.34
623.024	31.67
623.215	30.95
623.407	31.93
623.598	31.23
623.789	30.61
623.981	31.04
624.172	31.12
624.363	32.06
624.555	32.19
624.746	32.15
624.937	32.64
625.129	31.52
625.32	31.57
625.511	30.49
625.702	30.9
625.893	31.03
626.085	30.76
626.276	30.97
626.467	30.56
626.658	30.52
626.849	30.45
627.04	29.74
627.231	29.62
627.422	29.78
627.614	30.08
627.805	30.15
627.996	30.64
628.187	30.97
628.378	30.72
628.569	31.4
628.76	30.59
628.951	30.49
629.142	31.22
629.332	31
629.523	31.85
629.714	31.65
629.905	31.72
630.096	30.95
630.287	30.39
630.478	29.9
630.669	29.16
630.859	30.32
631.05	30.59
631.241	31.35
631.432	32.33
631.623	31.29
631.813	31.84
632.004	31.84
632.195	32.66
632.385	31.79
632.576	31.93
632.767	31.72
632.957	30.12
633.148	31.13
633.339	30.27
633.529	30.15
633.72	30.57
633.91	30.2
634.101	30.6
634.292	29.53
634.482	30.53
634.673	31.24
634.863	31.85
635.054	33.15
635.244	31.64
635.435	31.56
635.625	31.31
635.815	31.35
636.006	31.16
636.196	31.41
636.387	32.15
636.577	32.6
636.767	31.99
636.958	31.6
637.148	31.96
637.338	32.78
637.529	32.97
637.719	33.15
637.909	32.79
638.099	34.05
638.29	33.2
638.48	33.78
638.67	33.24
638.86	33.26
639.05	34.42
639.241	33.81
639.431	34.17
639.621	32.82
639.811	32.47
640.001	32.88
640.191	31.25
640.381	30.87
640.571	29.82
640.761	29.85
640.951	31.09
641.141	30.31
641.331	30.46
641.521	30.29
641.711	30.39
641.901	31.57
642.091	29.68
642.281	30.38
642.471	31.11
642.661	32.93
642.851	32.25
643.041	30.56
643.231	30.14
643.42	30.45
643.61	29.74
643.8	30.17
643.99	29.79
644.18	32.2
644.369	32.04
644.559	30.8
644.749	29.79
644.939	30.72
645.128	32.05
645.318	31.83
645.508	30.88
645.697	31.38
645.887	31.07
646.076	31.44
646.266	31
646.456	30.59
646.645	31.05
646.835	31.82
647.024	32.06
647.214	31.41
647.403	31.9
647.593	32.61
647.782	32.53
647.972	33.71
648.161	32.48
648.351	33.07
648.54	33.71
648.73	33.08
648.919	32.35
649.108	31.05
649.298	31.65
649.487	31.5
649.677	31.9
649.866	32.14
650.055	31.73
650.244	32.5
650.434	32.69
650.623	32.87
650.812	33.9
651.002	34.09
651.191	35.33
651.38	35
651.569	35.66
651.758	34.31
651.947	34.2
652.137	34.4
652.326	34.15
652.515	31.79
652.704	31.37
652.893	31.49
653.082	31.87
653.271	31.19
653.46	30.96
653.649	30.42
653.838	33.04
654.027	33.1
654.216	33.42
654.405	34.42
654.594	35.68
654.783	36.27
654.972	36.37
655.161	35.16
655.35	35.33
655.539	34.64
655.728	34.45
655.916	33.08
656.105	32.72
656.294	33.23
656.483	31.79
656.672	31.82
656.86	31.72
657.049	31.16
657.238	30.69
657.427	30.82
657.615	31.78
657.804	32.85
657.993	32.53
658.181	33.12
658.37	32.4
658.559	34.01
658.747	34.53
658.936	34.31
659.125	33.77
659.313	34.36
659.502	34.58
659.69	34.15
659.879	32.63
660.067	32.59
660.256	32.64
660.444	33.24
660.633	32.14
660.821	31.5
661.01	31.11
661.198	31.54
661.387	33.74
661.575	34.24
661.763	34.23
661.952	34.84
662.14	35.23
662.328	34.77
662.517	34.3
662.705	34.08
662.893	35.26
663.082	35.79
663.27	36.82
663.458	33.72
663.646	32.56
663.834	33.55
664.023	33.23
664.211	32.94
664.399	32.99
664.587	33.39
664.775	33.9
664.963	32.13
665.152	31.66
665.34	31.67
665.528	33.04
665.716	34.89
665.904	34.81
666.092	36.18
666.28	35.06
666.468	36.49
666.656	35.96
666.844	35.03
667.032	35.57
667.22	37.05
667.408	37.54
667.596	38.65
667.784	37.93
667.971	38.01
668.159	37.41
668.347	37.54
668.535	35.68
668.723	35.7
668.911	35.99
669.098	36.49
669.286	36.79
669.474	36.66
669.662	34.02
669.849	34.02
670.037	33.18
670.225	32.11
670.413	33.88
670.6	34.87
670.788	34.39
670.976	33.82
671.163	34.49
671.351	32.27
671.538	30.74
671.726	31.78
671.913	32.07
672.101	33.57
672.289	35.34
672.476	34.14
672.664	33.05
672.851	33.41
673.039	34.1
673.226	33.46
673.413	35.34
673.601	35.35
673.788	35.46
673.976	35.08
674.163	33.5
674.35	33.04
674.538	33.87
674.725	34.74
674.912	35.53
675.1	34.65
675.287	33.87
675.474	33.92
675.662	35.35
675.849	35.81
676.036	35.5
676.223	35.92
676.411	35.19
676.598	34.9
676.785	35.7
676.972	34.9
677.159	35.46
677.346	34.56
677.533	32.92
677.721	31.47
677.908	32.49
678.095	32.77
678.282	32.87
678.469	32.79
678.656	32.99
678.843	32.16
679.03	32.61
679.217	33.45
679.404	34.03
679.591	34.57
679.778	35.18
679.964	35.29
680.151	35.15
680.338	34.71
680.525	34.01
680.712	33.45
680.899	33.91
681.086	33.21
681.272	33.48
681.459	32.91
681.646	32.2
681.833	33.56
682.02	32.73
682.206	32.59
682.393	32.51
682.58	33.9
682.766	34.01
682.953	34.54
683.14	34.98
683.326	34.16
683.513	35.93
683.7	36.43
683.886	35.08
684.073	33.74
684.259	34.73
684.446	34.63
684.632	34.95
684.819	34.68
685.005	32.75
685.192	32.85
685.378	33.5
685.565	32.73
685.751	32.51
685.938	32.44
686.124	32.06
686.31	30.36
686.497	31.6
686.683	32.36
686.87	32.21
687.056	32.65
687.242	32.27
687.429	30.71
687.615	30.49
687.801	32.31
687.987	31.72
688.174	33.59
688.36	34.54
688.546	33.85
688.732	33.52
688.918	33.31
689.105	33.72
689.291	34.21
689.477	35.36
689.663	36.35
689.849	36.79
690.035	40
690.221	38.18
690.407	37.57
690.593	37.66
690.779	36.18
690.965	35.67
691.151	36.87
691.337	37.3
691.523	38.24
691.709	38.58
691.895	37.36
692.081	35.34
692.267	36.81
692.453	37.13
692.639	36.85
692.825	37.04
693.011	37.41
693.196	34.84
693.382	33.89
693.568	31.5
693.754	29.78
693.94	30.64
694.125	30.38
694.311	30.04
694.497	32.31
694.682	32.06
694.868	31.4
695.054	32.49
695.239	33.42
695.425	33.38
695.611	34.82
695.796	35.64
695.982	34.72
696.168	33.9
696.353	32.74
696.539	30.75
696.724	30.92
696.91	31.33
697.095	30.32
697.281	29.67
697.466	29.81
697.652	29.49
697.837	28.07
698.023	27.43
698.208	27.81
698.393	28.32
698.579	28.66
698.764	28.46
698.949	28.14
699.135	29.05
699.32	29.79
699.505	30.4
699.691	31.62
699.876	33.15
700.061	34.69
700.246	35.51
700.432	36.82
700.617	37.1
700.802	38.39
700.987	39.25
701.172	39.07
701.358	38.54
701.543	39.49
701.728	39.09
701.913	39.68
702.098	39.87
702.283	41.2
702.468	40.51
702.653	40.75
702.838	39.6
703.023	39.4
703.208	40.26
703.393	41.68
703.578	41.13
703.763	40.67
703.948	40.56
704.133	39.76
704.318	36.84
704.503	38.59
704.688	39.35
704.873	39.2
705.057	38.84
705.242	39.39
705.427	40.55
705.612	39.66
705.797	38.04
705.981	38.24
706.166	36.32
706.351	36.01
706.536	34.86
706.72	34.17
706.905	35.76
707.09	38.36
707.274	37.88
707.459	35.89
707.644	36.09
707.828	38.17
708.013	38.52
708.197	39.84
708.382	40.34
708.567	42.17
708.751	41.82
708.936	41.01
709.12	38.79
709.305	37.79
709.489	39.54
709.673	40.84
709.858	40.24
710.042	38.85
710.227	38.45
710.411	38.96
710.596	36.93
710.78	37.44
710.964	36.91
711.149	38.02
711.333	39.07
711.517	38.36
711.702	37.74
711.886	37.15
712.07	39.19
712.254	40.42
712.438	40.71
712.623	39.58
712.807	40.55
712.991	41
713.175	41.87
713.359	40.76
713.544	41.27
713.728	40.58
713.912	41.13
714.096	40.17
714.28	40.61
714.464	39.4
714.648	40.32
714.832	39.11
715.016	38.71
715.2	36.11
715.384	36.11
715.568	35.22
715.752	36.59
715.936	36.05
716.12	36.79
716.304	35.08
716.488	35.09
716.671	35.35
716.855	36.45
717.039	37.42
717.223	39.92
717.407	41.34
717.59	42.67
717.774	43.33
717.958	41.69
718.142	39.21
718.325	39.19
718.509	40.05
718.693	40.07
718.877	37.56
719.06	37.39
719.244	35.88
719.428	36.33
719.611	34.34
719.795	30.89
719.978	33.23
720.162	33.94
720.345	36.89
720.529	38.71
720.713	38.65
720.896	40.7
721.08	39.95
721.263	39.5
721.446	37.67
721.63	38.14
721.813	37.57
721.997	36.49
722.18	37.39
722.364	35.52
722.547	36.36
722.73	35.35
722.914	33.98
723.097	34.56
723.28	33.97
723.464	34.6
723.647	32.34
723.83	34.44
724.013	34.16
724.197	32.76
724.38	33.89
724.563	28.78
724.746	28.13
724.929	28.03
725.112	27.03
725.296	29.26
725.479	28.67
725.662	31.9
725.845	30.77
726.028	31.29
726.211	32.78
726.394	31.75
726.577	34.14
726.76	33.81
726.943	33.2
727.126	32.54
727.309	31.39
727.492	33.99
727.675	33.44
727.858	32.05
728.041	32.52
728.224	31.59
728.407	31.21
728.589	33.23
728.772	34.35
728.955	34.65
729.138	35.45
729.321	35.69
729.503	34.53
729.686	33.67
729.869	36.89
730.052	35.77
730.234	36.24
730.417	34.55
730.6	32.81
730.782	33.65
730.965	33.09
731.148	34.24
731.33	32.78
731.513	31.72
731.695	32.31
731.878	31.23
732.061	33.33
732.243	33.21
732.426	35.39
732.608	35.38
732.791	36.79
732.973	39.33
733.156	36.74
733.338	38.21
733.52	40.21
733.703	38.72
733.885	37.83
734.068	38.52
734.25	41.95
734.432	44.23
734.615	44.1
734.797	43.57
734.979	45.51
735.162	47.03
735.344	48.24
735.526	46.84
735.708	48.65
735.891	50.98
736.073	50.7
736.255	48.07
736.437	48.13
736.619	48.4
736.802	46.03
736.984	42.2
737.166	42.95
737.348	42.5
737.53	45.09
737.712	45.67
737.894	45.75
738.076	46.4
738.258	44.58
738.44	41.82
738.622	41.77
738.804	45.72
738.986	49.24
739.168	50.51
739.35	49.58
739.532	46.51
739.714	48.35
739.896	46.85
740.078	46.06
740.259	48.5
740.441	51.47
740.623	51.92
740.805	47.78
740.987	46.18
741.168	47.11
741.35	50.9
741.532	50.19
741.714	49.66
741.895	51.02
742.077	49.56
742.259	48.18
742.44	48.08
742.622	47.89
742.804	47.89
742.985	46.73
743.167	44.41
743.348	45.59
743.53	46.85
743.711	42.01
743.893	45.52
744.075	47.39
744.256	49.7
744.438	50.8
744.619	53.86
744.8	54.45
744.982	56.98
745.163	54.06
745.345	54.42
745.526	55.87
745.707	58.1
745.889	54.47
746.07	49.89
746.252	49.93
746.433	47.41
746.614	46.75
746.795	50.21
746.977	50.21
747.158	56.22
747.339	53.35
747.52	52.99
747.702	51.24
747.883	51.38
748.064	58.81
748.245	58.65
748.426	59.48
748.607	58.99
748.788	57.6
748.97	56.65
749.151	58.1
749.332	58.88
749.513	57.53
749.694	57.86
749.875	58.74
750.056	53.71
750.237	53.34
750.418	52.92
750.599	50.97
750.78	48.86
750.96	50.44
751.141	45.62
751.322	43.51
751.503	41
751.684	43.61
751.865	42.47
752.046	43.98
752.226	44.65
752.407	44.31
752.588	42.91
752.769	49.51
752.949	45.82
753.13	46.46
753.311	46.95
753.492	49.46
753.672	48.54
753.853	45.94
754.034	44.45
754.214	44.82
754.395	46.11
754.575	49.13
754.756	45.47
754.937	44.88
755.117	50.76
755.298	55.57
755.478	53.49
755.659	49.27
755.839	53.04
756.02	55.6
756.2	57.31
756.381	52.84
756.561	51.06
756.741	44.95
756.922	46.94
757.102	42.65
757.283	37.76
757.463	36.45
757.643	40.68
757.823	37.08
758.004	39.1
758.184	36.87
758.364	43.75
758.545	40.05
758.725	41.96
758.905	41.97
759.085	41.14
759.265	42.56
759.446	49.11
759.626	46.87
759.806	49.36
759.986	44.23
760.166	43.78
760.346	38.95
760.526	42.31
760.706	43.59
760.886	42.56
761.066	39.28
761.246	35.52
761.426	32.45
761.606	29.71
761.786	26.67
761.966	27
762.146	28.55
762.326	28.58
762.506	29.35
762.686	27.28
762.866	23.83
763.046	26.57
763.225	29.01
763.405	27.9
763.585	32.72
763.765	34.05
763.945	36.57
764.124	33.88
764.304	35.93
764.484	34.33
764.664	36.54
764.843	43.02
765.023	44.12
765.203	45.75
765.382	49.05
765.562	49.35
765.741	51.74
765.921	53.8
766.101	57.35
766.28	59.45
766.46	61.56
766.639	61.99
766.819	61.26
766.998	60.7
767.178	59.8
767.357	58.75
767.537	54.78
767.716	56.76
767.896	55.21
768.075	57.32
768.254	53.63
768.434	50.48
768.613	54.74
768.792	53.86
768.972	56.67
769.151	55.37
769.33	52.46
769.51	53.04
769.689	51.01
769.868	50.87
770.047	51.64
770.226	56.4
770.406	55.89
770.585	51.86
770.764	52.33
770.943	51.85
771.122	58.86
771.301	62.79
771.48	69.61
771.66	68.75
771.839	69.43
772.018	64.2
772.197	62.16
772.376	66.39
772.555	69.55
772.734	69.21
772.913	71.69
773.092	70.26
773.271	68.93
773.449	64
773.628	61.22
773.807	62.82
773.986	65.47
774.165	69.9
774.344	72.25
774.523	67.64
774.701	75.07
774.88	70.16
775.059	68.08
775.238	66.93
775.417	70.67
775.595	71.17
775.774	73.56
775.953	69.57
776.131	64.29
776.31	60.4
776.489	61.32
776.667	50.91
776.846	54.07
777.025	52.55
777.203	53.82
777.382	48.9
777.56	50.05
777.739	47.41
777.917	51.13
778.096	53.96
778.274	58.18
778.453	58.33
778.631	66.98
778.81	63.14
778.988	64.87
779.166	64.93
779.345	66.24
779.523	69.14
779.702	69.21
779.88	69.42
780.058	63.85
780.237	56.85
780.415	59.78
780.593	54.24
780.771	54.81
780.95	54.2
781.128	55.65
781.306	59.31
781.484	58.97
781.662	61.31
781.841	61.21
782.019	60.28
782.197	63.98
782.375	63.55
782.553	63.59
782.731	59.26
782.909	57.99
783.087	55.74
783.265	47.87
783.443	48.49
783.621	43.85
783.799	38.67
783.977	39.71
784.155	39.82
784.333	34.49
784.511	38.47
784.689	41.17
784.867	41.7
785.045	42.32
785.223	51.21
785.4	53.57
785.578	61.91
785.756	71.72
785.934	69.54
786.112	71.29
786.289	68.64
786.467	65.51
786.645	66.75
786.823	64.57
787	63.41
787.178	60.46
787.356	59.81
787.533	52.78
787.711	50.84
787.889	49.81
788.066	49.55
788.244	53.98
788.421	53.66
788.599	53.17
788.776	58.32
788.954	55.99
789.131	55.08
789.309	58.8
789.486	60.52
789.664	55.15
789.841	59.06
790.019	58.33
790.196	61
790.373	59.56
790.551	66.43
790.728	63.83
790.906	70.43
791.083	81.57
791.26	80.02
791.437	77.96
791.615	78.64
791.792	79.96
791.969	75
792.146	77.16
792.324	82.44
792.501	80.71
792.678	83.58
792.855	80.64
793.032	73.39
793.209	68.61
793.387	68.13
793.564	68.31
793.741	66.27
793.918	67.72
794.095	57.33
794.272	60.52
794.449	55.39
794.626	55.39
794.803	52.8
794.98	49.97
795.157	47.48
795.334	53.44
795.511	54.22
795.688	54.57
795.864	55.72
796.041	62.69
796.218	53.17
796.395	60.82
796.572	59.66
796.749	64.93
796.925	62.49
797.102	64.83
797.279	58.85
797.456	60.03
797.632	61.05
797.809	57.8
797.986	64.32
798.162	69.85
798.339	61.25
798.516	60.27
798.692	52.51
798.869	48.9
799.046	54.67
799.222	49.71
799.399	46.98
799.575	46.58
799.752	50.23
799.928	43.08
800.105	49.23
800.281	52.47
800.458	51.89
800.634	56.93
800.811	61.2
800.987	63.08
801.163	69.71
801.34	75.09
801.516	79.74
801.692	79.46
801.869	77.69
802.045	73
802.221	76.24
802.398	79.81
802.574	75.68
802.75	73.92
802.926	70.56
803.103	67.14
803.279	64.37
803.455	64.57
803.631	64.15
803.807	70.75
803.983	68.53
804.16	65.9
804.336	67.19
804.512	65.68
804.688	67.29
804.864	60.06
805.04	60.9
805.216	54.46
805.392	45.18
805.568	53.16
805.744	54.73
805.92	52.35
806.096	61.54
806.272	58.01
806.448	65.23
806.623	69.64
806.799	78.54
806.975	83.93
807.151	93.89
807.327	88.59
807.503	78.57
807.678	66.43
807.854	69.46
808.03	59.76
808.206	50.52
808.381	56
808.557	55.49
808.733	53.56
808.908	54.5
809.084	47.72
809.26	55.38
809.435	53.42
809.611	62.35
809.787	67.62
809.962	70.71
810.138	76.6
810.313	70.27
810.489	63.94
810.664	55.35
810.84	48.36
811.015	53.31
811.191	48.41
811.366	47.1
811.542	44.09
811.717	43.65
811.892	44.1
812.068	40.68
812.243	38.64
812.419	42.69
812.594	39.08
812.769	44.64
812.944	45.08
813.12	44.04
813.295	42.66
813.47	36.49
813.645	35.54
813.821	34.7
813.996	37.4
814.171	36.65
814.346	37.99
814.521	48.66
814.697	38.61
814.872	31.95
815.047	31.28
815.222	34.51
815.397	34.19
815.572	32.12
815.747	24.98
815.922	29.02
816.097	31.36
816.272	29.98
816.447	31.95
816.622	32.89
816.797	34.78
816.972	37.65
817.147	36.12
817.322	38.26
817.496	38.3
817.671	42.67
817.846	41.71
818.021	40.7
818.196	36.2
818.371	24.72
818.545	29.41
818.72	32.61
818.895	39.3
819.069	41.92
819.244	41.5
819.419	41.97
819.594	39.99
819.768	37.66
819.943	39.46
820.117	38.93
820.292	38
820.467	37.44
820.641	36.9
820.816	34.04
820.99	32.64
821.165	32.49
821.339	31.74
821.514	31.22
821.688	32.76
821.863	30.56
822.037	30.78
822.212	31.85
822.386	30.77
822.56	29.07
822.735	28.95
822.909	27.13
823.084	27.72
823.258	28.32
823.432	28.71
823.606	26.36
823.781	28.03
823.955	27.41
824.129	26.07
824.303	27.21
824.478	30.15
824.652	29.89
824.826	35.5
825	36.81
825.174	36.42
825.348	36.04
825.523	35.22
825.697	34.18
825.871	37.59
826.045	41.58
826.219	40.33
826.393	41.23
826.567	42.46
826.741	43.85
826.915	44.28
827.089	43.16
827.263	42.46
827.437	44.54
827.611	41.45
827.784	38.8
827.958	34.46
828.132	39.91
828.306	39.86
828.48	39.88
828.654	42.73
828.827	41.25
829.001	42.95
829.175	46.43
829.349	53.43
829.522	62.55
829.696	66.38
829.87	70.62
830.044	68.16
830.217	68.82
830.391	54.4
830.565	42.61
830.738	26.56
830.912	24.13
831.085	20.21
831.259	4.94
831.432	13.65
831.606	8.59
831.779	14.7
831.953	13.49
832.126	12.49
832.3	22.5
832.473	19.97
832.647	27.13
832.82	26.32
832.994	31.98
833.167	34.29
833.34	35.09
833.514	40.5
833.687	35.4
833.86	42.89
834.034	45.36
834.207	49.31
834.38	50.34
834.553	53
834.727	60.7
834.9	58.36
835.073	58.88
835.246	60.37
835.419	59.42
835.593	64.18
835.766	54.28
835.939	48.01
836.112	31.07
836.285	32.97
836.458	31.73
836.631	33.67
836.804	35.07
836.977	41.8
837.15	40.3
837.323	23.95
837.496	20.08
837.669	28.45
837.842	31.49
838.015	49.61
838.188	41.64
838.361	38.15
838.533	28.78
838.706	38.1
838.879	30.71
839.052	35.19
839.225	36.17
839.398	31.05
839.57	42.39
839.743	45.9
839.916	49.29
840.088	66.92
840.261	70.2
840.434	71.76
840.607	60.99
840.779	71.76
840.952	61.52
841.124	65.83
841.297	57.68
841.47	72.53
841.642	70.75
841.815	59.13
841.987	42.07
842.16	50.48
842.332	56.42
842.505	54.25
842.677	54.47
842.85	63.76
843.022	63.56
843.194	77.6
843.367	61.3
843.539	67.37
843.712	73.67
843.884	64.9
844.056	52.47
844.229	53.01
844.401	55.47
844.573	45.07
844.745	35.65
844.918	37.26
845.09	29.19
845.262	15.26
845.434	7.18
845.606	14.55
845.779	45.61
845.951	31.32
846.123	19.04
846.295	56.11
846.467	47.61
846.639	60.16
846.811	115.91
846.983	233.55
847.155	303.29
847.327	99.75
847.499	102.03
847.671	57.84
847.843	92.57
848.015	75.14
848.187	35.44
848.359	67.42
848.531	75.31
848.703	29.47
848.875	-51.61
849.047	-71.24
849.218	66.1
849.39	63.42
849.562	29.81
849.734	13.25
849.905	56.05
850.077	81.37
850.249	74.21
850.421	65.34
850.592	90.32
850.764	56.32
850.936	76.46
851.107	50.37
851.279	49.62
851.451	57.64
851.622	78.13
851.794	77
851.965	65.05
852.137	67.1
852.308	72.88
852.48	42.2
852.651	83.13
852.823	58.82
852.994	83.19
853.166	83.62
853.337	76.99
853.509	58.94
853.68	50.83
853.851	59.58
854.023	64.48
854.194	61.17
854.365	80.32
854.537	64.24
854.708	62.83
854.879	66.19
855.05	67.34
855.222	80
855.393	78.38
855.564	82.15
855.735	78.48
855.906	79.09
856.078	89.68
856.249	76.96
856.42	123.56
856.591	126.22
856.762	104.82
856.933	93.73
857.104	72.03
857.275	66.93
857.446	49.7
857.617	36.77
857.788	73.36
857.959	76.28
858.13	67.46
858.301	44.24
858.472	39.43
858.643	51.26
858.814	63.23
858.985	70.58
859.155	89.01
859.326	125.77
859.497	139.04
859.668	96.87
859.839	89.88
860.009	92.58
860.18	110.57
860.351	134.6
860.522	111.22
860.692	87.29
860.863	29.88
861.034	15.84
861.204	1.06
861.375	16.54
861.546	0
861.716	-28.66
861.887	20.33
862.057	-16.18
862.228	23.58
862.398	40.11
862.569	60.04
862.739	110.51
862.91	106.23
863.08	95.67
863.251	85.7
863.421	100.11
863.592	106.12
863.762	100.84
863.932	106.03
864.103	90.71
864.273	99.89
864.443	98.54
864.614	94.72
864.784	80.16
864.954	102.66
865.125	91.31
865.295	68.08
865.465	76
865.635	73.2
865.805	66.41
865.976	68.99
866.146	69.73
866.316	56.08
866.486	56.96
866.656	71
866.826	56.73
866.996	67.01
867.166	79.96
867.336	71.1
867.506	85.43
867.676	105.18
867.846	86.12
868.016	105.58
868.186	193.2
868.356	261.06
868.526	641.67
868.696	29100
868.866	-218.82
869.036	259.63
869.206	414.52
869.376	73.17
869.545	32.78
869.715	55.78
869.885	36.5
870.055	42.8
870.224	48.05
870.394	21.82
870.564	13.49
870.734	-3.5
870.903	-23.71
871.073	31.82
871.243	58.24
871.412	82.14
871.582	58.36
871.751	48.84
871.921	10.83
872.091	-11.99
872.26	-16.92
872.43	5.57
872.599	46.14
872.769	47.37
872.938	49.5
873.108	45.45
873.277	45.2
873.446	58.14
873.616	42.31
873.785	51.85
873.955	54.35
874.124	73.59
874.293	55.73
874.463	30.43
874.632	16.98
874.801	5.48
874.971	25.07
875.14	16.27
875.309	10.96
875.478	25.24
875.647	27.71
875.817	32.09
875.986	41.1
876.155	64.8
876.324	85.56
876.493	79.28
876.662	87.45
876.831	66.48
877	55.73
877.17	53.62
877.339	59.35
877.508	50.31
877.677	52.32
877.846	38.3
878.015	29.87
878.184	35.37
878.352	34.64
878.521	42.97
878.69	39.2
878.859	29.2
879.028	30.48
879.197	8.18
879.366	9
879.534	12.55
879.703	12.99
879.872	21.65
880.041	14.24
880.21	12.24
880.378	9.11
880.547	15.74
880.716	22.64
880.884	22.01
881.053	27.91
881.222	27.46
881.39	29.24
881.559	32.96
881.727	25.75
881.896	26.25
882.065	35.8
882.233	32.88
882.402	24.58
882.57	25.25
882.739	27
882.907	19.65
883.076	17.9
883.244	17.37
883.412	26.38
883.581	33.02
883.749	31.51
883.918	18.42
884.086	25.3
884.254	6.46
884.423	10.19
884.591	9.26
884.759	2.83
884.927	8.5
885.096	7.84
885.264	-39.75
885.432	-48.76
885.6	-49.82
885.769	-29.04
885.937	-40.25
886.105	16.88
886.273	26.81
886.441	-19.08
886.609	25.08
886.777	15.51
886.945	19.12
887.113	65.34
887.281	69.74
887.449	113.2
887.617	98.72
887.785	101.7
887.953	100.41
888.121	62
888.289	72.31
888.457	78.31
888.625	79.22
888.793	72.06
888.961	53.39
889.129	62.53
889.296	58.57
889.464	63.29
889.632	53.29
889.8	37.38
889.967	77.73
890.135	68.9
