Data from JASIL_3268_Reflection_2.txt Node
Date: Mon Nov 16 21:10:13 EST 2015
User: Geneva
Spectrometer: USB4E03002
Autoset integration time: false
Trigger mode: 4
Integration Time (sec): 1.000000E-1
Scans to average: 10
Electric dark correction enabled: false
Nonlinearity correction enabled: false
Boxcar width: 5
Stray light correction enabled: false
XAxis mode: Wavelengths
Stop averaging: false
Number of Pixels in Spectrum: 3648
>>>>>Begin Spectral Data<<<<<
177.575	-681.2
177.794	-749.29
178.014	-785.54
178.233	-1334.58
178.452	-1897.59
178.672	-1281.82
178.891	-1723.58
179.11	5445.95
179.33	1753.57
179.549	-9895.45
179.768	1877.12
179.987	2348.39
180.207	1405.16
180.426	775.26
180.645	813.15
180.864	1509.09
181.084	622.37
181.303	564.81
181.522	1011.82
181.741	3195.77
181.96	680.34
182.179	822.68
182.398	1023.56
182.618	1016.1
182.837	968.07
183.056	843.25
183.275	520.42
183.494	542.79
183.713	573.09
183.932	498.36
184.151	501.53
184.37	502.54
184.589	419.52
184.808	346.33
185.027	335.21
185.246	439.97
185.465	670.17
185.684	727.6
185.903	3124.14
186.122	1201.79
186.341	1485.96
186.56	729.47
186.779	1435.75
186.998	2088.46
187.216	2117.32
187.435	1678.44
187.654	1461.08
187.873	700.25
188.092	619.05
188.311	555.83
188.53	868.38
188.748	790.06
188.967	1927.2
189.186	939.46
189.405	1039.39
189.623	1098.61
189.842	967.08
190.061	1075.6
190.28	2916.67
190.498	-2653.75
190.717	1788.1
190.936	-3735.59
191.154	-1910.71
191.373	-41416.67
191.592	-21918.18
191.81	-1369.54
192.029	-1851.91
192.248	-635.56
192.466	-575.36
192.685	-633.51
192.904	-926.74
193.122	-671.47
193.341	-1432.43
193.559	-1422.34
193.778	-1585.45
193.996	-2022.14
194.215	69900
194.433	-6602.38
194.652	1316.26
194.87	1168.4
195.089	1093.89
195.307	1290
195.526	3791.53
195.744	2028.95
195.963	1264.29
196.181	28900
196.399	-1932.48
196.618	10615
196.836	34016.67
197.055	-1781.15
197.273	-3851.72
197.491	-2526.67
197.71	-4550.98
197.928	3136.25
198.146	5721.43
198.365	-22850
198.583	1059.31
198.801	1454.39
199.019	3197.4
199.238	-5771.43
199.456	2249.06
199.674	1000.85
199.892	744.61
200.111	978.46
200.329	992.83
200.547	785.92
200.765	710.21
200.983	796.99
201.202	603.1
201.42	1013.39
201.638	624.29
201.856	750.57
202.074	2138.84
202.292	2603.03
202.51	1693.2
202.728	2544.33
202.946	-5655
203.165	7748.48
203.383	-2552.58
203.601	-3075.58
203.819	5586
204.037	28260
204.255	2959.79
204.473	1260.75
204.691	1767.33
204.909	1157.55
205.127	1273.49
205.345	1590.91
205.562	1290.59
205.78	896.98
205.998	1022.45
206.216	858.21
206.434	834.46
206.652	740.91
206.87	582.97
207.088	479.52
207.306	601.16
207.523	501.2
207.741	389.75
207.959	424.55
208.177	467.64
208.395	374.83
208.612	417.63
208.83	395.99
209.048	433.05
209.266	563.36
209.483	594.12
209.701	470.88
209.919	549.06
210.136	566.27
210.354	1282.5
210.572	1126.24
210.79	1860.74
211.007	1078.6
211.225	1739.53
211.442	-10476.19
211.66	-2818.06
211.878	-1329.17
212.095	320
212.313	336.18
212.53	461.28
212.748	284.34
212.966	275.35
213.183	241.37
213.401	257.16
213.618	226.66
213.836	256.35
214.053	268.37
214.271	238.69
214.488	1709.24
214.705	977.52
214.923	718.06
215.14	749.11
215.358	609.85
215.575	947.64
215.793	980.37
216.01	1447.85
216.227	515.32
216.445	392.13
216.662	455.83
216.879	488.27
217.097	430.41
217.314	473.17
217.531	609.15
217.749	694.79
217.966	896
218.183	714.6
218.4	845.6
218.618	1067.32
218.835	1103.72
219.052	762.23
219.269	637.03
219.487	922.57
219.704	650.12
219.921	489.82
220.138	370.01
220.355	347.31
220.572	383.57
220.79	406.34
221.007	486.4
221.224	669.91
221.441	613.62
221.658	748.32
221.875	514.32
222.092	513.32
222.309	735.51
222.526	826.61
222.743	704.76
222.96	952.36
223.177	460.08
223.394	495.31
223.611	352.86
223.828	413.74
224.045	425.98
224.262	517.8
224.479	382.77
224.696	292.53
224.913	352.78
225.13	303.82
225.347	246.57
225.564	235.51
225.781	179.03
225.997	173.53
226.214	143.48
226.431	125.56
226.648	102.85
226.865	93.82
227.082	90.97
227.298	81.05
227.515	72.68
227.732	67.62
227.949	61.17
228.165	62.76
228.382	57.41
228.599	58.65
228.816	58.16
229.032	60.45
229.249	58.51
229.466	58.34
229.682	60.11
229.899	63.81
230.116	66.1
230.332	71.98
230.549	71.41
230.765	77.6
230.982	75.29
231.199	77.52
231.415	84.11
231.632	92.02
231.848	95.43
232.065	100.77
232.281	100.28
232.498	113.97
232.714	112.32
232.931	112.38
233.147	109.45
233.364	116.67
233.58	116.84
233.797	120.2
234.013	117.48
234.23	118.5
234.446	117.23
234.662	114.71
234.879	110.79
235.095	118.46
235.312	119.37
235.528	123.66
235.744	126.51
235.961	128.11
236.177	122.08
236.393	125.04
236.61	130.88
236.826	127.24
237.042	131.03
237.258	126.92
237.475	115.61
237.691	120.94
237.907	124.08
238.123	126.89
238.339	116.9
238.556	111.97
238.772	103.38
238.988	92.42
239.204	86.98
239.42	83.41
239.636	84.79
239.853	81.66
240.069	73.97
240.285	67.86
240.501	60.67
240.717	56.9
240.933	51.34
241.149	49.99
241.365	48.98
241.581	49.4
241.797	45.9
242.013	42.46
242.229	42.05
242.445	41.33
242.661	40.4
242.877	40.87
243.093	42.53
243.309	44.48
243.525	43.75
243.741	45.71
243.957	44.41
244.173	45.98
244.388	46.62
244.604	46.51
244.82	44.65
245.036	40.91
245.252	37.82
245.468	34.66
245.683	32.66
245.899	31.88
246.115	29.56
246.331	28.14
246.547	25.94
246.762	24.79
246.978	25.46
247.194	25.87
247.409	27.08
247.625	27.83
247.841	28.76
248.057	29.19
248.272	29.83
248.488	32.76
248.703	34.84
248.919	38.5
249.135	42.41
249.35	43.45
249.566	44.5
249.782	45.59
249.997	45.44
250.213	43.02
250.428	42.43
250.644	43.24
250.859	41.5
251.075	39.18
251.29	37.62
251.506	35.32
251.721	36.14
251.937	36.71
252.152	36.99
252.368	39.41
252.583	43.12
252.798	46.02
253.014	45.81
253.229	45.31
253.445	48.15
253.66	52.75
253.875	55.18
254.091	60.58
254.306	63.93
254.521	68.21
254.737	65.81
254.952	65.79
255.167	67.76
255.383	67.69
255.598	66.47
255.813	64.11
256.028	61.37
256.244	59.8
256.459	53.17
256.674	49.46
256.889	45.18
257.104	42.71
257.32	39.56
257.535	34.21
257.75	30.65
257.965	29.07
258.18	28.28
258.395	25.83
258.61	23.7
258.826	22.74
259.041	22.14
259.256	21.68
259.471	21.75
259.686	20.68
259.901	20.99
260.116	21.92
260.331	23.08
260.546	22.96
260.761	23.42
260.976	24.81
261.191	25.7
261.406	26.95
261.621	28.77
261.836	29.9
262.05	31.7
262.265	32.63
262.48	33.8
262.695	33.23
262.91	34.46
263.125	36.57
263.34	37.58
263.555	39.35
263.769	41.8
263.984	41.69
264.199	42.65
264.414	42.98
264.629	42.02
264.843	39.26
265.058	39.11
265.273	38.16
265.488	38.12
265.702	37.68
265.917	37.43
266.132	34.46
266.346	34.15
266.561	33.08
266.776	31.83
266.99	32.06
267.205	32.2
267.42	30.6
267.634	30.33
267.849	28.89
268.063	28.32
268.278	28.51
268.492	28.86
268.707	27.82
268.922	27.13
269.136	27.34
269.351	26.91
269.565	25.47
269.78	26.18
269.994	25.82
270.209	25.04
270.423	23.47
270.637	21.79
270.852	20.32
271.066	20.19
271.281	21.6
271.495	20.67
271.709	19.74
271.924	21.43
272.138	21.81
272.353	21.65
272.567	21.96
272.781	21.71
272.996	21.97
273.21	22.26
273.424	23.04
273.638	22.91
273.853	23.89
274.067	26.39
274.281	27.26
274.495	27.36
274.71	27.79
274.924	27.98
275.138	29.15
275.352	29.62
275.566	31.19
275.781	31.04
275.995	31.01
276.209	31.11
276.423	31.29
276.637	30.56
276.851	30.16
277.065	30.45
277.279	31.43
277.493	30.34
277.707	29.53
277.921	29.33
278.135	29.68
278.349	30.8
278.563	31.14
278.777	30.2
278.991	29.57
279.205	29.68
279.419	29.79
279.633	29.33
279.847	30.33
280.061	29.78
280.275	29.95
280.489	30.06
280.703	28.03
280.917	28.81
281.131	27.96
281.344	29.4
281.558	29.01
281.772	27.59
281.986	27.31
282.2	26.46
282.414	25.4
282.627	24.86
282.841	24.37
283.055	25.5
283.269	25.4
283.482	25.35
283.696	23.93
283.91	23.5
284.123	24.34
284.337	23.43
284.551	23.42
284.764	25.03
284.978	24.32
285.192	24.03
285.405	23.56
285.619	22.8
285.833	23.26
286.046	22.72
286.26	22.68
286.473	21.84
286.687	23.24
286.9	24.97
287.114	24.59
287.327	25.2
287.541	25.06
287.754	25.34
287.968	24.7
288.181	24.58
288.395	23.83
288.608	25.47
288.822	25.25
289.035	25.34
289.248	24.09
289.462	24.01
289.675	24.44
289.889	23.68
290.102	21.34
290.315	22.33
290.529	21.89
290.742	22.42
290.955	21.06
291.169	22.84
291.382	22.16
291.595	24.19
291.808	24.7
292.022	23.54
292.235	24.94
292.448	28.14
292.661	28.62
292.875	30.6
293.088	31.09
293.301	30.85
293.514	28.51
293.727	28.75
293.94	25.65
294.153	25.88
294.367	26.38
294.58	23.89
294.793	21.44
295.006	22.08
295.219	19.73
295.432	20.03
295.645	19.54
295.858	19.67
296.071	19.37
296.284	18.93
296.497	17.64
296.71	17
296.923	18.04
297.136	18.05
297.349	17.01
297.562	17.88
297.775	17.39
297.988	17.41
298.201	19.11
298.414	17.86
298.626	19.43
298.839	19.91
299.052	20.39
299.265	20.96
299.478	23.22
299.691	22.76
299.903	22.54
300.116	22.81
300.329	22.86
300.542	22.08
300.755	23.96
300.967	22.48
301.18	23.44
301.393	24.64
301.605	25.26
301.818	23.2
302.031	24.17
302.243	22.93
302.456	23.85
302.669	25.17
302.881	26.17
303.094	26.48
303.307	27.31
303.519	27.74
303.732	27.19
303.944	26.97
304.157	28.08
304.37	28.41
304.582	30.13
304.795	29.19
305.007	28.83
305.22	28.13
305.432	26.41
305.645	26.49
305.857	26.62
306.069	26.13
306.282	25.14
306.494	23.97
306.707	22.99
306.919	22.41
307.132	22.51
307.344	22.29
307.556	21.82
307.769	22.43
307.981	23.17
308.193	20.56
308.406	20.78
308.618	21.24
308.83	21.54
309.043	20.76
309.255	20.85
309.467	21.08
309.679	20.73
309.892	19.94
310.104	19.8
310.316	19.52
310.528	20.34
310.74	19.68
310.953	20.3
311.165	21.76
311.377	21.92
311.589	22.05
311.801	21.24
312.013	21.12
312.225	23.5
312.437	24.22
312.649	24.63
312.862	25.87
313.074	25.48
313.286	25.57
313.498	24.4
313.71	23.63
313.922	23.04
314.134	24.64
314.346	24.19
314.558	23.61
314.77	22.8
314.982	22.01
315.193	21.42
315.405	23.21
315.617	24.09
315.829	25.57
316.041	27.34
316.253	28.22
316.465	28.83
316.677	30.34
316.888	29.52
317.1	29.78
317.312	30.47
317.524	29.69
317.736	29.66
317.947	28.79
318.159	28.06
318.371	28.02
318.583	27.48
318.794	27.43
319.006	27.08
319.218	26.48
319.43	26.31
319.641	26.53
319.853	27.61
320.064	28.6
320.276	28.46
320.488	29.06
320.699	29.58
320.911	31.38
321.123	32.46
321.334	34.46
321.546	36.38
321.757	37.29
321.969	37.78
322.18	35.73
322.392	34.88
322.603	34.41
322.815	33.31
323.026	32.68
323.238	30.96
323.449	29.09
323.661	27.3
323.872	25.97
324.083	25.86
324.295	25.52
324.506	26.29
324.718	25.65
324.929	25.83
325.14	25.82
325.352	26.03
325.563	26.73
325.774	26.26
325.986	26.51
326.197	25.33
326.408	25.14
326.62	25.17
326.831	25.27
327.042	25.68
327.253	25.67
327.464	26.99
327.676	26.92
327.887	27.61
328.098	28.69
328.309	28.31
328.52	30.99
328.732	30.85
328.943	31.03
329.154	31.95
329.365	32.96
329.576	33.61
329.787	31.97
329.998	33.41
330.209	31.67
330.42	31.66
330.631	33.49
330.842	32.55
331.053	33.56
331.264	33.26
331.475	31.57
331.686	31.64
331.897	31.97
332.108	33.55
332.319	32.58
332.53	31.84
332.741	32.06
332.952	30.75
333.163	31.49
333.374	30.42
333.585	29.71
333.795	31.74
334.006	31.11
334.217	30.93
334.428	28.6
334.639	29.75
334.849	31.1
335.06	31.3
335.271	30.82
335.482	31.37
335.692	30.95
335.903	32.5
336.114	31.41
336.325	31.23
336.535	30.61
336.746	33.02
336.957	32.48
337.167	32.75
337.378	33.06
337.589	33.45
337.799	31.79
338.01	32.91
338.22	31.89
338.431	32.32
338.642	32.49
338.852	31.75
339.063	30.61
339.273	30.6
339.484	31.11
339.694	29.9
339.905	30.73
340.115	31.16
340.326	31.94
340.536	32.98
340.746	34.03
340.957	33.79
341.167	34.52
341.378	34.82
341.588	34.79
341.799	34.69
342.009	35.1
342.219	34.79
342.43	35.46
342.64	35.09
342.85	34.36
343.061	32.15
343.271	31.53
343.481	31.14
343.691	31.3
343.902	30.46
344.112	30.12
344.322	29.27
344.532	29.93
344.743	28.74
344.953	28.19
345.163	28.11
345.373	28.46
345.583	29.6
345.793	29.61
346.004	28.53
346.214	28.4
346.424	28.67
346.634	28.81
346.844	28.68
347.054	30.08
347.264	30
347.474	30.1
347.684	30.16
347.894	29.06
348.104	29.44
348.314	29.96
348.524	29.96
348.734	28.87
348.944	29.58
349.154	28.83
349.364	27.87
349.574	27.41
349.784	27.66
349.994	28.05
350.204	28.16
350.413	27.68
350.623	28.12
350.833	27.56
351.043	27.89
351.253	26.94
351.463	26.62
351.672	27.19
351.882	27.76
352.092	27.34
352.302	26.62
352.511	26.3
352.721	26.43
352.931	26.15
353.141	27.24
353.35	26.74
353.56	27.42
353.77	28.59
353.979	28.12
354.189	27.57
354.399	27.44
354.608	28.86
354.818	29.19
355.027	28.89
355.237	28.09
355.447	27.21
355.656	27.74
355.866	26.8
356.075	26
356.285	25.87
356.494	24.64
356.704	24.58
356.913	23.76
357.123	23.74
357.332	23.52
357.542	23.55
357.751	23.49
357.96	23.41
358.17	23.57
358.379	22.93
358.589	22.59
358.798	23.98
359.007	23.04
359.217	21.43
359.426	20.52
359.635	21.21
359.845	20.48
360.054	20.39
360.263	19.93
360.472	20.19
360.682	20.1
360.891	19.9
361.1	19.12
361.309	19.03
361.519	19.98
361.728	20.89
361.937	20.34
362.146	21.19
362.355	21.32
362.564	21.45
362.774	21.17
362.983	21.38
363.192	21.46
363.401	22.21
363.61	22.51
363.819	22.85
364.028	22.06
364.237	22.13
364.446	21.41
364.655	21.45
364.864	22.49
365.073	23.09
365.282	23.27
365.491	23.59
365.7	22.99
365.909	23.61
366.118	23.38
366.327	23.45
366.536	23.86
366.745	24.27
366.954	25.05
367.162	24.8
367.371	24.34
367.58	24.5
367.789	25
367.998	25.84
368.207	25.29
368.415	25.92
368.624	25.9
368.833	25.99
369.042	26.16
369.25	26.26
369.459	25.62
369.668	25.76
369.877	26.12
370.085	24.98
370.294	24.45
370.503	24.28
370.711	23.67
370.92	23.91
371.129	24.8
371.337	24.9
371.546	23.43
371.754	23.47
371.963	22.96
372.171	21.78
372.38	22.51
372.589	23.09
372.797	23.34
373.006	23.2
373.214	23.19
373.423	22.68
373.631	22.48
373.84	22.33
374.048	21.58
374.256	21.34
374.465	22.04
374.673	22.57
374.882	21.47
375.09	21.38
375.298	21.77
375.507	21.5
375.715	20.53
375.923	19.37
376.132	19.64
376.34	20.19
376.548	20.8
376.757	20.48
376.965	19.79
377.173	20.55
377.381	21.02
377.59	21.15
377.798	21.44
378.006	21.7
378.214	22.79
378.423	23.31
378.631	23.21
378.839	23.36
379.047	23.82
379.255	23.78
379.463	23.57
379.671	23.66
379.879	22.99
380.088	23.66
380.296	23.48
380.504	23.74
380.712	23.08
380.92	22.92
381.128	22.74
381.336	22.35
381.544	22.55
381.752	22.25
381.96	22.04
382.168	22.46
382.376	21.6
382.584	21.04
382.791	20.79
382.999	21.67
383.207	22.06
383.415	22.53
383.623	22.41
383.831	21.81
384.039	22.07
384.247	22.16
384.454	22.05
384.662	22
384.87	22.25
385.078	22.55
385.285	22.67
385.493	22.41
385.701	21.78
385.909	22.62
386.116	23.24
386.324	23.14
386.532	23.22
386.739	23.21
386.947	23.12
387.155	24.16
387.362	23.39
387.57	22.7
387.778	22.63
387.985	23.07
388.193	22.21
388.4	21.91
388.608	22.09
388.816	21.83
389.023	22.08
389.231	22.52
389.438	21.68
389.646	22.72
389.853	23.75
390.061	23.79
390.268	23.41
390.475	23.59
390.683	23.17
390.89	23.42
391.098	23.02
391.305	22.84
391.512	22.24
391.72	21.92
391.927	21.54
392.135	21.23
392.342	21.2
392.549	21.57
392.756	21.43
392.964	21.7
393.171	21.86
393.378	21.86
393.586	21.8
393.793	22.01
394	22.59
394.207	21.96
394.414	21.01
394.622	21.09
394.829	20.62
395.036	20.64
395.243	20.96
395.45	20.87
395.657	21.92
395.864	22.01
396.072	22.58
396.279	22.32
396.486	23.18
396.693	24.18
396.9	24.19
397.107	24.64
397.314	24.79
397.521	24.84
397.728	24.25
397.935	23.14
398.142	23.05
398.349	22.93
398.556	23.16
398.763	23.32
398.97	23.21
399.177	22.83
399.383	22.58
399.59	22.99
399.797	22.9
400.004	23
400.211	24.08
400.418	24.14
400.625	24.31
400.831	24.17
401.038	24
401.245	23.67
401.452	24.23
401.658	24.17
401.865	23.39
402.072	23.04
402.279	22.66
402.485	22.11
402.692	22.15
402.899	21.68
403.105	21.41
403.312	21.68
403.519	21.86
403.725	21.06
403.932	21.37
404.138	21.36
404.345	21.8
404.552	21.96
404.758	21.6
404.965	21.39
405.171	21.14
405.378	21.3
405.584	20.8
405.791	20.82
405.997	21.35
406.204	21.57
406.41	22.13
406.617	21.35
406.823	21.77
407.029	21.93
407.236	22.01
407.442	22.42
407.649	22.35
407.855	22.29
408.061	22.86
408.268	22.98
408.474	22.8
408.68	21.5
408.887	21.7
409.093	21.51
409.299	21.97
409.505	21.92
409.712	22.04
409.918	22.15
410.124	22.18
410.33	21.6
410.537	21.4
410.743	21.44
410.949	22.69
411.155	22.86
411.361	22.94
411.567	22.47
411.773	22.75
411.98	22.43
412.186	22.33
412.392	22.71
412.598	22.45
412.804	22.78
413.01	22.37
413.216	22.42
413.422	22.64
413.628	22.37
413.834	22.67
414.04	22.89
414.246	23.55
414.452	24.09
414.658	24.4
414.864	24.72
415.07	24.97
415.275	25.54
415.481	25.62
415.687	25.78
415.893	25.05
416.099	24.97
416.305	25.04
416.511	24.68
416.716	23.8
416.922	23.27
417.128	22.8
417.334	22.06
417.539	21.38
417.745	20.84
417.951	20.46
418.157	20.75
418.362	20.4
418.568	19.56
418.774	19.02
418.979	19.4
419.185	19.2
419.391	19.14
419.596	19.23
419.802	19.05
420.008	18.95
420.213	18.98
420.419	19.17
420.624	19.33
420.83	19.55
421.035	19.75
421.241	19.5
421.446	19.54
421.652	19.43
421.857	19.4
422.063	19.66
422.268	19.9
422.474	19.9
422.679	19.66
422.885	19.58
423.09	19.57
423.295	19.43
423.501	19.64
423.706	19.68
423.911	19.71
424.117	19.79
424.322	19.77
424.527	19.6
424.733	19.62
424.938	19.87
425.143	20.02
425.349	20
425.554	20.27
425.759	20.33
425.964	20.26
426.169	20.48
426.375	20.38
426.58	20.79
426.785	21.07
426.99	20.96
427.195	20.92
427.4	20.59
427.605	20.79
427.811	20.6
428.016	20.76
428.221	21.2
428.426	21.57
428.631	21.92
428.836	21.5
429.041	21.49
429.246	21.95
429.451	22.07
429.656	22.09
429.861	22
430.066	22.2
430.271	22.3
430.476	21.88
430.681	21.66
430.886	21.45
431.09	21.32
431.295	21.1
431.5	20.85
431.705	20.65
431.91	20.95
432.115	20.6
432.32	20.55
432.524	20.28
432.729	20.47
432.934	20.71
433.139	20.54
433.343	20.99
433.548	21.02
433.753	20.81
433.958	21.01
434.162	21.14
434.367	21.49
434.572	21.59
434.776	21.73
434.981	21.73
435.186	21.42
435.39	21.89
435.595	21.73
435.799	21.83
436.004	21.7
436.209	21.39
436.413	20.96
436.618	20.88
436.822	20.89
437.027	20.53
437.231	20.36
437.436	20.39
437.64	19.94
437.845	19.6
438.049	19.18
438.253	19.43
438.458	19.47
438.662	19.72
438.867	19.77
439.071	19.61
439.275	19.74
439.48	19.72
439.684	19.83
439.888	19.84
440.093	20.2
440.297	20.31
440.501	20.23
440.706	20.39
440.91	20.45
441.114	20.53
441.318	20.87
441.523	20.95
441.727	21.16
441.931	20.97
442.135	21.04
442.339	21.03
442.543	21.25
442.748	21.65
442.952	21.74
443.156	21.56
443.36	21.48
443.564	21.36
443.768	20.89
443.972	20.9
444.176	21.1
444.38	21.05
444.584	20.64
444.788	20.38
444.992	20.08
445.196	19.76
445.4	19.68
445.604	19.62
445.808	19.32
446.012	19.3
446.216	19.04
446.42	18.69
446.624	18.79
446.828	18.95
447.032	19.1
447.235	19.1
447.439	19.16
447.643	19.11
447.847	19.16
448.051	19.33
448.254	19.72
448.458	19.74
448.662	20.02
448.866	20.24
449.069	20.17
449.273	20.36
449.477	20.3
449.681	20.39
449.884	20.51
450.088	20.67
450.292	20.53
450.495	20.49
450.699	20.79
450.902	21.03
451.106	21.05
451.31	21.41
451.513	21.49
451.717	21.53
451.92	21.94
452.124	22.05
452.327	21.93
452.531	22.33
452.734	22.15
452.938	22.07
453.141	21.99
453.345	22.03
453.548	21.8
453.752	21.86
453.955	22.06
454.158	21.52
454.362	21.29
454.565	21.63
454.769	21.67
454.972	21.98
455.175	22.15
455.379	22.29
455.582	21.82
455.785	21.79
455.988	21.25
456.192	20.95
456.395	21.09
456.598	21.31
456.801	20.8
457.005	20.39
457.208	20.21
457.411	19.83
457.614	19.77
457.817	20.03
458.021	19.95
458.224	20.21
458.427	20.06
458.63	20.16
458.833	20.03
459.036	20.04
459.239	20.04
459.442	19.86
459.645	19.96
459.848	19.84
460.051	19.86
460.254	19.9
460.457	19.69
460.66	19.97
460.863	20.05
461.066	19.92
461.269	20.09
461.472	20.05
461.675	20.18
461.878	20.3
462.081	20.69
462.284	20.45
462.486	20.32
462.689	20.68
462.892	20.92
463.095	20.97
463.298	21.29
463.5	21.39
463.703	21.62
463.906	21.74
464.109	21.79
464.311	21.65
464.514	22.19
464.717	22.25
464.92	22.16
465.122	22.07
465.325	22.06
465.528	22.09
465.73	21.85
465.933	21.75
466.135	21.93
466.338	22.02
466.541	21.59
466.743	21.18
466.946	21.06
467.148	21.24
467.351	21.19
467.553	21.08
467.756	21.49
467.958	21.9
468.161	21.88
468.363	21.47
468.566	21.19
468.768	21.43
468.971	21.49
469.173	21.78
469.375	21.72
469.578	21.64
469.78	21.53
469.983	20.97
470.185	21.14
470.387	21.49
470.59	21.86
470.792	21.82
470.994	21.62
471.196	21.47
471.399	21.47
471.601	21.23
471.803	21.06
472.005	21.03
472.208	21.06
472.41	20.54
472.612	20.38
472.814	20.18
473.016	20.17
473.218	20.43
473.421	20.74
473.623	20.28
473.825	20.53
474.027	20.86
474.229	20.87
474.431	20.89
474.633	21.13
474.835	21.18
475.037	21.11
475.239	21.2
475.441	21.18
475.643	21.32
475.845	21.63
476.047	21.49
476.249	21.16
476.451	20.91
476.653	20.84
476.855	20.52
477.057	20.5
477.258	20.56
477.46	20.48
477.662	20.49
477.864	20.12
478.066	20.06
478.268	19.84
478.469	19.7
478.671	19.62
478.873	19.57
479.075	19.5
479.276	19.33
479.478	19.23
479.68	19.45
479.882	19.29
480.083	19.37
480.285	19.12
480.487	19.24
480.688	19.59
480.89	19.66
481.091	19.71
481.293	19.66
481.495	19.44
481.696	19.35
481.898	19.05
482.099	18.98
482.301	18.84
482.502	18.61
482.704	18.4
482.905	18.05
483.107	17.81
483.308	17.63
483.51	17.51
483.711	17.45
483.913	17.35
484.114	17.26
484.315	17.1
484.517	16.92
484.718	16.98
484.92	17.04
485.121	17.02
485.322	17.14
485.524	17.15
485.725	17.24
485.926	17.21
486.127	17.23
486.329	17.36
486.53	17.53
486.731	17.58
486.932	17.63
487.134	17.63
487.335	17.64
487.536	17.6
487.737	17.71
487.938	17.77
488.139	17.76
488.341	17.78
488.542	17.79
488.743	17.75
488.944	18.01
489.145	18.13
489.346	18.16
489.547	18.21
489.748	18.43
489.949	18.37
490.15	18.32
490.351	18.37
490.552	18.43
490.753	18.32
490.954	18.22
491.155	18.06
491.356	17.96
491.557	17.98
491.758	18.08
491.959	17.98
492.159	18.22
492.36	18.27
492.561	18.42
492.762	18.51
492.963	18.68
493.164	18.89
493.364	19.05
493.565	19.4
493.766	19.5
493.967	19.59
494.167	19.88
494.368	19.43
494.569	19.5
494.769	19.69
494.97	19.89
495.171	20.04
495.371	20.28
495.572	20.52
495.773	20.21
495.973	20
496.174	19.93
496.375	19.97
496.575	20.25
496.776	20.11
496.976	19.76
497.177	19.58
497.377	19.57
497.578	19.37
497.778	19.29
497.979	19.63
498.179	19.81
498.38	20.03
498.58	20.08
498.78	20.06
498.981	20.1
499.181	20.57
499.382	20.85
499.582	20.78
499.782	20.88
499.983	20.98
500.183	20.8
500.383	20.86
500.584	20.87
500.784	20.91
500.984	21.28
501.184	21.5
501.385	21.73
501.585	21.63
501.785	22.07
501.985	22.33
502.185	22.23
502.386	22.34
502.586	22.34
502.786	22.54
502.986	22.45
503.186	22.16
503.386	22.13
503.586	21.84
503.786	21.92
503.987	21.56
504.187	21.48
504.387	21.65
504.587	21.49
504.787	21.68
504.987	21.7
505.187	21.66
505.387	21.92
505.587	22.16
505.786	22.36
505.986	22.42
506.186	22.54
506.386	22.63
506.586	22.64
506.786	22.74
506.986	22.91
507.186	23.05
507.386	22.98
507.585	22.9
507.785	22.82
507.985	22.7
508.185	22.47
508.384	22.38
508.584	22.45
508.784	22.35
508.984	22.28
509.183	22.16
509.383	22.04
509.583	22.11
509.782	22.29
509.982	22.26
510.182	22.22
510.381	22.32
510.581	22.59
510.781	22.52
510.98	22.68
511.18	22.95
511.379	22.81
511.579	22.61
511.778	22.7
511.978	22.67
512.177	22.65
512.377	22.82
512.576	22.77
512.776	22.66
512.975	22.7
513.175	22.83
513.374	22.88
513.573	23.17
513.773	23.48
513.972	23.44
514.172	23.38
514.371	23.67
514.57	23.73
514.77	23.89
514.969	24.07
515.168	24.18
515.367	24.36
515.567	24.58
515.766	24.44
515.965	24.48
516.164	24.75
516.364	24.75
516.563	24.69
516.762	24.62
516.961	24.7
517.16	24.78
517.359	24.69
517.559	24.47
517.758	24.28
517.957	24.17
518.156	24.19
518.355	23.96
518.554	23.98
518.753	23.83
518.952	23.89
519.151	23.87
519.35	23.83
519.549	23.91
519.748	24.08
519.947	23.98
520.146	24.26
520.345	24.25
520.544	24.47
520.743	24.68
520.942	25
521.141	25.2
521.339	25.46
521.538	25.51
521.737	25.49
521.936	25.31
522.135	25.46
522.333	25.56
522.532	25.51
522.731	25.5
522.93	25.46
523.129	25.31
523.327	25.19
523.526	25.05
523.725	25.04
523.923	25.21
524.122	25.02
524.321	25.08
524.519	24.94
524.718	24.83
524.917	24.77
525.115	24.71
525.314	24.62
525.512	24.62
525.711	24.51
525.909	24.34
526.108	24.08
526.306	24.21
526.505	24.23
526.703	24.18
526.902	24.17
527.1	24.08
527.299	24.09
527.497	24.07
527.696	23.96
527.894	23.98
528.092	24.05
528.291	24.13
528.489	24.11
528.688	24.04
528.886	24.08
529.084	24.15
529.283	24.38
529.481	24.35
529.679	24.47
529.877	24.55
530.076	24.72
530.274	24.94
530.472	25.12
530.67	25.28
530.869	25.55
531.067	25.67
531.265	25.84
531.463	25.92
531.661	26.17
531.859	26.24
532.057	26.37
532.255	26.32
532.454	26.28
532.652	26.23
532.85	26.32
533.048	26.28
533.246	26.29
533.444	26.23
533.642	26.25
533.84	26.29
534.038	26.36
534.236	26.45
534.434	26.47
534.632	26.54
534.83	26.77
535.027	26.84
535.225	26.93
535.423	27.25
535.621	27.35
535.819	27.36
536.017	27.17
536.215	27.17
536.412	27.19
536.61	27.49
536.808	27.5
537.006	27.64
537.203	27.88
537.401	28.07
537.599	28.04
537.797	28.21
537.994	28.19
538.192	28.74
538.39	29.07
538.587	29.32
538.785	29.37
538.983	29.66
539.18	29.58
539.378	29.51
539.575	29.34
539.773	29.28
539.97	29.28
540.168	29.32
540.366	29.11
540.563	29.11
540.761	28.91
540.958	28.77
541.155	28.59
541.353	28.63
541.55	28.49
541.748	28.53
541.945	28.54
542.143	28.6
542.34	28.72
542.537	28.65
542.735	28.51
542.932	28.77
543.129	28.99
543.327	29.24
543.524	29.27
543.721	29.51
543.919	29.71
544.116	30.01
544.313	30.15
544.51	30.12
544.708	30.6
544.905	30.94
545.102	30.98
545.299	31.11
545.496	30.93
545.693	31.08
545.891	31.29
546.088	31.67
546.285	31.53
546.482	31.6
546.679	31.73
546.876	31.72
547.073	31.89
547.27	31.82
547.467	31.86
547.664	32.27
547.861	32.3
548.058	32.26
548.255	32.3
548.452	32.92
548.649	33.45
548.846	33.76
549.043	33.95
549.24	34.4
549.437	34.8
549.633	35.07
549.83	35.08
550.027	35.35
550.224	35.64
550.421	35.52
550.618	35.24
550.814	34.71
551.011	34.9
551.208	34.67
551.405	34.18
551.601	34.3
551.798	34.38
551.995	34.35
552.191	34.56
552.388	34.8
552.585	34.61
552.781	34.9
552.978	35.53
553.175	35.44
553.371	35.83
553.568	36.18
553.764	36
553.961	36.09
554.157	36.39
554.354	36.73
554.55	36.79
554.747	37.24
554.943	37.1
555.14	36.96
555.336	37.38
555.533	37.61
555.729	37.72
555.926	38.51
556.122	38.6
556.318	39.01
556.515	39.01
556.711	38.98
556.907	39.28
557.104	39.4
557.3	39.47
557.496	39.25
557.693	39.31
557.889	39.9
558.085	39.8
558.281	40.09
558.478	39.97
558.674	40.08
558.87	40.36
559.066	40.34
559.262	40.49
559.459	40.38
559.655	40.66
559.851	41.02
560.047	40.58
560.243	40.57
560.439	40.55
560.635	40.47
560.831	40.02
561.027	39.66
561.223	39.54
561.419	39.74
561.615	39.87
561.811	40.09
562.007	39.78
562.203	39.9
562.399	39.76
562.595	39.97
562.791	40.09
562.987	40.42
563.183	40.92
563.379	41.15
563.575	41.15
563.771	41.34
563.966	41.07
564.162	40.81
564.358	40.95
564.554	41.21
564.75	41.11
564.945	41.03
565.141	41.18
565.337	41.31
565.533	41.3
565.728	41.12
565.924	41.14
566.12	41.59
566.315	41.85
566.511	41.67
566.707	41.72
566.902	41.52
567.098	41.91
567.293	41.81
567.489	41.4
567.684	41.36
567.88	41.4
568.076	41.52
568.271	41.31
568.467	41.44
568.662	41.96
568.858	42
569.053	42.32
569.248	42.34
569.444	42.44
569.639	42.54
569.835	42.54
570.03	42.61
570.225	42.31
570.421	42.06
570.616	41.8
570.812	41.24
571.007	41.05
571.202	40.96
571.397	40.64
571.593	40.8
571.788	40.87
571.983	41.08
572.178	41.46
572.374	41.78
572.569	41.79
572.764	42.12
572.959	42.52
573.154	42.79
573.35	43.11
573.545	43.64
573.74	43.34
573.935	43.45
574.13	43.56
574.325	43.36
574.52	43.31
574.715	43.55
574.91	43.45
575.105	43.58
575.3	43.65
575.495	43.68
575.69	43.63
575.885	44.39
576.08	44.77
576.275	44.94
576.47	45.05
576.665	45.24
576.86	45.29
577.055	45.64
577.25	45.54
577.444	45.69
577.639	45.53
577.834	45.68
578.029	45.58
578.224	45.47
578.418	45.75
578.613	45.95
578.808	46.23
579.003	46.43
579.197	46.54
579.392	46.88
579.587	47.19
579.781	47.59
579.976	47.82
580.171	47.6
580.365	47.9
580.56	47.77
580.755	48.02
580.949	47.87
581.144	47.82
581.338	47.75
581.533	47.69
581.727	47.51
581.922	47.23
582.116	46.91
582.311	46.65
582.505	46.9
582.7	46.79
582.894	46.9
583.089	47
583.283	47.29
583.478	47.71
583.672	47.62
583.866	47.68
584.061	47.92
584.255	47.83
584.449	48.07
584.644	47.39
584.838	47.75
585.032	48.03
585.226	48.14
585.421	48.31
585.615	48.07
585.809	48.57
586.003	48.3
586.198	48.62
586.392	49.29
586.586	49.13
586.78	49.45
586.974	49
587.168	48.42
587.363	48.88
587.557	48.51
587.751	48.36
587.945	47.46
588.139	47.69
588.333	47.65
588.527	47.3
588.721	47.92
588.915	48.04
589.109	47.99
589.303	48.5
589.497	47.8
589.691	48.2
589.885	48.29
590.079	48.88
590.273	49.02
590.466	49.01
590.66	49.35
590.854	49.31
591.048	49.2
591.242	49.51
591.436	49.11
591.629	49.3
591.823	49.37
592.017	49.63
592.211	50.19
592.404	50.19
592.598	50.17
592.792	49.74
592.986	49.95
593.179	50.17
593.373	50.23
593.567	50.5
593.76	50.17
593.954	49.57
594.147	49.47
594.341	49.22
594.535	49.48
594.728	49.6
594.922	49.5
595.115	48.85
595.309	48.64
595.502	48.63
595.696	48.71
595.889	49.22
596.083	49.27
596.276	49.2
596.47	48.9
596.663	48.72
596.856	48.52
597.05	48.73
597.243	48.97
597.437	49.58
597.63	49.92
597.823	49.93
598.017	50.15
598.21	50.66
598.403	50.97
598.596	51.66
598.79	51.89
598.983	52.26
599.176	52.25
599.369	52.82
599.563	52.48
599.756	52.95
599.949	52.98
600.142	52.96
600.335	53.24
600.528	53.3
600.722	52.62
600.915	52.67
601.108	52.72
601.301	52.44
601.494	52.32
601.687	52.55
601.88	52.07
602.073	51.95
602.266	51.56
602.459	51.55
602.652	51.54
602.845	51.88
603.038	51.45
603.231	51.07
603.424	51.17
603.617	51.14
603.809	50.82
604.002	50.88
604.195	50.72
604.388	50.96
604.581	50.68
604.774	50.57
604.966	50.21
605.159	50.54
605.352	50.75
605.545	51.22
605.737	51.21
605.93	51.5
606.123	51.65
606.316	52.08
606.508	52.14
606.701	52.57
606.894	52.71
607.086	53.48
607.279	53.39
607.471	53.57
607.664	53.35
607.857	53.18
608.049	52.81
608.242	52.85
608.434	52.99
608.627	52.96
608.819	52.48
609.012	52.53
609.204	52.33
609.397	52.25
609.589	52.3
609.782	52.39
609.974	52.83
610.166	53.26
610.359	52.92
610.551	53.01
610.743	53.34
610.936	53.95
611.128	53.9
611.32	53.83
611.513	54.37
611.705	54.48
611.897	54.84
612.09	54.67
612.282	54.78
612.474	54.9
612.666	55.04
612.858	54.71
613.051	54.55
613.243	55.06
613.435	55.74
613.627	55.78
613.819	55.94
614.011	56.81
614.203	56.74
614.395	56.49
614.588	56.88
614.78	56.66
614.972	56.95
615.164	57.22
615.356	57.54
615.548	57.08
615.74	57.15
615.932	57.19
616.124	56.25
616.315	56.97
616.507	58.05
616.699	58.24
616.891	58.49
617.083	58.7
617.275	58.66
617.467	58.46
617.659	58.42
617.85	57.79
618.042	57.8
618.234	57.58
618.426	56.93
618.618	56.04
618.809	55.65
619.001	55.66
619.193	56.2
619.384	56.46
619.576	56.37
619.768	56.41
619.959	56.94
620.151	56.8
620.343	57.41
620.534	57.28
620.726	57.15
620.917	57.18
621.109	57.59
621.301	56.63
621.492	56.29
621.684	56.77
621.875	57.69
622.067	57.89
622.258	57.31
622.45	56.94
622.641	57.21
622.832	57.27
623.024	57.41
623.215	56.56
623.407	56.82
623.598	57.25
623.789	56.79
623.981	56.2
624.172	55.92
624.363	56.43
624.555	55.83
624.746	55.72
624.937	55.83
625.129	55.71
625.32	56.09
625.511	56.16
625.702	55.58
625.893	55.25
626.085	54.97
626.276	54.97
626.467	54.82
626.658	55.59
626.849	55.38
627.04	55.31
627.231	55.22
627.422	55.17
627.614	55.27
627.805	55.36
627.996	55.81
628.187	56.11
628.378	56.03
628.569	56.07
628.76	56.11
628.951	56.14
629.142	56.4
629.332	56.55
629.523	56.49
629.714	56.63
629.905	56.89
630.096	56.99
630.287	57.19
630.478	57.08
630.669	57.41
630.859	57.73
631.05	58.15
631.241	58.32
631.432	58.73
631.623	59.15
631.813	59.4
632.004	59.16
632.195	58.21
632.385	58.44
632.576	59.04
632.767	58.82
632.957	58.75
633.148	59.14
633.339	58.76
633.529	57.78
633.72	57.44
633.91	57.03
634.101	57.48
634.292	58.24
634.482	58.08
634.673	58.06
634.863	58.62
635.054	58.4
635.244	58.05
635.435	58.11
635.625	58.83
635.815	58.54
636.006	58.84
636.196	59.23
636.387	59.34
636.577	59.23
636.767	58.58
636.958	58.1
637.148	58.33
637.338	58.18
637.529	58.29
637.719	58.22
637.909	58.69
638.099	58.95
638.29	58.38
638.48	58.27
638.67	58.15
638.86	59.18
639.05	59.64
639.241	59.75
639.431	60.22
639.621	61.03
639.811	60.87
640.001	61.25
640.191	60.37
640.381	60.82
640.571	61.05
640.761	61.44
640.951	61.36
641.141	61.1
641.331	60.58
641.521	61
641.711	60.87
641.901	61
642.091	60.85
642.281	61.36
642.471	61.29
642.661	61.59
642.851	61.69
643.041	61.09
643.231	61.45
643.42	62.39
643.61	62.13
643.8	62.45
643.99	62.12
644.18	62.18
644.369	62.72
644.559	62.67
644.749	62.2
644.939	62.27
645.128	63.06
645.318	62.72
645.508	62.17
645.697	62.33
645.887	61.33
646.076	61.46
646.266	60.77
646.456	59.98
646.645	59.34
646.835	59.2
647.024	58.52
647.214	58.46
647.403	58.27
647.593	58.75
647.782	58.63
647.972	58.59
648.161	59.09
648.351	59.97
648.54	60.07
648.73	61.14
648.919	61.65
649.108	62.26
649.298	61.91
649.487	62.13
649.677	62.28
649.866	61.98
650.055	62.4
650.244	62.76
650.434	61.4
650.623	62.44
650.812	61.59
651.002	60.86
651.191	60.69
651.38	61.07
651.569	60.82
651.758	60.3
651.947	60.8
652.137	60.79
652.326	60.4
652.515	61.17
652.704	60.96
652.893	61.3
653.082	61.44
653.271	61.07
653.46	60.9
653.649	61.06
653.838	60.45
654.027	59.83
654.216	59.5
654.405	59.33
654.594	59.82
654.783	58.81
654.972	58.89
655.161	59.48
655.35	59.73
655.539	59.59
655.728	60.01
655.916	60.62
656.105	60.85
656.294	61.43
656.483	61.12
656.672	60.88
656.86	61.15
657.049	61.33
657.238	60.28
657.427	60.71
657.615	60.53
657.804	60.18
657.993	59.3
658.181	59.15
658.37	59.28
658.559	60.07
658.747	59.88
658.936	60.39
659.125	60.5
659.313	61.54
659.502	61.34
659.69	61.21
659.879	61.49
660.067	62
660.256	62.26
660.444	62.18
660.633	61.87
660.821	61.59
661.01	61.5
661.198	60.9
661.387	60.53
661.575	60.78
661.763	61.25
661.952	61.93
662.14	63.11
662.328	64.01
662.517	63.51
662.705	63.59
662.893	65.15
663.082	64.58
663.27	64.82
663.458	65.14
663.646	65.24
663.834	65.56
664.023	65.38
664.211	64.65
664.399	63.65
664.587	64.19
664.775	63.69
664.963	63.01
665.152	63.41
665.34	63.45
665.528	63.27
665.716	62.87
665.904	63.16
666.092	62.25
666.28	61.81
666.468	62.25
666.656	62.36
666.844	63.11
667.032	63.3
667.22	63.44
667.408	63.74
667.596	63.51
667.784	63.57
667.971	63.44
668.159	63.55
668.347	63.92
668.535	63.77
668.723	63.18
668.911	62.84
669.098	63.06
669.286	63.16
669.474	63.16
669.662	63.51
669.849	64.37
670.037	64.3
670.225	65.04
670.413	66.08
670.6	66.15
670.788	67.01
670.976	67.93
671.163	67.66
671.351	67.82
671.538	67.53
671.726	67.94
671.913	67.17
672.101	66.32
672.289	66.28
672.476	65.13
672.664	65.38
672.851	65.47
673.039	64.83
673.226	64.71
673.413	65.1
673.601	66.42
673.788	66.02
673.976	66.29
674.163	67.66
674.35	66.91
674.538	67.08
674.725	67.12
674.912	66.87
675.1	66.51
675.287	66.22
675.474	65.96
675.662	64.35
675.849	65.15
676.036	65.1
676.223	65.98
676.411	66.59
676.598	67.05
676.785	66.98
676.972	66.97
677.159	67.38
677.346	67.64
677.533	67.31
677.721	67.75
677.908	67.83
678.095	68.05
678.282	66.18
678.469	65.97
678.656	65.4
678.843	65.22
679.03	64.87
679.217	64.91
679.404	64.59
679.591	64.86
679.778	65.55
679.964	64.9
680.151	64.87
680.338	65.21
680.525	64.79
680.712	65.06
680.899	64.48
681.086	64.66
681.272	64.69
681.459	65.07
681.646	65.11
681.833	64.31
682.02	64.43
682.206	64.35
682.393	65.05
682.58	65.99
682.766	65.83
682.953	66.82
683.14	66.62
683.326	67.1
683.513	67.31
683.7	66.42
683.886	66.14
684.073	66.15
684.259	66.69
684.446	66.43
684.632	66.37
684.819	66.76
685.005	66.89
685.192	67.98
685.378	67.92
685.565	68.37
685.751	69.18
685.938	70.2
686.124	70.59
686.31	70.45
686.497	70.04
686.683	69.61
686.87	69.6
687.056	69.29
687.242	69.18
687.429	69.06
687.615	68.36
687.801	69.15
687.987	69.22
688.174	69.68
688.36	69.14
688.546	68.93
688.732	69.83
688.918	70.13
689.105	69.9
689.291	69.8
689.477	69.79
689.663	70.22
689.849	69.04
690.035	69.76
690.221	68.96
690.407	70.07
690.593	71.05
690.779	71.09
690.965	70.82
691.151	70.93
691.337	71.82
691.523	71.7
691.709	71.99
691.895	73.46
692.081	72.84
692.267	73.67
692.453	73.09
692.639	71.99
692.825	72.19
693.011	72.89
693.196	74.15
693.382	73.64
693.568	74.76
693.754	74.83
693.94	73.88
694.125	73.29
694.311	73.74
694.497	72.82
694.682	73.98
694.868	72.78
695.054	72.67
695.239	71.68
695.425	71.49
695.611	69.64
695.796	68.51
695.982	68.21
696.168	68.05
696.353	67.3
696.539	67.27
696.724	65.89
696.91	65.86
697.095	65.13
697.281	64.3
697.466	63.79
697.652	63.82
697.837	64.46
698.023	64.27
698.208	64.08
698.393	63.69
698.579	63.4
698.764	63.71
698.949	63.47
699.135	63.39
699.32	64.07
699.505	64.4
699.691	64.82
699.876	64.14
700.061	64.66
700.246	65.37
700.432	64.88
700.617	66.6
700.802	66.99
700.987	68.3
701.172	69.47
701.358	69.63
701.543	69.52
701.728	70.65
701.913	72.67
702.098	72.91
702.283	72.76
702.468	73.96
702.653	73.99
702.838	75.56
703.023	76.1
703.208	75.27
703.393	76.03
703.578	77.02
703.763	77.08
703.948	76.66
704.133	78.06
704.318	78.84
704.503	79.09
704.688	78.14
704.873	76.93
705.057	76.38
705.242	76.63
705.427	76.22
705.612	76.88
705.797	76.75
705.981	76.37
706.166	75.26
706.351	74.79
706.536	76.14
706.72	75.04
706.905	75.84
707.09	75.02
707.274	75.7
707.459	76.54
707.644	75.19
707.828	75.13
708.013	75.53
708.197	75.43
708.382	76.44
708.567	75.69
708.751	76.24
708.936	75.92
709.12	76.78
709.305	75.91
709.489	75.66
709.673	74.84
709.858	75.57
710.042	74.86
710.227	74.24
710.411	73.08
710.596	72.52
710.78	73.51
710.964	72.67
711.149	72.13
711.333	73.07
711.517	72.71
711.702	73.64
711.886	72.93
712.07	71.99
712.254	72.51
712.438	72.91
712.623	74.32
712.807	74.22
712.991	74.64
713.175	74.71
713.359	74.25
713.544	73.55
713.728	72.73
713.912	71.99
714.096	74.52
714.28	74.64
714.464	74.68
714.648	72.87
714.832	73.41
715.016	72.98
715.2	73.1
715.384	72.46
715.568	72.93
715.752	73.99
715.936	74.19
716.12	72.39
716.304	73.09
716.488	73.3
716.671	73.75
716.855	73.72
717.039	74.63
717.223	74.52
717.407	75.02
717.59	76.53
717.774	76.86
717.958	77.54
718.142	78.64
718.325	78.6
718.509	77.95
718.693	78.75
718.877	77.81
719.06	78.06
719.244	78.25
719.428	78.12
719.611	77.58
719.795	77.79
719.978	78.43
720.162	77.81
720.345	76.76
720.529	77.29
720.713	77.78
720.896	77.1
721.08	77.77
721.263	79.6
721.446	81.48
721.63	81.96
721.813	81.52
721.997	81.32
722.18	82.2
722.364	83.27
722.547	84.57
722.73	84.21
722.914	86.29
723.097	87.87
723.28	87.69
723.464	86.61
723.647	86.41
723.83	85.71
724.013	85.09
724.197	85.47
724.38	84.27
724.563	82.34
724.746	82.4
724.929	82.63
725.112	81.45
725.296	80.74
725.479	80.59
725.662	79.81
725.845	79.51
726.028	80.67
726.211	79.78
726.394	80.25
726.577	81.63
726.76	82.15
726.943	81.61
727.126	81.45
727.309	79.59
727.492	79.76
727.675	79.6
727.858	80.15
728.041	81.58
728.224	81.21
728.407	80.99
728.589	80.53
728.772	78.24
728.955	77.65
729.138	76.44
729.321	78.33
729.503	78.99
729.686	77.62
729.869	77
730.052	75.94
730.234	76.93
730.417	76.97
730.6	76.34
730.782	76.75
730.965	75.99
731.148	76.73
731.33	75.86
731.513	75.78
731.695	76.06
731.878	76.46
732.061	74.77
732.243	73.31
732.426	73.01
732.608	73.71
732.791	75.3
732.973	75.27
733.156	77.61
733.338	79.73
733.52	79.38
733.703	81.24
733.885	80.92
734.068	82.38
734.25	84.3
734.432	86.93
734.615	87.39
734.797	85.59
734.979	86.91
735.162	83.85
735.344	81.27
735.526	81.25
735.708	81.57
735.891	81.41
736.073	82.03
736.255	82.04
736.437	79.73
736.619	80.49
736.802	81.51
736.984	81.3
737.166	82.2
737.348	83.23
737.53	84.07
737.712	83.78
737.894	84.7
738.076	82.34
738.258	81.48
738.44	83.02
738.622	80.88
738.804	81.68
738.986	82.32
739.168	84.23
739.35	84.82
739.532	84.86
739.714	85.13
739.896	83.11
740.078	85.39
740.259	84.87
740.441	85.79
740.623	87.22
740.805	86.87
740.987	85.14
741.168	83.25
741.35	84.04
741.532	84.23
741.714	82.95
741.895	86.3
742.077	83.4
742.259	84.04
742.44	81.09
742.622	82.59
742.804	83.45
742.985	85.45
743.167	84.7
743.348	84.86
743.53	85.05
743.711	88.58
743.893	88.16
744.075	92.58
744.256	94.74
744.438	97.18
744.619	97.65
744.8	97.48
744.982	98.48
745.163	105.19
745.345	102.96
745.526	103.32
745.707	101.13
745.889	100.61
746.07	100.86
746.252	101.73
746.433	101.23
746.614	100.41
746.795	98.55
746.977	100.05
747.158	96.37
747.339	95.14
747.52	94.51
747.702	92.72
747.883	93.4
748.064	92.11
748.245	91.73
748.426	93.45
748.607	93.38
748.788	96.75
748.97	94.34
749.151	94.43
749.332	98.15
749.513	99.14
749.694	101.14
749.875	102.29
750.056	102.05
750.237	100.52
750.418	101.04
750.599	102.76
750.78	98.66
750.96	99.03
751.141	98.8
751.322	96.49
751.503	93.74
751.684	94.67
751.865	93.53
752.046	92.34
752.226	91.38
752.407	88.61
752.588	87.49
752.769	90.29
752.949	89.9
753.13	87.58
753.311	90.84
753.492	92.88
753.672	92.09
753.853	92.12
754.034	92.99
754.214	91.36
754.395	92.92
754.575	90.63
754.756	89.64
754.937	90.82
755.117	92.28
755.298	90.4
755.478	91.23
755.659	90.86
755.839	90.47
756.02	92.12
756.2	99.81
756.381	98.89
756.561	102.31
756.741	103.3
756.922	104.93
757.102	105.79
757.283	105.62
757.463	105.36
757.643	106.45
757.823	105.71
758.004	103.84
758.184	97.62
758.364	98.14
758.545	95.61
758.725	94.44
758.905	92.25
759.085	91.28
759.265	89.76
759.446	87.8
759.626	85.3
759.806	84.64
759.986	84.96
760.166	88.2
760.346	87.83
760.526	86.9
760.706	86.8
760.886	87.09
761.066	86.34
761.246	86.39
761.426	84.64
761.606	84.12
761.786	84.64
761.966	83.77
762.146	81.18
762.326	80.41
762.506	81.49
762.686	81.18
762.866	79.45
763.046	78.7
763.225	78.04
763.405	78.28
763.585	77.78
763.765	77.63
763.945	78.07
764.124	79.32
764.304	80.03
764.484	80.72
764.664	81.42
764.843	83.89
765.023	85.8
765.203	85.22
765.382	87.48
765.562	89.76
765.741	90.2
765.921	91.01
766.101	89.57
766.28	87.52
766.46	86.16
766.639	86.59
766.819	86.11
766.998	84.48
767.178	87.15
767.357	86.73
767.537	88.9
767.716	92.36
767.896	94.13
768.075	94.86
768.254	98.59
768.434	97.48
768.613	97.61
768.792	98.41
768.972	98.94
769.151	102.14
769.33	103.42
769.51	101.33
769.689	101.84
769.868	101.61
770.047	99.71
770.226	99.55
770.406	101.63
770.585	105.29
770.764	107.28
770.943	107.56
771.122	103.19
771.301	105.24
771.48	106.64
771.66	103.22
771.839	103.78
772.018	108.82
772.197	110.8
772.376	114.14
772.555	113.02
772.734	108.06
772.913	110.15
773.092	110.07
773.271	110.12
773.449	108.8
773.628	108.12
773.807	112.26
773.986	112.84
774.165	111.83
774.344	111.71
774.523	108.64
774.701	111.88
774.88	115.53
775.059	114.47
775.238	114.41
775.417	117.48
775.595	120.81
775.774	111.26
775.953	110.54
776.131	105.78
776.31	106.06
776.489	106.83
776.667	108.49
776.846	103.54
777.025	104.42
777.203	102.79
777.382	99.47
777.56	98.74
777.739	103.96
777.917	104.06
778.096	110.13
778.274	109.24
778.453	108.72
778.631	110.58
778.81	113.09
778.988	114.81
779.166	114.36
779.345	116.34
779.523	121.96
779.702	122.01
779.88	122.71
780.058	120.17
780.237	121.87
780.415	122.48
780.593	118.72
780.771	116.33
780.95	117.81
781.128	117.94
781.306	118.91
781.484	110.55
781.662	112.76
781.841	109.98
782.019	106.06
782.197	105.3
782.375	106.17
782.553	107.3
782.731	108.79
782.909	106.77
783.087	112
783.265	116.2
783.443	119.83
783.621	116.42
783.799	119.97
783.977	128.83
784.155	128.22
784.333	128.23
784.511	127.75
784.689	135.43
784.867	138.05
785.045	135.29
785.223	125.89
785.4	128.48
785.578	126.96
785.756	123.65
785.934	121.65
786.112	123.53
786.289	119.28
786.467	120.36
786.645	111.9
786.823	109
787	108.52
787.178	111.46
787.356	109.77
787.533	110.51
787.711	109.09
787.889	105.2
788.066	100.63
788.244	102.06
788.421	103.13
788.599	109.2
788.776	112.34
788.954	110.7
789.131	109.47
789.309	106.41
789.486	108.95
789.664	115.95
789.841	122.11
790.019	123.93
790.196	129.73
790.373	125.08
790.551	120.32
790.728	126.94
790.906	127.14
791.083	132.27
791.26	140.08
791.437	136.13
791.615	132.71
791.792	132.93
791.969	135.56
792.146	132.96
792.324	132.7
792.501	138.47
792.678	129.95
792.855	135.25
793.032	130.04
793.209	126.72
793.387	128.07
793.564	127.61
793.741	126.77
793.918	127.43
794.095	123.52
794.272	125.18
794.449	120.69
794.626	122.87
794.803	115
794.98	115.56
795.157	115.06
795.334	112.29
795.511	111.91
795.688	107.97
795.864	108.02
796.041	110.17
796.218	112.86
796.395	111.21
796.572	109.59
796.749	114.92
796.925	115.37
797.102	114.4
797.279	118.9
797.456	121.62
797.632	130.1
797.809	131.22
797.986	133.69
798.162	132.52
798.339	140.83
798.516	143.51
798.692	139.63
798.869	147.63
799.046	155.77
799.222	144.19
799.399	141.84
799.575	141.95
799.752	143
799.928	138.99
800.105	133.77
800.281	131.05
800.458	133.48
800.634	130.8
800.811	130.72
800.987	132.38
801.163	138.54
801.34	140.29
801.516	133.38
801.692	130.52
801.869	128.06
802.045	129.75
802.221	126.22
802.398	125.56
802.574	125.24
802.75	122.66
802.926	125.91
803.103	129.36
803.279	125.35
803.455	127.72
803.631	135.42
803.807	146.4
803.983	159.25
804.16	162.22
804.336	160.7
804.512	159
804.688	166.1
804.864	164.27
805.04	156.78
805.216	156.14
805.392	158.65
805.568	155.05
805.744	144.12
805.92	134.67
806.096	136.79
806.272	140.61
806.448	147.57
806.623	144.95
806.799	142.99
806.975	145.81
807.151	151.72
807.327	155.08
807.503	154.59
807.678	161.58
807.854	168.85
808.03	165.38
808.206	164.14
808.381	157.44
808.557	147.88
808.733	147.21
808.908	144.7
809.084	140.31
809.26	137.16
809.435	139.43
809.611	138.49
809.787	124.68
809.962	132.78
810.138	139.54
810.313	147.85
810.489	152.38
810.664	151.54
810.84	140.75
811.015	139.26
811.191	146.86
811.366	143.12
811.542	152.62
811.717	166.6
811.892	164.74
812.068	162.32
812.243	165.33
812.419	161.43
812.594	163.06
812.769	173.89
812.944	182.76
813.12	170.89
813.295	171.74
813.47	157.2
813.645	154.48
813.821	152.19
813.996	156.92
814.171	157.68
814.346	167.01
814.521	163.05
814.697	167.03
814.872	158.45
815.047	159.15
815.222	157.06
815.397	160.78
815.572	162.22
815.747	159.2
815.922	148.42
816.097	140.93
816.272	136.28
816.447	129.14
816.622	127.28
816.797	130.15
816.972	131.34
817.147	129.98
817.322	131.88
817.496	127.69
817.671	125.1
817.846	129.21
818.021	129.78
818.196	132.28
818.371	140.89
818.545	143.26
818.72	138.08
818.895	133.65
819.069	132.25
819.244	129.01
819.419	132.34
819.594	124.99
819.768	111.68
819.943	104.47
820.117	98.72
820.292	91.56
820.467	88.49
820.641	86.69
820.816	82.56
820.99	78
821.165	74.16
821.339	70.26
821.514	69.22
821.688	68.96
821.863	68.91
822.037	67.33
822.212	66.75
822.386	65.8
822.56	64.2
822.735	64.98
822.909	65.76
823.084	66.42
823.258	67.46
823.432	68.4
823.606	69.32
823.781	69.53
823.955	71.8
824.129	73.15
824.303	74.25
824.478	77.19
824.652	77.94
824.826	77.87
825	79.94
825.174	80.35
825.348	80.57
825.523	79.19
825.697	79.5
825.871	78.91
826.045	77.65
826.219	77.83
826.393	77.62
826.567	76.52
826.741	79.69
826.915	78.68
827.089	79.87
827.263	81.65
827.437	84.78
827.611	85.17
827.784	86.96
827.958	90.64
828.132	91.73
828.306	91.91
828.48	94.31
828.654	91.82
828.827	91.93
829.001	94.77
829.175	93.98
829.349	96.11
829.522	100.15
829.696	99.54
829.87	97.53
830.044	101.26
830.217	107.21
830.391	115.29
830.565	123.52
830.738	131.92
830.912	130.59
831.085	132.43
831.259	127.33
831.432	129.66
831.606	137.77
831.779	138.72
831.953	131.07
832.126	122.76
832.3	116.9
832.473	110.2
832.647	108.81
832.82	101.71
832.994	105.74
833.167	101.86
833.34	98.87
833.514	94.61
833.687	93.37
833.86	91.78
834.034	95.79
834.207	93.59
834.38	96.69
834.553	94.92
834.727	97.48
834.9	96.05
835.073	104.11
835.246	107.02
835.419	110.26
835.593	117.15
835.766	122.25
835.939	121.87
836.112	132.78
836.285	132.6
836.458	139.08
836.631	139.66
836.804	144.06
836.977	142.99
837.15	143.22
837.323	147.71
837.496	150.9
837.669	164.67
837.842	174.44
838.015	167.45
838.188	167.84
838.361	169.73
838.533	170.33
838.706	173.61
838.879	173.36
839.052	185.26
839.225	195.38
839.398	188.61
839.57	172.15
839.743	172.83
839.916	171.09
840.088	160.76
840.261	158.99
840.434	175.51
840.607	167.98
840.779	183.55
840.952	170.19
841.124	162.41
841.297	174.65
841.47	185.99
841.642	189.3
841.815	196.07
841.987	235.38
842.16	242.82
842.332	253.95
842.505	270.89
842.677	255.76
842.85	295.8
843.022	294.96
843.194	313.49
843.367	319.78
843.539	292.65
843.712	256.98
843.884	228.93
844.056	231.62
844.229	212.71
844.401	222.18
844.573	211.91
844.745	218.32
844.918	222.38
845.09	203.38
845.262	220.9
845.434	231.58
845.606	262.11
845.779	251.97
845.951	272.5
846.123	239.69
846.295	243.6
846.467	268.1
846.639	258.63
846.811	276.14
846.983	264.48
847.155	271.69
847.327	251.49
847.499	269.6
847.671	347.21
847.843	343.34
848.015	512.52
848.187	438.63
848.359	424.31
848.531	421.07
848.703	380.75
848.875	497.14
849.047	452.23
849.218	592.26
849.39	548.97
849.562	447
849.734	407.28
849.905	325.45
850.077	404.57
850.249	547.86
850.421	649.38
850.592	610.19
850.764	531.52
850.936	490
851.107	535.13
851.279	635.63
851.451	483.97
851.622	412.7
851.794	360.15
851.965	316.52
852.137	287.19
852.308	279.05
852.48	283.42
852.651	271.28
852.823	266.83
852.994	250.64
853.166	220.4
853.337	238.47
853.509	274.28
853.68	368.39
853.851	350.87
854.023	416.82
854.194	407.78
854.365	461.72
854.537	454.64
854.708	696.02
854.879	1200.51
855.05	1127.19
855.222	947.43
855.393	624.19
855.564	683.95
855.735	600.46
855.906	458.6
856.078	493.93
856.249	554.2
856.42	546.7
856.591	470.46
856.762	447.53
856.933	558.29
857.104	641.67
857.275	701.72
857.446	427.5
857.617	442.92
857.788	450.66
857.959	381.06
858.13	333.91
858.301	373.58
858.472	406.32
858.643	432.12
858.814	476.95
858.985	436.61
859.155	446.76
859.326	611.29
859.497	624.88
859.668	585.09
859.839	1001.11
860.009	665.9
860.18	456.77
860.351	391.02
860.522	354.22
860.692	284.06
860.863	308.6
861.034	301.56
861.204	262.16
861.375	269.61
861.546	268.58
861.716	251.65
861.887	271.98
862.057	353.55
862.228	298.02
862.398	321.59
862.569	305.59
862.739	311.65
862.91	290.67
863.08	370.22
863.251	362
863.421	362.2
863.592	329.94
863.762	362.1
863.932	283.94
864.103	382.32
864.273	314.69
864.443	366.51
864.614	307.43
864.784	341.98
864.954	332.43
865.125	350.59
865.295	376.2
865.465	397.8
865.635	450.31
865.805	454.88
865.976	426.37
866.146	490.36
866.316	581.89
866.486	879.62
866.656	587.57
866.826	591.39
866.996	543.93
867.166	509.9
867.336	472.52
867.506	357.66
867.676	369.38
867.846	347.57
868.016	364.81
868.186	326.32
868.356	303.73
868.526	360.8
868.696	387.76
868.866	421.56
869.036	424.97
869.206	398.65
869.376	476.09
869.545	438.9
869.715	490.62
869.885	528.71
870.055	567.94
870.224	637.63
870.394	926.47
870.564	664.84
870.734	670.76
870.903	606.54
871.073	747.15
871.243	575.42
871.412	614.05
871.582	503.93
871.751	468.17
871.921	467.55
872.091	422.96
872.26	357.4
872.43	284.58
872.599	292.27
872.769	312.41
872.938	296.28
873.108	404.24
873.277	453.52
873.446	549.24
873.616	496.95
873.785	558.57
873.955	718.09
874.124	543.73
874.293	1482.05
874.463	1683.23
874.632	2143.18
874.801	2408.4
874.971	753.83
875.14	718.98
875.309	495.6
875.478	455.65
875.647	413.82
875.817	349.55
875.986	394.7
876.155	385.37
876.324	394.79
876.493	364.35
876.662	328.89
876.831	368.89
877	337.09
877.17	390.5
877.339	491.28
877.508	365.53
877.677	390.6
877.846	439.56
878.015	373.63
878.184	307.89
878.352	300.2
878.521	312.78
878.69	316.77
878.859	300.67
879.028	316.21
879.197	278.93
879.366	327.62
879.534	302.46
879.703	267.05
879.872	259.28
880.041	267.01
880.21	238.33
880.378	220.59
880.547	197.85
880.716	187.26
880.884	164.94
881.053	153.82
881.222	139.07
881.39	129.58
881.559	117.97
881.727	109.99
881.896	105.73
882.065	101.47
882.233	97.67
882.402	97.41
882.57	93.71
882.739	91.1
882.907	90.63
883.076	93.88
883.244	96.5
883.412	99.74
883.581	97.79
883.749	102.37
883.918	105.63
884.086	110.38
884.254	110.08
884.423	118.13
884.591	129.02
884.759	134.6
884.927	129.2
885.096	127.95
885.264	139.62
885.432	153.58
885.6	148.96
885.769	160.38
885.937	169.33
886.105	178.84
886.273	174.63
886.441	178.96
886.609	190.32
886.777	207.47
886.945	245.56
887.113	231.4
887.281	261.77
887.449	279.7
887.617	265.6
887.785	297.82
887.953	299.4
888.121	298.44
888.289	314.56
888.457	383.07
888.625	491.21
888.793	373.56
888.961	418.65
889.129	305.55
889.296	308.5
889.464	341.76
889.632	281.1
889.8	310.08
889.967	342.23
890.135	355.63
