Data from JASIL_3051_Reflection_01.txt Node
Date: Mon Nov 09 11:20:08 EST 2015
User: Geneva
Spectrometer: USB4E03002
Autoset integration time: false
Trigger mode: 4
Integration Time (sec): 1.000000E-1
Scans to average: 10
Electric dark correction enabled: false
Nonlinearity correction enabled: false
Boxcar width: 5
Stray light correction enabled: false
XAxis mode: Wavelengths
Stop averaging: false
Number of Pixels in Spectrum: 3648
>>>>>Begin Spectral Data<<<<<
177.575	181.06
177.794	2522.22
178.014	-32000
178.233	-566.04
178.452	-476.62
178.672	-2523.53
178.891	1286.11
179.11	610.96
179.33	840.62
179.549	-3692.31
179.768	-2006.25
179.987	-256.1
180.207	-7214.29
180.426	1432.35
180.645	397.13
180.864	469.66
181.084	529.41
181.303	-77100
181.522	-751.92
181.741	-875
181.96	-407.41
182.179	-139.53
182.398	-257.72
182.618	-175.74
182.837	-160.31
183.056	-83.51
183.275	-88.17
183.494	-70.14
183.713	-80.46
183.932	-52.33
184.151	-65.56
184.37	-100
184.589	840.68
184.808	329.09
185.027	368.54
185.246	520.22
185.465	535.51
185.684	-505.88
185.903	-528.79
186.122	-69.64
186.341	-191.37
186.56	-114.75
186.779	-108.47
186.998	-43.65
187.216	-36.5
187.435	-35.68
187.654	-22.45
187.873	-37.05
188.092	-68.41
188.311	-63.83
188.53	-138.99
188.748	-84.04
188.967	-66.25
189.186	-70.48
189.405	-45.29
189.623	-185.08
189.842	-53.51
190.061	-27.61
190.28	8.89
190.498	-2.87
190.717	-19.42
190.936	14
191.154	39.77
191.373	300
191.592	1800
191.81	-345
192.029	-278.85
192.248	395.6
192.466	997.56
192.685	-1061.36
192.904	3347.37
193.122	1109.09
193.341	1196.61
193.559	-3252.63
193.778	-915.79
193.996	-12140
194.215	428.28
194.433	2738.1
194.652	1390.48
194.87	377.11
195.089	235.63
195.307	303.23
195.526	4000
195.744	410.23
195.963	-13125
196.181	-646.84
196.399	-360.9
196.618	-436.36
196.836	-272.88
197.055	-207.14
197.273	-300.99
197.491	-315.14
197.71	-296.22
197.928	-415.18
198.146	-278.77
198.365	-138.33
198.583	-210.22
198.801	-584.48
199.019	-142.16
199.238	-110.13
199.456	-71.01
199.674	-88.81
199.892	-96.57
200.111	-391.07
200.329	-37.77
200.547	72.34
200.765	90
200.983	35.06
201.202	329.17
201.42	-245.28
201.638	-10.94
201.856	1.62
202.074	6.62
202.292	17.03
202.51	52.82
202.728	89.94
202.946	165.66
203.165	140.88
203.383	327.5
203.601	485.71
203.819	407.14
204.037	309.13
204.255	258.21
204.473	754.22
204.691	1634.15
204.909	-2321.88
205.127	1277.59
205.345	823.53
205.562	520.15
205.78	2307.41
205.998	-2915.79
206.216	-1141.46
206.434	-230.16
206.652	-326.05
206.87	-223.75
207.088	-170.83
207.306	-791.67
207.523	-32.39
207.741	-12.33
207.959	-20.47
208.177	-48.31
208.395	-2123.08
208.612	166.4
208.83	139.44
209.048	99.14
209.266	114.29
209.483	101.64
209.701	19.12
209.919	10.74
210.136	-36.36
210.354	-96.2
210.572	-151.43
210.79	-84.21
211.007	-23.58
211.225	121.98
211.442	-18.63
211.66	-9.45
211.878	5.99
212.095	376.58
212.313	1093.15
212.53	622.44
212.748	726.47
212.966	1050
213.183	-757.48
213.401	2818.92
213.618	-843.38
213.836	-348.55
214.053	-266.67
214.271	-311.78
214.488	-199.06
214.705	-421.9
214.923	-355.7
215.14	-164.67
215.358	-83.83
215.575	-53.76
215.793	-53.47
216.01	-18.83
216.227	-23.7
216.445	-87.77
216.662	-230.05
216.879	-400.81
217.097	-352.35
217.314	-286.78
217.531	792
217.749	466.67
217.966	177.44
218.183	231.05
218.4	833.8
218.618	-20733.33
218.835	-518.99
219.052	-620.83
219.269	-457.38
219.487	-59.49
219.704	-201.94
219.921	-250.89
220.138	306.02
220.355	-4150
220.572	-6500
220.79	-260.24
221.007	252.24
221.224	218.25
221.441	610.67
221.658	695.65
221.875	209.29
222.092	358.86
222.309	265.95
222.526	6811.11
222.743	1500
222.96	-280.43
223.177	2387.5
223.394	1611.54
223.611	-251.16
223.828	-105.62
224.045	82.11
224.262	-11.25
224.479	205.66
224.696	-642.11
224.913	32.93
225.13	14.94
225.347	52.81
225.564	61.79
225.781	41.01
225.997	46.33
226.214	33.98
226.431	31.23
226.648	17.05
226.865	7.71
227.082	-5.73
227.298	-2.81
227.515	4.69
227.732	-2.48
227.949	0.35
228.165	10.93
228.382	8.7
228.599	11.2
228.816	18.59
229.032	27.13
229.249	26.73
229.466	32.87
229.682	31.25
229.899	29.89
230.116	29.78
230.332	18.35
230.549	-12
230.765	14.18
230.982	8.71
231.199	-3.64
231.415	-11.5
231.632	-20
231.848	14.86
232.065	38.66
232.281	31.47
232.498	44.15
232.714	62.71
232.931	69.87
233.147	53.48
233.364	61.2
233.58	55.64
233.797	53.15
234.013	46.58
234.23	27.72
234.446	32.8
234.662	35.99
234.879	29.01
235.095	24.39
235.312	25.26
235.528	29.18
235.744	26.32
235.961	9.1
236.177	-8.62
236.393	-3.74
236.61	17.04
236.826	19.96
237.042	23.45
237.258	31.36
237.475	31.25
237.691	27.91
237.907	24.42
238.123	13.3
238.339	43.02
238.556	41.9
238.772	39.93
238.988	32.07
239.204	17.07
239.42	22.23
239.636	14.07
239.853	20.04
240.069	13.65
240.285	15.56
240.501	17.96
240.717	13.01
240.933	8.02
241.149	7.21
241.365	8.87
241.581	12.03
241.797	9.51
242.013	8.06
242.229	5.41
242.445	13.52
242.661	13
242.877	14.55
243.093	14.69
243.309	20.11
243.525	21.37
243.741	24.12
243.957	23.43
244.173	22.49
244.388	25.13
244.604	21.73
244.82	16.4
245.036	14.67
245.252	11.17
245.468	11.18
245.683	10.6
245.899	10.66
246.115	8.65
246.331	8.16
246.547	8.1
246.762	7.62
246.978	7.19
247.194	8.14
247.409	11.54
247.625	13.97
247.841	12.86
248.057	9.17
248.272	8.47
248.488	8.66
248.703	7.24
248.919	2.02
249.135	0.53
249.35	-0.35
249.566	5.44
249.782	-6.84
249.997	-1.46
250.213	2.92
250.428	11.55
250.644	12.92
250.859	11.84
251.075	13.14
251.29	16.68
251.506	14.78
251.721	16.91
251.937	9.96
252.152	13.01
252.368	7.96
252.583	4.41
252.798	0.69
253.014	6.73
253.229	21.66
253.445	27.22
253.66	33.92
253.875	37.88
254.091	35.66
254.306	31.07
254.521	27.97
254.737	23.58
254.952	26.47
255.167	24.9
255.383	14.5
255.598	3.5
255.813	-3.77
256.028	-4.97
256.244	2.86
256.459	6.61
256.674	14.33
256.889	18.69
257.104	16.62
257.32	14.68
257.535	16.89
257.75	17.18
257.965	17.83
258.18	18.56
258.395	18.35
258.61	16.65
258.826	16.66
259.041	15.2
259.256	13.56
259.471	15.23
259.686	14.94
259.901	15.67
260.116	14.53
260.331	13.77
260.546	12.15
260.761	9.41
260.976	9.2
261.191	4.94
261.406	7.07
261.621	8.67
261.836	3.26
262.05	5.83
262.265	0.24
262.48	5.52
262.695	6.66
262.91	5.11
263.125	9.69
263.34	4
263.555	6.94
263.769	0.07
263.984	0.04
264.199	2.7
264.414	-1.28
264.629	-2.57
264.843	-0.59
265.058	1.25
265.273	7.86
265.488	6.91
265.702	9.19
265.917	8.57
266.132	13.02
266.346	9.63
266.561	10.13
266.776	13.67
266.99	15.44
267.205	12.27
267.42	6.86
267.634	1.66
267.849	-2.11
268.063	-1.28
268.278	-2.09
268.492	-1.74
268.707	1.73
268.922	6.11
269.136	1.85
269.351	1
269.565	0.82
269.78	2.92
269.994	1.61
270.209	7.41
270.423	3.93
270.637	3.29
270.852	-0.85
271.066	-2.79
271.281	-2.81
271.495	-1.23
271.709	-1.05
271.924	0.58
272.138	1.5
272.353	2.54
272.567	-1.36
272.781	4.06
272.996	7.72
273.21	8.56
273.424	15.09
273.638	11.88
273.853	8.49
274.067	11.49
274.281	14.04
274.495	13.08
274.71	15.17
274.924	18.89
275.138	11.77
275.352	11.32
275.566	15.75
275.781	9.32
275.995	12.42
276.209	14.1
276.423	11.97
276.637	10.4
276.851	11.2
277.065	12.46
277.279	10.6
277.493	15.01
277.707	11.92
277.921	6.88
278.135	4.38
278.349	2.92
278.563	3.51
278.777	3.55
278.991	2.71
279.205	0.95
279.419	-3.13
279.633	-3.85
279.847	-4.53
280.061	-1.16
280.275	2.85
280.489	8.02
280.703	8.24
280.917	11.08
281.131	12.58
281.344	10.23
281.558	11.51
281.772	13.4
281.986	14.69
282.2	18.29
282.414	16.13
282.627	15.47
282.841	13.39
283.055	11.73
283.269	11.29
283.482	8.64
283.696	7.91
283.91	8.25
284.123	6.76
284.337	5.17
284.551	5.55
284.764	4.48
284.978	3.45
285.192	4.56
285.405	4.75
285.619	2.82
285.833	2.88
286.046	5.16
286.26	3.82
286.473	2.58
286.687	3.69
286.9	-2.14
287.114	0.45
287.327	-0.75
287.541	-1.15
287.754	-2.98
287.968	-0.46
288.181	0.34
288.395	1.74
288.608	2.56
288.822	5.04
289.035	5.58
289.248	7.78
289.462	7.91
289.675	8.04
289.889	8.34
290.102	9.1
290.315	9.24
290.529	11.13
290.742	9.53
290.955	9.76
291.169	7.16
291.382	7.69
291.595	6.94
291.808	7.1
292.022	7.99
292.235	5.09
292.448	7.65
292.661	6.2
292.875	3.59
293.088	3.96
293.301	3.2
293.514	5.77
293.727	5.5
293.94	7.59
294.153	5.97
294.367	7.95
294.58	10
294.793	7.56
295.006	5.69
295.219	5.98
295.432	5.31
295.645	4.09
295.858	3.93
296.071	2.62
296.284	4.17
296.497	3.23
296.71	0.8
296.923	1.94
297.136	0.92
297.349	3.24
297.562	2.43
297.775	2.96
297.988	5.68
298.201	4.65
298.414	3.11
298.626	-3.21
298.839	-0.46
299.052	3.14
299.265	0.58
299.478	3.24
299.691	2.51
299.903	4.13
300.116	6.14
300.329	3.95
300.542	4.81
300.755	6.33
300.967	8.46
301.18	8.61
301.393	5.42
301.605	3.68
301.818	4.74
302.031	2.3
302.243	4.95
302.456	1.82
302.669	3.52
302.881	5.24
303.094	7.22
303.307	8.24
303.519	7.07
303.732	7.92
303.944	7.94
304.157	6.06
304.37	6.06
304.582	4.97
304.795	5.79
305.007	7.15
305.22	5.74
305.432	3
305.645	3.97
305.857	2.06
306.069	0.43
306.282	3.46
306.494	5.13
306.707	6.05
306.919	2.21
307.132	0.95
307.344	0.95
307.556	2.11
307.769	3.33
307.981	1.45
308.193	1.88
308.406	2.06
308.618	1.29
308.83	0.48
309.043	-0.57
309.255	2.54
309.467	5.15
309.679	2.1
309.892	-0.06
310.104	-1.62
310.316	-2.4
310.528	0.26
310.74	2.71
310.953	1.99
311.165	2.35
311.377	4.26
311.589	2.18
311.801	0.41
312.013	-0.48
312.225	0.11
312.437	1.68
312.649	2.94
312.862	-0.91
313.074	-3.82
313.286	-1.95
313.498	0.64
313.71	6.38
313.922	7
314.134	5.29
314.346	6.58
314.558	7.07
314.77	5.49
314.982	5.18
315.193	8.4
315.405	10.32
315.617	10.23
315.829	10.31
316.041	4.65
316.253	6.36
316.465	7.77
316.677	11.11
316.888	11.9
317.1	13.89
317.312	15.78
317.524	15.55
317.736	14.51
317.947	12
318.159	11.65
318.371	11.67
318.583	10.87
318.794	9.93
319.006	6
319.218	7.14
319.43	4.88
319.641	2.77
319.853	0.3
320.064	-1.91
320.276	-2.45
320.488	-5.31
320.699	-2.96
320.911	-3.81
321.123	-2
321.334	-2.89
321.546	-4.43
321.757	-4.16
321.969	-4.1
322.18	-2.19
322.392	2.27
322.603	3.5
322.815	5.39
323.026	3.92
323.238	4.51
323.449	7.26
323.661	11.73
323.872	10.81
324.083	13.52
324.295	12.89
324.506	16.22
324.718	15.01
324.929	15.3
325.14	14.48
325.352	15.31
325.563	13.68
325.774	11.18
325.986	8.94
326.197	8.89
326.408	6.41
326.62	7.3
326.831	3.96
327.042	3.51
327.253	1.95
327.464	2.89
327.676	1.02
327.887	1.93
328.098	1.07
328.309	-1.27
328.52	0.85
328.732	2.75
328.943	4.83
329.154	4.44
329.365	3.62
329.576	4.24
329.787	3.2
329.998	4.09
330.209	5.8
330.42	5.62
330.631	4.02
330.842	4.39
331.053	4.28
331.264	1.94
331.475	0.94
331.686	4.13
331.897	8.92
332.108	7.83
332.319	7.77
332.53	6.97
332.741	7.15
332.952	11.98
333.163	13.01
333.374	12.14
333.585	13.05
333.795	14.5
334.006	12.93
334.217	10.38
334.428	12.88
334.639	15.08
334.849	15.36
335.06	16.54
335.271	12.92
335.482	8.87
335.692	10.29
335.903	9.1
336.114	7.53
336.325	8.36
336.535	7.86
336.746	7.07
336.957	5.86
337.167	4.46
337.378	5.78
337.589	8.68
337.799	10.96
338.01	9.59
338.22	7.52
338.431	6.57
338.642	5.13
338.852	6.09
339.063	8.09
339.273	5.76
339.484	6.99
339.694	7.64
339.905	7.86
340.115	8.94
340.326	9.85
340.536	14.29
340.746	15.15
340.957	16.14
341.167	17.84
341.378	15.17
341.588	16.99
341.799	16.27
342.009	15.12
342.219	16.12
342.43	15.05
342.64	13.63
342.85	10.98
343.061	10.03
343.271	11.33
343.481	10.37
343.691	9.63
343.902	8.13
344.112	7.97
344.322	7.83
344.532	5.64
344.743	5.81
344.953	6.3
345.163	6.57
345.373	8.9
345.583	7.59
345.793	5.19
346.004	4.02
346.214	4.75
346.424	1.87
346.634	0.58
346.844	4.45
347.054	2.77
347.264	3.72
347.474	6.35
347.684	5.97
347.894	6.31
348.104	7.95
348.314	8.59
348.524	8.28
348.734	11.96
348.944	11.87
349.154	11.65
349.364	11.92
349.574	12.63
349.784	11.77
349.994	13.11
350.204	11.27
350.413	9
350.623	8.28
350.833	7.35
351.043	4.7
351.253	7.44
351.463	6.3
351.672	6.98
351.882	5.34
352.092	2.75
352.302	0.54
352.511	0.44
352.721	0.5
352.931	2.49
353.141	5.24
353.35	3.66
353.56	2.01
353.77	0.44
353.979	2.46
354.189	2.18
354.399	2.18
354.608	3.96
354.818	4.39
355.027	5.08
355.237	5.57
355.447	4.38
355.656	6.18
355.866	7.21
356.075	9.12
356.285	8.55
356.494	9.33
356.704	10.25
356.913	10.36
357.123	10.8
357.332	11.4
357.542	11.23
357.751	11.87
357.96	13.15
358.17	10.8
358.379	8.88
358.589	6.88
358.798	4.39
359.007	5.56
359.217	5.36
359.426	4.99
359.635	6.26
359.845	5.07
360.054	5.53
360.263	5.65
360.472	6.93
360.682	7.99
360.891	8.63
361.1	10.59
361.309	11.8
361.519	11.48
361.728	12.41
361.937	11.76
362.146	13.01
362.355	10.43
362.564	10.76
362.774	11.75
362.983	11.36
363.192	11.84
363.401	11.23
363.61	8.93
363.819	8.54
364.028	7.76
364.237	7.27
364.446	6.48
364.655	8.42
364.864	8.29
365.073	6.52
365.282	6.65
365.491	5.03
365.7	4.92
365.909	4.95
366.118	5.49
366.327	4.88
366.536	4.99
366.745	5.71
366.954	4.75
367.162	4.75
367.371	6.18
367.58	6.07
367.789	6.94
367.998	7.45
368.207	7.18
368.415	6.39
368.624	8.29
368.833	8.48
369.042	9.81
369.25	11.8
369.459	10.23
369.668	11.37
369.877	10.55
370.085	11.19
370.294	11.12
370.503	10.72
370.711	10.09
370.92	8.71
371.129	9.87
371.337	7.68
371.546	6.26
371.754	9.07
371.963	7.56
372.171	7.77
372.38	6.93
372.589	6.41
372.797	8.22
373.006	10.29
373.214	9.19
373.423	8.81
373.631	10.54
373.84	8.96
374.048	5.95
374.256	6.8
374.465	5.7
374.673	5.72
374.882	6
375.09	5.4
375.298	4.71
375.507	6.42
375.715	6.66
375.923	5.76
376.132	7.99
376.34	9.29
376.548	8.53
376.757	11.01
376.965	11.11
377.173	11.38
377.381	10.81
377.59	11.87
377.798	11.2
378.006	8.76
378.214	8.24
378.423	6.85
378.631	5.47
378.839	5.28
379.047	4.68
379.255	5.92
379.463	6.39
379.671	6.36
379.879	5.24
380.088	5.86
380.296	7.28
380.504	7.84
380.712	8.3
380.92	8.48
381.128	9.24
381.336	9.02
381.544	8.32
381.752	8.58
381.96	10.55
382.168	11.13
382.376	12.31
382.584	12.42
382.791	12.01
382.999	11.7
383.207	10.68
383.415	8.99
383.623	7.53
383.831	6.9
384.039	6.22
384.247	4.1
384.454	4.16
384.662	1.78
384.87	0.25
385.078	0.69
385.285	0.67
385.493	3.17
385.701	5.58
385.909	6.38
386.116	6.74
386.324	6.61
386.532	7.13
386.739	6.59
386.947	8.51
387.155	9.52
387.362	10.25
387.57	11.42
387.778	11.46
387.985	10.23
388.193	10.44
388.4	9.61
388.608	9.47
388.816	7.39
389.023	6.16
389.231	4.42
389.438	4.44
389.646	3.26
389.853	1.9
390.061	0.83
390.268	1.12
390.475	1.61
390.683	2.25
390.89	2.36
391.098	3.84
391.305	3.38
391.512	3.34
391.72	4.65
391.927	4.25
392.135	5.55
392.342	5.57
392.549	4.6
392.756	4.03
392.964	4.26
393.171	3.53
393.378	2.63
393.586	2.71
393.793	4.06
394	4.44
394.207	4.71
394.414	3.68
394.622	4.41
394.829	5.44
395.036	5.67
395.243	6.31
395.45	6.96
395.657	7.48
395.864	7.54
396.072	6.33
396.279	4.75
396.486	4.49
396.693	5.3
396.9	5.6
397.107	4.71
397.314	4.28
397.521	4.6
397.728	4.94
397.935	5.06
398.142	6.46
398.349	8.35
398.556	9
398.763	9.66
398.97	10.36
399.177	9.65
399.383	8.89
399.59	9
399.797	7.29
400.004	8.08
400.211	8.22
400.418	8.13
400.625	8.35
400.831	8.53
401.038	9.24
401.245	7.43
401.452	7.44
401.658	8.19
401.865	7.33
402.072	7.62
402.279	7.6
402.485	8.39
402.692	7.42
402.899	6.11
403.105	5.22
403.312	3.72
403.519	4.8
403.725	4.08
403.932	4.28
404.138	4.95
404.345	4.75
404.552	3.66
404.758	2.72
404.965	4.59
405.171	4.06
405.378	2.93
405.584	3.49
405.791	3.09
405.997	4.37
406.204	4.07
406.41	4.18
406.617	4.28
406.823	5.11
407.029	4.78
407.236	4.48
407.442	5.48
407.649	7.45
407.855	7.34
408.061	7.09
408.268	5.87
408.474	6.25
408.68	7.12
408.887	7.09
409.093	6.57
409.299	7.03
409.505	6.3
409.712	6.37
409.918	5.61
410.124	6.52
410.33	6.43
410.537	7.21
410.743	7.31
410.949	6.89
411.155	6.37
411.361	6.02
411.567	6.2
411.773	5.98
411.98	5.42
412.186	5.65
412.392	5.58
412.598	6.14
412.804	6
413.01	5.87
413.216	4.6
413.422	5.07
413.628	6.21
413.834	6.83
414.04	7.07
414.246	6.75
414.452	6.19
414.658	6.07
414.864	6.21
415.07	6.35
415.275	6.95
415.481	7.56
415.687	7.91
415.893	6.31
416.099	6.05
416.305	5.68
416.511	5.71
416.716	6.46
416.922	6.98
417.128	6.4
417.334	6.52
417.539	5.95
417.745	5.65
417.951	5.36
418.157	5.9
418.362	6.1
418.568	6.64
418.774	6.65
418.979	6.52
419.185	5.39
419.391	5.53
419.596	5.6
419.802	6.33
420.008	6.98
420.213	3.13
420.419	3.47
420.624	3.13
420.83	2.82
421.035	3.45
421.241	2.85
421.446	3.46
421.652	3.3
421.857	2.92
422.063	2.01
422.268	1.75
422.474	5.68
422.679	5.26
422.885	5.13
423.09	5
423.295	4.63
423.501	5.17
423.706	5.09
423.911	5.26
424.117	5.56
424.322	5.75
424.527	6.16
424.733	6.19
424.938	6.49
425.143	7.16
425.349	7.35
425.554	7.16
425.759	7.22
425.964	7.15
426.169	7.41
426.375	7.74
426.58	8.37
426.785	7.55
426.99	8.1
427.195	7.66
427.4	6.62
427.605	7.13
427.811	7.41
428.016	6.14
428.221	6.24
428.426	6.28
428.631	5.65
428.836	5.03
429.041	4.45
429.246	4.47
429.451	5.26
429.656	5.61
429.861	5.55
430.066	5.99
430.271	7.07
430.476	7.26
430.681	6.41
430.886	6.28
431.09	6.58
431.295	7.4
431.5	7.01
431.705	6.84
431.91	6.77
432.115	5.75
432.32	5.5
432.524	5.31
432.729	4.86
432.934	5.25
433.139	5.67
433.343	5.31
433.548	4.96
433.753	4.81
433.958	4.86
434.162	5.38
434.367	5.83
434.572	5.31
434.776	5.49
434.981	5.55
435.186	5.52
435.39	5.19
435.595	5.82
435.799	6.82
436.004	7.03
436.209	6.79
436.413	6.62
436.618	7.35
436.822	8.05
437.027	8.04
437.231	7.67
437.436	7.06
437.64	6.95
437.845	6.31
438.049	5.38
438.253	5.12
438.458	5.23
438.662	4.66
438.867	3.95
439.071	3.67
439.275	4.04
439.48	4.35
439.684	4.26
439.888	4.46
440.093	5.4
440.297	5.75
440.501	6.3
440.706	5.67
440.91	5.67
441.114	5.83
441.318	5.46
441.523	4.43
441.727	4.17
441.931	4.4
442.135	4.1
442.339	3.21
442.543	3.19
442.748	2.64
442.952	3.18
443.156	3.27
443.36	2.9
443.564	3.15
443.768	3.33
443.972	3.58
444.176	4.35
444.38	4.39
444.584	4.71
444.788	3.97
444.992	4.28
445.196	4.56
445.4	4.76
445.604	5.15
445.808	4.97
446.012	4.93
446.216	4.84
446.42	4.68
446.624	4.85
446.828	4.36
447.032	5.47
447.235	5.14
447.439	5.01
447.643	5.61
447.847	6.13
448.051	5.77
448.254	6.64
448.458	7.33
448.662	7.16
448.866	7.26
449.069	7.52
449.273	7.14
449.477	7.75
449.681	7.55
449.884	6.3
450.088	5.43
450.292	6.69
450.495	5.87
450.699	5.05
450.902	5.56
451.106	5.87
451.31	5.88
451.513	6.22
451.717	5.45
451.92	4.98
452.124	5.28
452.327	5.5
452.531	4.92
452.734	5.55
452.938	6.13
453.141	5.86
453.345	5.79
453.548	5.33
453.752	4.71
453.955	4.78
454.158	5.31
454.362	5.92
454.565	6.38
454.769	6.81
454.972	6.8
455.175	6.64
455.379	6.32
455.582	6.55
455.785	6.68
455.988	6.12
456.192	6.57
456.395	6.58
456.598	6.37
456.801	6.44
457.005	6.69
457.208	6.89
457.411	6.9
457.614	6.83
457.817	6.43
458.021	6.7
458.224	6.91
458.427	6.89
458.63	6.56
458.833	6.38
459.036	6.05
459.239	5.65
459.442	5.11
459.645	5.41
459.848	5.56
460.051	5.35
460.254	5.64
460.457	5.99
460.66	6.07
460.863	6.18
461.066	6.52
461.269	6.58
461.472	6.84
461.675	6.94
461.878	6.68
462.081	6.3
462.284	6.57
462.486	5.75
462.689	5.82
462.892	5.57
463.095	5.55
463.298	5.35
463.5	5.97
463.703	5.98
463.906	6.58
464.109	6.27
464.311	6.45
464.514	7.12
464.717	7.75
464.92	7.58
465.122	7.5
465.325	8.38
465.528	7.99
465.73	7.51
465.933	6.61
466.135	6.03
466.338	5.56
466.541	5.32
466.743	4.52
466.946	4.7
467.148	4.59
467.351	5.02
467.553	4.2
467.756	4.5
467.958	4.55
468.161	5.56
468.363	5.18
468.566	5.96
468.768	6.29
468.971	5.78
469.173	5.08
469.375	5.11
469.578	4.77
469.78	5.35
469.983	6.04
470.185	5.09
470.387	4.9
470.59	5.76
470.792	4.99
470.994	4.95
471.196	6.17
471.399	6.28
471.601	6.28
471.803	6.14
472.005	5.97
472.208	5.8
472.41	6.46
472.612	6.4
472.814	6.1
473.016	6.97
473.218	7.33
473.421	6.69
473.623	6.12
473.825	6.53
474.027	6.61
474.229	6.77
474.431	5.66
474.633	6.31
474.835	6
475.037	6.91
475.239	6.32
475.441	5.99
475.643	5.69
475.845	6.47
476.047	6.41
476.249	6.88
476.451	7.2
476.653	7.62
476.855	6.34
477.057	6.37
477.258	5.84
477.46	6.42
477.662	6.78
477.864	7.46
478.066	7.8
478.268	7.1
478.469	6.86
478.671	6.57
478.873	6.93
479.075	7.83
479.276	7.43
479.478	7.36
479.68	6.88
479.882	6.62
480.083	6.16
480.285	5.53
480.487	6.03
480.688	5.95
480.89	5.69
481.091	5.65
481.293	5.25
481.495	5.62
481.696	5.52
481.898	5.55
482.099	5.38
482.301	5.46
482.502	5.68
482.704	5.59
482.905	5.53
483.107	5.56
483.308	5.59
483.51	5.72
483.711	5.7
483.913	5.76
484.114	5.81
484.315	5.86
484.517	5.79
484.718	5.92
484.92	5.75
485.121	5.73
485.322	5.61
485.524	5.6
485.725	5.38
485.926	5.59
486.127	5.43
486.329	5.32
486.53	5.36
486.731	5.59
486.932	5.34
487.134	5.49
487.335	5.46
487.536	5.7
487.737	5.64
487.938	5.77
488.139	5.59
488.341	5.68
488.542	5.97
488.743	6.14
488.944	5.96
489.145	6.14
489.346	5.98
489.547	6.15
489.748	6.08
489.949	6.17
490.15	6.11
490.351	6.08
490.552	5.86
490.753	5.74
490.954	5.65
491.155	5.52
491.356	5.22
491.557	5.47
491.758	5.64
491.959	5.59
492.159	5.44
492.36	5.61
492.561	5.76
492.762	6.05
492.963	5.58
493.164	5.72
493.364	5.72
493.565	5.95
493.766	5.47
493.967	5.06
494.167	4.92
494.368	5.1
494.569	5.17
494.769	5.23
494.97	5.46
495.171	6.21
495.371	6.45
495.572	6.15
495.773	6.03
495.973	6.16
496.174	6.43
496.375	6.15
496.575	5.72
496.776	5.82
496.976	6.04
497.177	5.74
497.377	5.54
497.578	5.71
497.778	6.19
497.979	6.47
498.179	6.58
498.38	6.21
498.58	6.87
498.78	7.19
498.981	7.21
499.181	6.45
499.382	6.76
499.582	7.01
499.782	6.49
499.983	6.87
500.183	6.68
500.383	6.5
500.584	6.28
500.784	5.79
500.984	5.83
501.184	5.65
501.385	5.96
501.585	6.68
501.785	6.47
501.985	6.41
502.185	6.45
502.386	6.67
502.586	6.52
502.786	6.63
502.986	6.66
503.186	6.23
503.386	6.06
503.586	5.73
503.786	4.74
503.987	5.01
504.187	4.98
504.387	4.73
504.587	4.95
504.787	5.24
504.987	5.91
505.187	6.21
505.387	6.96
505.587	7.24
505.786	7.52
505.986	7.73
506.186	7.14
506.386	6.88
506.586	6.82
506.786	6.69
506.986	6.67
507.186	6.08
507.386	6.34
507.585	5.89
507.785	5.76
507.985	5.83
508.185	5.86
508.384	6.08
508.584	6.27
508.784	6.22
508.984	6.07
509.183	6.63
509.383	6.52
509.583	6.33
509.782	6.25
509.982	5.95
510.182	5.9
510.381	5.93
510.581	6.16
510.781	6.5
510.98	6.34
511.18	6.7
511.379	6.72
511.579	6.83
511.778	6.82
511.978	7.44
512.177	7.81
512.377	8.23
512.576	8.14
512.776	7.98
512.975	7.97
513.175	8.26
513.374	8.47
513.573	8.8
513.773	9.57
513.972	9.73
514.172	9.88
514.371	9.86
514.57	9.29
514.77	9.34
514.969	9.9
515.168	9.84
515.367	10.03
515.567	9.84
515.766	9.02
515.965	8.57
516.164	8.24
516.364	7.82
516.563	8.23
516.762	8.33
516.961	8.62
517.16	8.24
517.359	8.28
517.559	8.54
517.758	8.48
517.957	8.61
518.156	8.87
518.355	9.14
518.554	9.02
518.753	8.72
518.952	8.88
519.151	8.66
519.35	8.7
519.549	8.58
519.748	8.38
519.947	7.78
520.146	7.77
520.345	7.38
520.544	7.92
520.743	7.87
520.942	7.89
521.141	8.5
521.339	8.64
521.538	8.38
521.737	8.12
521.936	8.03
522.135	8.77
522.333	8.74
522.532	8.64
522.731	8.35
522.93	8.38
523.129	8.16
523.327	8.05
523.526	8.37
523.725	8.34
523.923	9.01
524.122	9.14
524.321	8.82
524.519	8.88
524.718	9.14
524.917	8.92
525.115	9.44
525.314	9.8
525.512	9.62
525.711	9.55
525.909	9.64
526.108	9.46
526.306	9.6
526.505	9.65
526.703	9.86
526.902	9.86
527.1	10.1
527.299	9.88
527.497	9.9
527.696	9.89
527.894	9.99
528.092	10.21
528.291	10.13
528.489	10.22
528.688	10.41
528.886	10.55
529.084	10.73
529.283	10.39
529.481	10.68
529.679	10.92
529.877	10.89
530.076	10.85
530.274	10.7
530.472	11.01
530.67	10.68
530.869	10.69
531.067	10.14
531.265	10.25
531.463	10.55
531.661	10.52
531.859	10.22
532.057	10.45
532.255	10.43
532.454	10.51
532.652	10.67
532.85	10.59
533.048	10.43
533.246	10.75
533.444	10.95
533.642	11.02
533.84	11.16
534.038	11.27
534.236	11.05
534.434	11.26
534.632	11.2
534.83	10.85
535.027	11.5
535.225	11.84
535.423	11.83
535.621	11.44
535.819	11.44
536.017	11.29
536.215	11.12
536.412	11.43
536.61	11
536.808	11.24
537.006	11.38
537.203	10.83
537.401	10.78
537.599	11.03
537.797	11.09
537.994	10.83
538.192	11.05
538.39	11.35
538.587	11.24
538.785	11.37
538.983	11.5
539.18	11.46
539.378	11.44
539.575	11.57
539.773	11.58
539.97	11.71
540.168	11.7
540.366	11.71
540.563	11.66
540.761	11.72
540.958	11.9
541.155	11.89
541.353	12.02
541.55	12.29
541.748	11.95
541.945	12.04
542.143	11.91
542.34	12.24
542.537	12.14
542.735	12.29
542.932	12.12
543.129	11.95
543.327	11.98
543.524	12.11
543.721	12.01
543.919	12.31
544.116	11.92
544.313	11.91
544.51	11.97
544.708	11.85
544.905	11.78
545.102	12.14
545.299	12.4
545.496	12.76
545.693	13.14
545.891	13.11
546.088	13.03
546.285	13.49
546.482	14.03
546.679	14.09
546.876	14.44
547.073	14.9
547.27	14.86
547.467	14.66
547.664	14.53
547.861	13.41
548.058	13.72
548.255	13.79
548.452	13.51
548.649	13.66
548.846	13.63
549.043	13.42
549.24	14.06
549.437	14.19
549.633	14.12
549.83	14.13
550.027	14.5
550.224	14.6
550.421	15.07
550.618	14.72
550.814	14.01
551.011	13.55
551.208	13.49
551.405	12.78
551.601	12.77
551.798	13.58
551.995	13.17
552.191	14.07
552.388	13.53
552.585	13.3
552.781	13.76
552.978	14.1
553.175	14.5
553.371	14.84
553.568	14.83
553.764	14.6
553.961	13.8
554.157	14.37
554.354	14.06
554.55	14.93
554.747	15.25
554.943	15.4
555.14	15.02
555.336	15.25
555.533	15.31
555.729	15.75
555.926	16.09
556.122	16.35
556.318	16.13
556.515	16.08
556.711	15.84
556.907	15.71
557.104	15.9
557.3	16.68
557.496	16.46
557.693	15.89
557.889	15.44
558.085	14.65
558.281	14.81
558.478	14.18
558.674	14.39
558.87	14.54
559.066	15.1
559.262	15.11
559.459	14.67
559.655	14.86
559.851	15.99
560.047	16.84
560.243	17.75
560.439	17.77
560.635	17.75
560.831	17.16
561.027	16.75
561.223	16.08
561.419	15.26
561.615	15.27
561.811	15.4
562.007	14.67
562.203	14.01
562.399	14.29
562.595	14.25
562.791	15.64
562.987	16.01
563.183	16.8
563.379	17.51
563.575	18.02
563.771	18.05
563.966	17.95
564.162	17.76
564.358	17.78
564.554	17.49
564.75	17.49
564.945	17.33
565.141	16.81
565.337	15.97
565.533	15.11
565.728	15.12
565.924	15.23
566.12	15.3
566.315	16.22
566.511	15.7
566.707	15.71
566.902	15.5
567.098	14.79
567.293	15.17
567.489	15.24
567.684	15.35
567.88	15.52
568.076	15.1
568.271	15.32
568.467	14.18
568.662	15.1
568.858	15.38
569.053	15.48
569.248	15.75
569.444	15.6
569.639	16.13
569.835	15.85
570.03	15.82
570.225	16.32
570.421	15.58
570.616	15.94
570.812	16.03
571.007	16.17
571.202	15.84
571.397	15.38
571.593	15.97
571.788	15.85
571.983	16.01
572.178	15.91
572.374	15.95
572.569	16.57
572.764	16.89
572.959	16.5
573.154	16.71
573.35	17.67
573.545	18.04
573.74	17.85
573.935	17.84
574.13	18.46
574.325	18.56
574.52	18.35
574.715	18.37
574.91	18.96
575.105	18.75
575.3	18.63
575.495	19
575.69	19.67
575.885	19.72
576.08	19.68
576.275	19.58
576.47	19.47
576.665	19.59
576.86	19.64
577.055	19.26
577.25	19.7
577.444	19.82
577.639	19.4
577.834	18.98
578.029	18.81
578.224	18.56
578.418	18
578.613	18.4
578.808	19.16
579.003	18.7
579.197	17.82
579.392	17.36
579.587	17.02
579.781	16.79
579.976	17.05
580.171	17.16
580.365	18.46
580.56	19.38
580.755	19.6
580.949	18.58
581.144	18.52
581.338	18.73
581.533	19.07
581.727	19.05
581.922	18.96
582.116	18.17
582.311	18.47
582.505	17.17
582.7	17.13
582.894	17.59
583.089	17.86
583.283	19.69
583.478	19.89
583.672	19.5
583.866	19.52
584.061	19.62
584.255	19.1
584.449	19.01
584.644	18.92
584.838	18.5
585.032	18.11
585.226	17.8
585.421	17.17
585.615	17.1
585.809	17.91
586.003	17.21
586.198	17.42
586.392	17.87
586.586	18.09
586.78	17.84
586.974	18.07
587.168	17.85
587.363	18.27
587.557	17.03
587.751	16.46
587.945	15.37
588.139	16.11
588.333	16.15
588.527	16.19
588.721	15.78
588.915	16.58
589.109	15.89
589.303	16.1
589.497	16.06
589.691	16.61
589.885	17.58
590.079	18.46
590.273	18.38
590.466	18.67
590.66	19.15
590.854	19.69
591.048	19.62
591.242	20.46
591.436	20.25
591.629	20.18
591.823	19.96
592.017	19.76
592.211	19.98
592.404	19.95
592.598	19.88
592.792	19.92
592.986	19.47
593.179	20.08
593.373	19.79
593.567	19.25
593.76	19.53
593.954	19.2
594.147	18.95
594.341	17.84
594.535	17.98
594.728	17.19
594.922	16.85
595.115	17.07
595.309	17.21
595.502	17.26
595.696	17.34
595.889	16.3
596.083	16.72
596.276	16.92
596.47	18.11
596.663	17.76
596.856	18.71
597.05	19.68
597.243	19.88
597.437	19.44
597.63	20.61
597.823	20.98
598.017	22.38
598.21	22.08
598.403	21.74
598.596	21.74
598.79	22.12
598.983	22.48
599.176	21.46
599.369	21.47
599.563	20.5
599.756	19.61
599.949	20.29
600.142	20.18
600.335	20.82
600.528	20.35
600.722	20.46
600.915	20.26
601.108	19.39
601.301	19.63
601.494	19.36
601.687	19.42
601.88	19.11
602.073	18.62
602.266	18.25
602.459	18.18
602.652	18.62
602.845	18.51
603.038	18.64
603.231	19.08
603.424	19.36
603.617	19.49
603.809	19.72
604.002	19.51
604.195	19.83
604.388	20.38
604.581	20.74
604.774	21.54
604.966	21.59
605.159	21.63
605.352	21.36
605.545	21.2
605.737	20.96
605.93	21.29
606.123	21.21
606.316	21.36
606.508	20.61
606.701	20.03
606.894	18.94
607.086	19.27
607.279	19.08
607.471	19.54
607.664	19.36
607.857	19.56
608.049	19.8
608.242	20.64
608.434	20.2
608.627	20.93
608.819	21.24
609.012	21.79
609.204	21.23
609.397	21.71
609.589	21.23
609.782	21.3
609.974	21.4
610.166	21.28
610.359	21.53
610.551	21.45
610.743	21.2
610.936	21.57
611.128	21.47
611.32	21.77
611.513	20.93
611.705	21.17
611.897	20.94
612.09	21.36
612.282	21.51
612.474	21.07
612.666	21.81
612.858	22.21
613.051	21.71
613.243	21.61
613.435	20.52
613.627	20.86
613.819	21.14
614.011	21.7
614.203	20.94
614.395	20.69
614.588	21.71
614.78	20.9
614.972	19.94
615.164	20.09
615.356	21.52
615.548	21.14
615.74	21.69
615.932	22.3
616.124	21.56
616.315	21.17
616.507	20.72
616.699	18.68
616.891	19.35
617.083	20
617.275	19.43
617.467	18.88
617.659	20
617.85	21.03
618.042	20.79
618.234	22.12
618.426	22.6
618.618	23.09
618.809	24.48
619.001	24.48
619.193	24.83
619.384	25.13
619.576	25.88
619.768	25.45
619.959	24.74
620.151	24.5
620.343	24.1
620.534	24.84
620.726	25.01
620.917	24.83
621.109	24.9
621.301	24.4
621.492	24.97
621.684	23.42
621.875	24.52
622.067	23.82
622.258	24.24
622.45	23.91
622.641	23.7
622.832	23.03
623.024	22.7
623.215	23.14
623.407	22.53
623.598	22.65
623.789	23.43
623.981	22.76
624.172	22.86
624.363	22.27
624.555	22.02
624.746	22.18
624.937	22.93
625.129	22.77
625.32	22.03
625.511	22.97
625.702	23.25
625.893	22.05
626.085	22.64
626.276	22.01
626.467	22.02
626.658	21.64
626.849	21.11
627.04	20.58
627.231	20.68
627.422	21.03
627.614	20.05
627.805	18.82
627.996	19.6
628.187	19.94
628.378	21.16
628.569	20.87
628.76	22.18
628.951	22.68
629.142	22.93
629.332	22.66
629.523	22.08
629.714	21.94
629.905	22.58
630.096	22.67
630.287	21.62
630.478	21.8
630.669	22.02
630.859	22.03
631.05	21.44
631.241	20.97
631.432	21.28
631.623	21.45
631.813	22.01
632.004	23.1
632.195	22.24
632.385	22.83
632.576	23.07
632.767	23.18
632.957	23.18
633.148	24.3
633.339	24.6
633.529	24.83
633.72	25.29
633.91	25.47
634.101	23.6
634.292	25.43
634.482	24.52
634.673	23.6
634.863	22.57
635.054	22.7
635.244	20.9
635.435	21.04
635.625	20.27
635.815	20.39
636.006	20.79
636.196	21.83
636.387	20.09
636.577	21.17
636.767	21.87
636.958	22.05
637.148	21.15
637.338	21.29
637.529	22.01
637.719	22.71
637.909	21.2
638.099	21.1
638.29	20.23
638.48	21.08
638.67	20.97
638.86	21.56
639.05	23.49
639.241	24.13
639.431	25.35
639.621	24.4
639.811	24.76
640.001	25.99
640.191	26.02
640.381	27.47
640.571	26.52
640.761	26.88
640.951	26.47
641.141	24.63
641.331	23.05
641.521	22.26
641.711	23.15
641.901	22.24
642.091	22.2
642.281	20.18
642.471	18.69
642.661	20.12
642.851	19.93
643.041	19.43
643.231	20.73
643.42	21.56
643.61	21.51
643.8	21.1
643.99	21.33
644.18	20.75
644.369	21.49
644.559	22.11
644.749	20.71
644.939	20.16
645.128	20.06
645.318	20.21
645.508	19.68
645.697	20.1
645.887	20.65
646.076	20.04
646.266	20.66
646.456	21.57
646.645	20.68
646.835	22.94
647.024	22.14
647.214	21.03
647.403	20.67
647.593	21.39
647.782	22.86
647.972	22.29
648.161	23.24
648.351	22.44
648.54	22.81
648.73	23.2
648.919	22.45
649.108	23.2
649.298	24.18
649.487	25.13
649.677	25.42
649.866	24.65
650.055	23.63
650.244	23.7
650.434	23.77
650.623	23.37
650.812	23.68
651.002	21.72
651.191	21.91
651.38	21.86
651.569	20.43
651.758	19.73
651.947	18.91
652.137	19.98
652.326	18.98
652.515	18.64
652.704	17.46
652.893	17.52
653.082	20.89
653.271	21.22
653.46	21.71
653.649	21.57
653.838	22.45
654.027	22.27
654.216	22.22
654.405	23.69
654.594	24.54
654.783	26.26
654.972	27.47
655.161	24.31
655.35	23.35
655.539	22.68
655.728	23.9
655.916	24.4
656.105	24.06
656.294	23.74
656.483	22.75
656.672	21.38
656.86	20.78
657.049	19.6
657.238	20.81
657.427	21.61
657.615	21.89
657.804	20.94
657.993	20.09
658.181	20.39
658.37	20.79
658.559	21.38
658.747	22.45
658.936	22.77
659.125	23.65
659.313	23.75
659.502	23.54
659.69	21.97
659.879	21.76
660.067	22.94
660.256	23.79
660.444	23.79
660.633	23.94
660.821	24.03
661.01	23.46
661.198	23.24
661.387	22.61
661.575	21.94
661.763	25.29
661.952	26.71
662.14	22.92
662.328	22.06
662.517	22.81
662.705	23.11
662.893	25.2
663.082	26.84
663.27	27.22
663.458	27.3
663.646	27.41
663.834	24.94
664.023	24.57
664.211	28.76
664.399	30.28
664.587	27.77
664.775	27.52
664.963	24.37
665.152	23.17
665.34	22.71
665.528	23.58
665.716	25.23
665.904	26.51
666.092	25.64
666.28	24.35
666.468	22.34
666.656	23.95
666.844	22.58
667.032	23.31
667.22	23.09
667.408	22.58
667.596	22.98
667.784	21.05
667.971	20.6
668.159	21.05
668.347	21.87
668.535	21.77
668.723	20.59
668.911	20.64
669.098	21.49
669.286	21.04
669.474	21.6
669.662	20.68
669.849	22.68
670.037	22.7
670.225	22.26
670.413	22.01
670.6	22.48
670.788	23.44
670.976	24.78
671.163	24.42
671.351	23.52
671.538	22.65
671.726	21.95
671.913	20.71
672.101	20.56
672.289	20.51
672.476	20.04
672.664	20.57
672.851	20.97
673.039	20.53
673.226	19.66
673.413	20.9
673.601	20.62
673.788	21.6
673.976	20.67
674.163	21.32
674.35	21.64
674.538	21.56
674.725	21.56
674.912	20.77
675.1	21.34
675.287	21.79
675.474	21.76
675.662	21.65
675.849	22.96
676.036	23.88
676.223	23.46
676.411	23.66
676.598	24.68
676.785	24.48
676.972	24.55
677.159	23.34
677.346	22.2
677.533	22.8
677.721	23.46
677.908	23.2
678.095	23.37
678.282	24.39
678.469	24.11
678.656	22.92
678.843	23.33
679.03	23.98
679.217	24.51
679.404	25.36
679.591	24.81
679.778	25.06
679.964	24
680.151	22.59
680.338	20.81
680.525	20.42
680.712	21.15
680.899	19.43
681.086	18.42
681.272	19.42
681.459	19.32
681.646	20.43
681.833	20.11
682.02	20
682.206	20.72
682.393	21.69
682.58	22.33
682.766	22.46
682.953	25.1
683.14	26.5
683.326	26.22
683.513	26.18
683.7	24.98
683.886	25.31
684.073	23.96
684.259	24.88
684.446	23.27
684.632	24.55
684.819	23.81
685.005	21.61
685.192	22.49
685.378	21.73
685.565	22.2
685.751	22.02
685.938	22.26
686.124	23.6
686.31	23.26
686.497	23.32
686.683	22.99
686.87	22.87
687.056	23.38
687.242	20.79
687.429	20
687.615	21.05
687.801	21.42
687.987	20.5
688.174	21.01
688.36	21.42
688.546	22.11
688.732	20.97
688.918	22.85
689.105	24.14
689.291	24.32
689.477	24.65
689.663	23.55
689.849	23.86
690.035	24.81
690.221	23.66
690.407	22.79
690.593	24.13
690.779	25.08
690.965	22.55
691.151	21.26
691.337	22.86
691.523	22.76
691.709	21.38
691.895	21.37
692.081	22.29
692.267	23.67
692.453	25.86
692.639	24.95
692.825	24.94
693.011	26.12
693.196	25.92
693.382	22.9
693.568	25.81
693.754	26.42
693.94	27.14
694.125	24.49
694.311	24.41
694.497	24.26
694.682	24.82
694.868	26.05
695.054	24.84
695.239	25.64
695.425	27.89
695.611	24.62
695.796	24.98
695.982	23.98
696.168	24.43
696.353	22.44
696.539	21.6
696.724	21.19
696.91	19.35
697.095	19.31
697.281	19.37
697.466	20.63
697.652	21.38
697.837	21.33
698.023	21.07
698.208	21.18
698.393	22.08
698.579	21.87
698.764	21.54
698.949	22.36
699.135	22.32
699.32	21.12
699.505	18.92
699.691	18.67
699.876	18.26
700.061	18.68
700.246	19.71
700.432	18.95
700.617	19.46
700.802	19.29
700.987	20.39
701.172	22.06
701.358	24.44
701.543	24.46
701.728	25.56
701.913	25.15
702.098	26.56
702.283	25.19
702.468	25.49
702.653	25.04
702.838	26.68
703.023	24.15
703.208	20.24
703.393	19.37
703.578	20.01
703.763	20.68
703.948	21.67
704.133	19.6
704.318	20.74
704.503	21.71
704.688	21.36
704.873	22.1
705.057	21.96
705.242	24.5
705.427	24.74
705.612	26.65
705.797	24.65
705.981	23.91
706.166	25.71
706.351	23.4
706.536	25.84
706.72	26.73
706.905	26.31
707.09	27.41
707.274	29.87
707.459	30.4
707.644	30.17
707.828	31.25
708.013	31.32
708.197	29.49
708.382	31.16
708.567	29.22
708.751	29.48
708.936	28.45
709.12	27.99
709.305	27.36
709.489	27.46
709.673	26.68
709.858	24.9
710.042	25.94
710.227	27.81
710.411	26.67
710.596	26.95
710.78	26.54
710.964	26.47
711.149	27.56
711.333	28.8
711.517	28.27
711.702	28.42
711.886	30.24
712.07	29.53
712.254	27.77
712.438	26.52
712.623	25.34
712.807	25.32
712.991	21.56
713.175	18.55
713.359	15.75
713.544	15.33
713.728	15.25
713.912	13.26
714.096	13.68
714.28	12.48
714.464	13.91
714.648	15.64
714.832	15.49
715.016	18.05
715.2	20.18
715.384	20.65
715.568	22.28
715.752	21.03
715.936	19.53
716.12	19.84
716.304	20.87
716.488	24.78
716.671	21.52
716.855	20.81
717.039	21.78
717.223	22.56
717.407	21.2
717.59	17.59
717.774	16.44
717.958	17.92
718.142	15.97
718.325	14.75
718.509	7.6
718.693	9.03
718.877	10.09
719.06	10.63
719.244	7.8
719.428	11.3
719.611	15.24
719.795	19.45
719.978	19.05
720.162	21.61
720.345	26.13
720.529	31.53
720.713	31.48
720.896	33.66
721.08	32.37
721.263	33.16
721.446	28.28
721.63	27.67
721.813	24.39
721.997	23.34
722.18	23.32
722.364	20.63
722.547	18.45
722.73	20.79
722.914	15.6
723.097	16.94
723.28	16.24
723.464	19.35
723.647	17.9
723.83	16.25
724.013	20.09
724.197	20.87
724.38	23.18
724.563	23.62
724.746	23.88
724.929	28.13
725.112	25.55
725.296	25.37
725.479	26.28
725.662	23.79
725.845	28.17
726.028	28.35
726.211	28.76
726.394	25.72
726.577	27.86
726.76	27.14
726.943	27.14
727.126	27.11
727.309	27.98
727.492	27.04
727.675	28.93
727.858	27.95
728.041	26.02
728.224	23.75
728.407	26.84
728.589	30.48
728.772	26.63
728.955	24.9
729.138	25.23
729.321	27.52
729.503	27.59
729.686	26.77
729.869	26.25
730.052	28.93
730.234	28.08
730.417	27.55
730.6	21.33
730.782	21.89
730.965	23.52
731.148	25.43
731.33	23.03
731.513	23.74
731.695	25.73
731.878	25.91
732.061	26.65
732.243	27.49
732.426	27.58
732.608	29.83
732.791	31.89
732.973	34.02
733.156	31.1
733.338	33.18
733.52	33.65
733.703	32.08
733.885	34.64
734.068	31.71
734.25	32
734.432	28.34
734.615	27.6
734.797	29.13
734.979	25.59
735.162	28.54
735.344	24.25
735.526	25.26
735.708	30.46
735.891	28.57
736.073	29.33
736.255	28.98
736.437	34.25
736.619	36.56
736.802	33.87
736.984	35.8
737.166	35.1
737.348	36.6
737.53	34.5
737.712	31.81
737.894	31.92
738.076	28.71
738.258	28.68
738.44	25.48
738.622	24.2
738.804	27.66
738.986	25.91
739.168	24.45
739.35	22.44
739.532	21.61
739.714	21.45
739.896	18.63
740.078	26.1
740.259	26.18
740.441	27.18
740.623	26.46
740.805	21
740.987	23.63
741.168	28.05
741.35	31.44
741.532	30.04
741.714	28.49
741.895	31.9
742.077	26.89
742.259	27.25
742.44	29.44
742.622	29.62
742.804	30.92
742.985	28.9
743.167	23.55
743.348	24.08
743.53	27.84
743.711	29.8
743.893	28.69
744.075	27.42
744.256	29.31
744.438	32.38
744.619	31.78
744.8	36.31
744.982	37.22
745.163	36.74
745.345	37.34
745.526	32.5
745.707	36.02
745.889	33.13
746.07	35.58
746.252	33.36
746.433	30.13
746.614	31.9
746.795	31.81
746.977	28.8
747.158	33.44
747.339	32.36
747.52	38.51
747.702	30.45
747.883	35.05
748.064	34.12
748.245	32.12
748.426	31.32
748.607	27.94
748.788	20.42
748.97	21.52
749.151	17.29
749.332	15.9
749.513	18.49
749.694	26.34
749.875	26.93
750.056	26.01
750.237	28.32
750.418	28
750.599	29.43
750.78	37.43
750.96	39.3
751.141	39.43
751.322	39.08
751.503	37.67
751.684	38.68
751.865	39.01
752.046	36.42
752.226	37.11
752.407	41.91
752.588	44.2
752.769	39.57
752.949	37.75
753.13	41.23
753.311	45.12
753.492	41.3
753.672	36.47
753.853	33.59
754.034	39.94
754.214	38.91
754.395	40.13
754.575	37.46
754.756	33.06
754.937	32.03
755.117	30.03
755.298	31.71
755.478	35.3
755.659	36.35
755.839	37.85
756.02	32.85
756.2	34.82
756.381	29.49
756.561	30.37
756.741	38.52
756.922	42.72
757.102	43.62
757.283	37.27
757.463	34.18
757.643	36.45
757.823	30.57
758.004	27.22
758.184	26.28
758.364	31.53
758.545	31.46
758.725	33.87
758.905	30.48
759.085	27.74
759.265	27.86
759.446	34.6
759.626	32.85
759.806	33.38
759.986	36.26
760.166	34.9
760.346	27.64
760.526	30.04
760.706	27.92
760.886	29.16
761.066	28.58
761.246	28.3
761.426	23.88
761.606	21
761.786	22.36
761.966	24.41
762.146	27.21
762.326	27.11
762.506	26.96
762.686	25.68
762.866	26.08
763.046	25.67
763.225	25.59
763.405	26.96
763.585	30.5
763.765	31.88
763.945	30.87
764.124	27.04
764.304	30.13
764.484	31.19
764.664	31.77
764.843	32.69
765.023	33.36
765.203	33.33
765.382	32.07
765.562	29.63
765.741	27.9
765.921	30.3
766.101	35.9
766.28	35.63
766.46	33.74
766.639	32.54
766.819	30.98
766.998	33.73
767.178	37.28
767.357	35.48
767.537	37.24
767.716	41.84
767.896	36.6
768.075	35.34
768.254	34.65
768.434	39.84
768.613	40.27
768.792	42.12
768.972	38.26
769.151	39.91
769.33	43.35
769.51	39.96
769.689	46.74
769.868	50.04
770.047	49.05
770.226	45.98
770.406	41.46
770.585	43.54
770.764	47.31
770.943	48.83
771.122	43.42
771.301	42.18
771.48	45.72
771.66	40.73
771.839	42.65
772.018	46.15
772.197	50.04
772.376	43.3
772.555	49.68
772.734	44.47
772.913	48.99
773.092	53.89
773.271	57.4
773.449	62.08
773.628	62.5
773.807	56.39
773.986	52.19
774.165	52.77
774.344	62.59
774.523	56.66
774.701	54.02
774.88	48.12
775.059	50.74
775.238	57.68
775.417	53.23
775.595	55.06
775.774	54.14
775.953	54.34
776.131	57.36
776.31	44.95
776.489	50.96
776.667	54.22
776.846	55.03
777.025	50.85
777.203	41.1
777.382	35.77
777.56	33.14
777.739	38.16
777.917	40.06
778.096	36.39
778.274	45.79
778.453	43.85
778.631	44.83
778.81	52.68
778.988	55.82
779.166	64.43
779.345	64.46
779.523	68.93
779.702	62.13
779.88	64.41
780.058	75.24
780.237	71.22
780.415	65.33
780.593	71.83
780.771	63.65
780.95	69.81
781.128	66.41
781.306	68
781.484	53.65
781.662	51.95
781.841	56.56
782.019	49.3
782.197	53.18
782.375	57.5
782.553	48.19
782.731	47.89
782.909	44.13
783.087	43.25
783.265	45.3
783.443	45.16
783.621	48.42
783.799	41.81
783.977	42.15
784.155	43.48
784.333	43.82
784.511	45.18
784.689	35.59
784.867	33.28
785.045	32.69
785.223	35.74
785.4	47.28
785.578	52.45
785.756	52.96
785.934	36.38
786.112	28.98
786.289	33.87
786.467	31.8
786.645	38.61
786.823	32.37
787	28.49
787.178	23.44
787.356	22.96
787.533	23.17
787.711	16.2
787.889	21.38
788.066	27.23
788.244	21.44
788.421	32.06
788.599	34.9
788.776	35.26
788.954	40.05
789.131	45.47
789.309	40.64
789.486	39.44
789.664	33.73
789.841	45.29
790.019	49.24
790.196	50.43
790.373	50.9
790.551	50.76
790.728	53.49
790.906	44.92
791.083	49.72
791.26	50.25
791.437	48.06
791.615	53.34
791.792	46.63
791.969	40.62
792.146	47
792.324	36.7
792.501	45.09
792.678	49.29
792.855	51.71
793.032	51.99
793.209	65.64
793.387	61.77
793.564	81.52
793.741	84.56
793.918	81.33
794.095	63.53
794.272	69.33
794.449	58.62
794.626	58.46
794.803	57.74
794.98	44.53
795.157	40.91
795.334	46.31
795.511	41.15
795.688	32.82
795.864	39.53
796.041	44.29
796.218	44.31
796.395	46.36
796.572	48.09
796.749	47.79
796.925	50.02
797.102	42.92
797.279	43.23
797.456	36.38
797.632	40.69
797.809	40.04
797.986	42.59
798.162	37.72
798.339	41.49
798.516	45.22
798.692	46.82
798.869	60.86
799.046	65.58
799.222	73.09
799.399	75.53
799.575	75.6
799.752	76
799.928	74.33
800.105	74.39
800.281	77.37
800.458	68.03
800.634	70.48
800.811	64.24
800.987	56.59
801.163	41.24
801.34	40.68
801.516	35.4
801.692	45.73
801.869	45.56
802.045	45.29
802.221	32.22
802.398	38
802.574	30.44
802.75	21.68
802.926	38.64
803.103	35.54
803.279	41.65
803.455	34.68
803.631	19.37
803.807	21.97
803.983	21.21
804.16	31.96
804.336	39.66
804.512	52.41
804.688	47.22
804.864	47.72
805.04	53.58
805.216	51.53
805.392	58.53
805.568	73.39
805.744	62.99
805.92	64.72
806.096	53.63
806.272	36.96
806.448	19
806.623	31.36
806.799	26.74
806.975	34.98
807.151	37.4
807.327	44.58
807.503	38.79
807.678	33.77
807.854	38.28
808.03	50.69
808.206	48.98
808.381	55.61
808.557	56.71
808.733	60.27
808.908	60.04
809.084	56.78
809.26	53.08
809.435	49.3
809.611	46.12
809.787	54.04
809.962	35.53
810.138	30.32
810.313	37.7
810.489	38.56
810.664	41.75
810.84	37.28
811.015	29.56
811.191	24.64
811.366	18.51
811.542	18.79
811.717	17.32
811.892	39.91
812.068	42.9
812.243	31.95
812.419	35.68
812.594	26.34
812.769	30.17
812.944	64.32
813.12	66.82
813.295	105.78
813.47	91.88
813.645	73.72
813.821	17.9
813.996	44.09
814.171	48.58
814.346	35.09
814.521	63.64
814.697	42.05
814.872	25.17
815.047	29.81
815.222	20.54
815.397	33.76
815.572	32.26
815.747	50.17
815.922	39.55
816.097	20
816.272	24
816.447	18.13
816.622	40.43
816.797	49.47
816.972	50.39
817.147	53.69
817.322	64.91
817.496	72.88
817.671	55.94
817.846	52.55
818.021	52.84
818.196	58.66
818.371	56.78
818.545	38.09
818.72	33.01
818.895	23.56
819.069	13.41
819.244	2.78
819.419	-15.67
819.594	-3.46
819.768	0.11
819.943	4.83
820.117	6.38
820.292	10.16
820.467	9.65
820.641	9.03
820.816	9.43
820.99	11.3
821.165	13.82
821.339	16.15
821.514	15.31
821.688	17.18
821.863	16.16
822.037	16.37
822.212	16.26
822.386	16
822.56	17.08
822.735	19.34
822.909	20.32
823.084	19.55
823.258	22.53
823.432	24.02
823.606	22.38
823.781	26.42
823.955	26.92
824.129	27.02
824.303	29.75
824.478	32.41
824.652	32.3
824.826	30.52
825	31.54
825.174	29.27
825.348	28.41
825.523	32.52
825.697	30.66
825.871	31.44
826.045	31.84
826.219	31.08
826.393	27.09
826.567	26.43
826.741	28.64
826.915	31.49
827.089	35.03
827.263	36.11
827.437	35.03
827.611	37.8
827.784	36.73
827.958	30.85
828.132	32.34
828.306	39.25
828.48	41.96
828.654	39.87
828.827	31.56
829.001	27.34
829.175	30.7
829.349	19.92
829.522	11.45
829.696	1.14
829.87	4.93
830.044	-1.92
830.217	8.35
830.391	0.87
830.565	12.21
830.738	20.84
830.912	19.13
831.085	14.59
831.259	22.97
831.432	37.27
831.606	38.55
831.779	44.17
831.953	43.89
832.126	32.61
832.3	32.87
832.473	29.79
832.647	23.45
832.82	21.88
832.994	25.69
833.167	27.45
833.34	19.6
833.514	20.99
833.687	18.97
833.86	18.73
834.034	23.39
834.207	19.72
834.38	22.66
834.553	22.01
834.727	34.31
834.9	30.91
835.073	32.61
835.246	42.72
835.419	42.96
835.593	46.51
835.766	52.71
835.939	56.55
836.112	65.01
836.285	67.57
836.458	78.1
836.631	51.2
836.804	62.52
836.977	56.22
837.15	51.87
837.323	54.59
837.496	54.27
837.669	54.16
837.842	47.19
838.015	54.9
838.188	57.45
838.361	70.06
838.533	76.02
838.706	83.78
838.879	103.57
839.052	102.79
839.225	119.69
839.398	112.29
839.57	106.7
839.743	121.62
839.916	101.93
840.088	122.8
840.261	105.71
840.434	96.68
840.607	90.98
840.779	78.34
840.952	83.86
841.124	60.66
841.297	94.38
841.47	111.15
841.642	122.57
841.815	135.64
841.987	109.7
842.16	103.66
842.332	230.06
842.505	211.74
842.677	277.65
842.85	-2466.67
843.022	-1062.5
843.194	327.27
843.367	-177.42
843.539	5.88
843.712	2.63
843.884	81.48
844.056	-30.91
844.229	96.35
844.401	100.87
844.573	90.96
844.745	115.05
844.918	121.11
845.09	140.77
845.262	106.68
845.434	107.24
845.606	158.01
845.779	191.6
845.951	277.49
846.123	281.5
846.295	314.36
846.467	312.28
846.639	234.71
846.811	232.29
846.983	395.71
847.155	-288.64
847.327	-200
847.499	2253.33
847.671	-321.33
847.843	-1322.73
848.015	-244.9
848.187	-47.83
848.359	-20
848.531	-56
848.703	-32.48
848.875	-120.6
849.047	-167.04
849.218	-97.06
849.39	-119.28
849.562	-193.1
849.734	-280.26
849.905	-151.64
850.077	-267.84
850.249	-1100
850.421	732.26
850.592	268.21
850.764	193.07
850.936	110.42
851.107	107.73
851.279	58.82
851.451	81
851.622	68.3
851.794	59.71
851.965	63.52
852.137	72.28
852.308	94.98
852.48	109.64
852.651	42.39
852.823	57.82
852.994	62.75
853.166	86.69
853.337	72.81
853.509	115.49
853.68	47.17
853.851	-475.68
854.023	-62.02
854.194	221.38
854.365	162.86
854.537	179.05
854.708	319.7
854.879	461.64
855.05	316.87
855.222	1361.54
855.393	134.91
855.564	354.37
855.735	247.83
855.906	109.7
856.078	50.28
856.249	53.72
856.42	69.77
856.591	419.51
856.762	28.57
856.933	-45.08
857.104	-94.65
857.275	-163.11
857.446	-49.54
857.617	-112.89
857.788	-80.4
857.959	451.64
858.13	268.52
858.301	1675
858.472	467.54
858.643	564.2
858.814	254.62
858.985	272.22
859.155	722
859.326	169.18
859.497	163.29
859.668	110.44
859.839	160.58
860.009	102.04
860.18	176.99
860.351	-113.33
860.522	-483.33
860.692	28.57
860.863	2766.67
861.034	-128.21
861.204	413.64
861.375	17.53
861.546	-80.16
861.716	-2025
861.887	-533.33
862.057	3475
862.228	-1188.89
862.398	-2512.5
862.569	364.56
862.739	234.4
862.91	1066.67
863.08	123.05
863.251	-300
863.421	-32
863.592	341.94
863.762	1052
863.932	354.37
864.103	204.26
864.273	270.51
864.443	506.33
864.614	211.9
864.784	225.66
864.954	3087.5
865.125	390.91
865.295	235.8
865.465	1461.11
865.635	865.15
865.805	3681.25
865.976	1382.14
866.146	170.04
866.316	297.28
866.486	380.95
866.656	216.67
866.826	211.57
866.996	239.2
867.166	222.19
867.336	181.76
867.506	183.82
867.676	173.99
867.846	160.36
868.016	626.83
868.186	120.5
868.356	347.5
868.526	327.5
868.696	-244.44
868.866	121.38
869.036	78.9
869.206	50.23
869.376	20
869.545	66.49
869.715	239.19
869.885	272.22
870.055	-1378.57
870.224	9300
870.394	9.77
870.564	-105.56
870.734	54.34
870.903	29.19
871.073	28.85
871.243	17.46
871.412	-16.93
871.582	106.51
871.751	416.33
871.921	-11.22
872.091	26.47
872.26	61.59
872.43	24.59
872.599	67.21
872.769	70.95
872.938	78.97
873.108	111.42
873.277	88.75
873.446	131.49
873.616	126.87
873.785	164.6
873.955	165.58
874.124	138.23
874.293	120.43
874.463	120.96
874.632	123.68
874.801	100.79
874.971	70.63
875.14	77.3
875.309	54.63
875.478	66.23
875.647	57.85
875.817	45
875.986	63.35
876.155	33
876.324	5.82
876.493	-2.39
876.662	46.84
876.831	45
877	51.04
877.17	73.28
877.339	86.6
877.508	92.91
877.677	129.96
877.846	107.55
878.015	112.83
878.184	161.34
878.352	562.64
878.521	424.04
878.69	575.9
878.859	176.53
879.028	342.35
879.197	190.18
879.366	70.95
879.534	30.88
879.703	10.78
879.872	25.74
880.041	25.88
880.21	26.19
880.378	19.1
880.547	23.09
880.716	24.75
880.884	29.8
881.053	24.84
881.222	25.09
881.39	24.35
881.559	29.86
881.727	31.17
881.896	26.69
882.065	30.27
882.233	34.06
882.402	29.39
882.57	32.71
882.739	38.33
882.907	32.86
883.076	35.86
883.244	47.73
883.412	54.6
883.581	40.2
883.749	50.61
883.918	55.12
884.086	64.4
884.254	69.05
884.423	64.86
884.591	78.84
884.759	74.35
884.927	85.11
885.096	109.85
885.264	87.55
885.432	123.88
885.6	162.08
885.769	166.01
885.937	154.09
886.105	237.68
886.273	198.55
886.441	194.61
886.609	403.28
886.777	251.78
886.945	124.62
887.113	225
887.281	332.76
887.449	-2978.57
887.617	3007.69
887.785	730.77
887.953	-1640
888.121	-396.18
888.289	-404.73
888.457	-1173.77
888.625	-314.75
888.793	-126.5
888.961	-162
889.129	-216.8
889.296	-646.94
889.464	-386.01
889.632	-135.57
889.8	-148.48
889.967	-209.9
890.135	-354.9
