Data from JASIL_3178_Reflection_1.txt Node
Date: Thu Nov 12 23:16:05 EST 2015
User: Geneva
Spectrometer: USB4E03002
Autoset integration time: false
Trigger mode: 4
Integration Time (sec): 1.000000E-1
Scans to average: 10
Electric dark correction enabled: true
Nonlinearity correction enabled: false
Boxcar width: 5
Stray light correction enabled: false
XAxis mode: Wavelengths
Stop averaging: false
Number of Pixels in Spectrum: 3648
>>>>>Begin Spectral Data<<<<<
177.575	-37.95
177.794	31.77
178.014	26.27
178.233	-417.73
178.452	-17.64
178.672	-37.66
178.891	78.68
179.11	83.85
179.33	480.61
179.549	160.44
179.768	-1441.18
179.987	-296.46
180.207	-193.97
180.426	-443.66
180.645	882.94
180.864	709.6
181.084	553.09
181.303	2385.19
181.522	526.06
181.741	210.66
181.96	437.84
182.179	373.65
182.398	1096.11
182.618	905.76
182.837	-247.02
183.056	-159.76
183.275	-37.09
183.494	-39.28
183.713	-60.69
183.932	-44.31
184.151	-54.64
184.37	-36.83
184.589	-83.04
184.808	-76.15
185.027	-65.98
185.246	-99.67
185.465	-78.72
185.684	-90.18
185.903	-66.85
186.122	-64.07
186.341	-73.19
186.56	-82.46
186.779	-910.28
186.998	-424.99
187.216	-249.79
187.435	-539.22
187.654	-2009.06
187.873	-1842.7
188.092	1126.13
188.311	2398.54
188.53	7998.1
188.748	-11836.52
188.967	-620.55
189.186	-202.46
189.405	-291.72
189.623	-259.39
189.842	-203.19
190.061	-121.7
190.28	-105.18
190.498	-72.77
190.717	-75.55
190.936	-141.92
191.154	-115.07
191.373	-428.4
191.592	-288.62
191.81	-304.64
192.029	-1750.55
192.248	-776.11
192.466	-661.1
192.685	-826.68
192.904	-930.63
193.122	-1026.55
193.341	-644.7
193.559	-1155.23
193.778	-410.59
193.996	-550.52
194.215	-221.92
194.433	-235
194.652	-394.62
194.87	-316.47
195.089	-403.48
195.307	-584.98
195.526	-1187.1
195.744	6225
195.963	768.52
196.181	350.59
196.399	359.05
196.618	279.29
196.836	274.3
197.055	407.05
197.273	361.04
197.491	382.03
197.71	309.05
197.928	298.67
198.146	450.19
198.365	992.19
198.583	946
198.801	848.57
199.019	-177.79
199.238	31.41
199.456	-194.84
199.674	-122.08
199.892	-389.09
200.111	-254.33
200.329	-178.69
200.547	-116.2
200.765	-259.31
200.983	-125.29
201.202	-55.12
201.42	-112.78
201.638	-104.09
201.856	-92.16
202.074	-165.59
202.292	-37.83
202.51	-44.95
202.728	-114.76
202.946	-150.77
203.165	-174.85
203.383	-285.55
203.601	-218
203.819	-171.21
204.037	-209.12
204.255	-154.81
204.473	-190.94
204.691	-222.67
204.909	-166.11
205.127	-112.15
205.345	-114.17
205.562	-100.77
205.78	-72.02
205.998	-85.29
206.216	-133.25
206.434	-190.52
206.652	-357.24
206.87	-225.07
207.088	-6490.62
207.306	-949.36
207.523	1114.95
207.741	882.21
207.959	-3016.82
208.177	-654.54
208.395	-808.46
208.612	-375.73
208.83	-209.12
209.048	-211.06
209.266	-217.05
209.483	-97.14
209.701	-123.28
209.919	-80.89
210.136	-68.07
210.354	-46.7
210.572	-68.16
210.79	-62.23
211.007	-42.77
211.225	-65.03
211.442	-57.75
211.66	-57.37
211.878	-83.8
212.095	269.85
212.313	230.67
212.53	238.61
212.748	213.13
212.966	225.23
213.183	202.25
213.401	187.34
213.618	210.71
213.836	199.3
214.053	203.09
214.271	201.13
214.488	-6542.86
214.705	-1538.04
214.923	-1343.3
215.14	-590.23
215.358	-511.18
215.575	-229.22
215.793	-307.28
216.01	792.86
216.227	-58745.45
216.445	-150.56
216.662	-196.17
216.879	-167.05
217.097	-86.12
217.314	-97.23
217.531	-176.49
217.749	-125.5
217.966	-138.72
218.183	-168.77
218.4	-141.39
218.618	-110.91
218.835	-140.26
219.052	-117.94
219.269	-117.38
219.487	-132.58
219.704	-143.91
219.921	-186.33
220.138	-259.16
220.355	-346.57
220.572	-177.08
220.79	-90.32
221.007	-88.61
221.224	-150.33
221.441	-144.08
221.658	-140.01
221.875	-91.01
222.092	-81.34
222.309	-39.87
222.526	-30
222.743	-18.91
222.96	-10.17
223.177	-54.23
223.394	-151.96
223.611	-67.07
223.828	-103.18
224.045	-76.29
224.262	-101.87
224.479	-122.6
224.696	-97.27
224.913	-100.83
225.13	-154.79
225.347	-113.43
225.564	-71.58
225.781	-21.86
225.997	-40.12
226.214	-26.16
226.431	-36.01
226.648	-43.92
226.865	-38.37
227.082	-46.21
227.298	-28.11
227.515	-9.68
227.732	-17.64
227.949	-36.54
228.165	-37.68
228.382	-22.36
228.599	-24.36
228.816	-30.55
229.032	-30.21
229.249	-34.13
229.466	-29.55
229.682	-48.52
229.899	-72.68
230.116	-62.22
230.332	-66.65
230.549	-77.75
230.765	-76.87
230.982	-69.12
231.199	-57.65
231.415	-53.74
231.632	-40.1
231.848	-62.55
232.065	-55.26
232.281	-40.29
232.498	-49.23
232.714	-34.63
232.931	-36.63
233.147	-46.15
233.364	-46.2
233.58	-35.67
233.797	-41.41
234.013	-44.67
234.23	-28.01
234.446	-40.65
234.662	-43.54
234.879	-31.84
235.095	-32.49
235.312	-39.88
235.528	-34.64
235.744	-42.24
235.961	-63.46
236.177	-64.21
236.393	-75.2
236.61	-57.98
236.826	-38.69
237.042	-40.3
237.258	-47.8
237.475	-48.6
237.691	-38.92
237.907	-33.96
238.123	-35.33
238.339	-25.32
238.556	-25.11
238.772	-18.5
238.988	-18.81
239.204	-18.39
239.42	-14.5
239.636	-3.96
239.853	-1.3
240.069	-5.66
240.285	-6.84
240.501	-3.88
240.717	-1.44
240.933	3.07
241.149	-2.2
241.365	-6.35
241.581	-13.16
241.797	-8.71
242.013	-12.82
242.229	-13.57
242.445	-9.75
242.661	-8.19
242.877	-6.3
243.093	-3.63
243.309	-7.7
243.525	-0
243.741	-3.72
243.957	-0.64
244.173	-4.52
244.388	-8.22
244.604	-2.96
244.82	-10.29
245.036	-11.19
245.252	-10.15
245.468	-7.05
245.683	-5.51
245.899	-5.75
246.115	-4.96
246.331	-2.41
246.547	-3.43
246.762	-2.94
246.978	-4.28
247.194	-4.88
247.409	-3.68
247.625	-5.32
247.841	-9.6
248.057	-11.86
248.272	-13.07
248.488	-10.52
248.703	-13.25
248.919	-13.45
249.135	-13.16
249.35	-15.05
249.566	-8.46
249.782	-9.94
249.997	-7.67
250.213	-8.12
250.428	-8.59
250.644	-22.84
250.859	-24.3
251.075	-29.21
251.29	-28.12
251.506	-28.93
251.721	-33.2
251.937	-36.45
252.152	-36.8
252.368	-45.32
252.583	-51.89
252.798	-46.78
253.014	-37.84
253.229	-41.21
253.445	-34.4
253.66	-32.37
253.875	-32.86
254.091	-33.17
254.306	-28.09
254.521	-37.71
254.737	-25.48
254.952	-24.62
255.167	-28.34
255.383	-23.62
255.598	-18.35
255.813	-18.68
256.028	-20.46
256.244	-20.39
256.459	-16.77
256.674	-17.93
256.889	-11.94
257.104	-8.59
257.32	-2.55
257.535	-0.49
257.75	-4.09
257.965	-5.54
258.18	-8.52
258.395	-11.69
258.61	-8.45
258.826	-5.88
259.041	-6.29
259.256	-6.76
259.471	-9.33
259.686	-12.6
259.901	-11.95
260.116	-8.6
260.331	-6.63
260.546	-4.64
260.761	-1.11
260.976	-1.92
261.191	-3.47
261.406	-0.65
261.621	-7.42
261.836	-6.72
262.05	-3.81
262.265	-7.91
262.48	-5.12
262.695	-9.75
262.91	-11.18
263.125	-14.72
263.34	-14.93
263.555	-16.81
263.769	-26.72
263.984	-18.6
264.199	-18.2
264.414	-19.33
264.629	-16.1
264.843	-19.86
265.058	-24.22
265.273	-20.19
265.488	-19.01
265.702	-15.31
265.917	-20.72
266.132	-20.36
266.346	-17.84
266.561	-20.37
266.776	-19.68
266.99	-21.71
267.205	-24.64
267.42	-25.58
267.634	-28.61
267.849	-24.05
268.063	-27.36
268.278	-20.64
268.492	-22.85
268.707	-19.58
268.922	-16.43
269.136	-13.02
269.351	-8.5
269.565	-3.27
269.78	-0.24
269.994	2.32
270.209	1.47
270.423	3.51
270.637	1.48
270.852	7.74
271.066	5.69
271.281	2.51
271.495	0.04
271.709	-2.99
271.924	-7.26
272.138	-7.81
272.353	-11.19
272.567	-15.45
272.781	-16.47
272.996	-17.56
273.21	-20.62
273.424	-19.89
273.638	-16.77
273.853	-16.87
274.067	-19.32
274.281	-19.06
274.495	-19.11
274.71	-12.68
274.924	-11.7
275.138	-11.82
275.352	-15.32
275.566	-18.1
275.781	-17.47
275.995	-15.5
276.209	-18.88
276.423	-24.64
276.637	-23.85
276.851	-24.03
277.065	-27.98
277.279	-30.87
277.493	-30.16
277.707	-22.93
277.921	-19.37
278.135	-20.17
278.349	-14.52
278.563	-12.26
278.777	-7.77
278.991	-8.55
279.205	-3.62
279.419	-4.08
279.633	-0.76
279.847	0.37
280.061	0.12
280.275	2.83
280.489	0.26
280.703	-8.38
280.917	-3.22
281.131	-0.64
281.344	-2.18
281.558	-3.93
281.772	-1.97
281.986	-5.29
282.2	-8.15
282.414	-9.41
282.627	-11.22
282.841	-11.51
283.055	-7.29
283.269	-8.85
283.482	-10.11
283.696	-8.79
283.91	-7.75
284.123	-12.34
284.337	-9.19
284.551	-8.67
284.764	-5.43
284.978	-6.12
285.192	-1.71
285.405	-1.44
285.619	-0.98
285.833	1.5
286.046	4.91
286.26	2.6
286.473	2.92
286.687	3.62
286.9	9.2
287.114	8.11
287.327	8.19
287.541	6.61
287.754	5.7
287.968	1.91
288.181	0.47
288.395	-2.41
288.608	-1.19
288.822	-0.55
289.035	-3.82
289.248	-7.08
289.462	-7.82
289.675	-6.49
289.889	-8.38
290.102	-6.83
290.315	-5.07
290.529	-5.54
290.742	-9.07
290.955	-8.22
291.169	-5.43
291.382	-3.69
291.595	-4.44
291.808	-4
292.022	-5.86
292.235	-2.81
292.448	-4.34
292.661	-4.65
292.875	-7.11
293.088	-3.66
293.301	-5.61
293.514	-8.7
293.727	-10.76
293.94	-12.82
294.153	-12.99
294.367	-12.06
294.58	-10.85
294.793	-12.9
295.006	-14.6
295.219	-9.98
295.432	-9.64
295.645	-8.42
295.858	-7.33
296.071	-6.86
296.284	-6.37
296.497	-4.01
296.71	-4.71
296.923	-5.81
297.136	-4.49
297.349	-4.41
297.562	-3.24
297.775	-3.37
297.988	-2.89
298.201	-1.43
298.414	1.47
298.626	4
298.839	0.73
299.052	3.17
299.265	1.48
299.478	4.35
299.691	5.21
299.903	2.65
300.116	2.81
300.329	2.56
300.542	1.44
300.755	-1.84
300.967	-3.45
301.18	-3.35
301.393	-6.31
301.605	-2.67
301.818	-6.64
302.031	-7.23
302.243	-9.43
302.456	-6.39
302.669	-6.16
302.881	-9.73
303.094	-10.32
303.307	-10.63
303.519	-9.89
303.732	-9.23
303.944	-10.98
304.157	-13.25
304.37	-12.13
304.582	-9.71
304.795	-12.17
305.007	-14.9
305.22	-11.04
305.432	-9.63
305.645	-10.97
305.857	-9.1
306.069	-7.17
306.282	-8.52
306.494	-5.95
306.707	-2.71
306.919	-3.95
307.132	-7.83
307.344	-8.66
307.556	-9.5
307.769	-10.24
307.981	-7.97
308.193	-10.3
308.406	-9.18
308.618	-8.44
308.83	-6.48
309.043	-8.03
309.255	-6.74
309.467	-5.1
309.679	-3
309.892	-2.57
310.104	-0.33
310.316	-4.06
310.528	-3.89
310.74	-4.65
310.953	-5.39
311.165	-8.18
311.377	-7.36
311.589	-8.51
311.801	-9.57
312.013	-10.01
312.225	-10.63
312.437	-12.93
312.649	-12.27
312.862	-12.48
313.074	-13.6
313.286	-12.14
313.498	-6.84
313.71	-11.26
313.922	-9.52
314.134	-6.48
314.346	-8.2
314.558	-6.81
314.77	-5.75
314.982	-4.14
315.193	-6.25
315.405	-11.53
315.617	-9.89
315.829	-14.68
316.041	-12.1
316.253	-12.08
316.465	-14.45
316.677	-12.04
316.888	-10.97
317.1	-7.4
317.312	-6.52
317.524	-1.97
317.736	-2.14
317.947	-6.25
318.159	-3.86
318.371	0.16
318.583	-1.52
318.794	-1.16
319.006	-0.97
319.218	-2.1
319.43	-2.89
319.641	-0.93
319.853	0.19
320.064	4.23
320.276	6.99
320.488	6.52
320.699	2.43
320.911	3.38
321.123	3.8
321.334	-0.43
321.546	-2.67
321.757	-1.86
321.969	-5.58
322.18	-9.83
322.392	-9.01
322.603	-12.11
322.815	-12.26
323.026	-13.31
323.238	-11.28
323.449	-9.14
323.661	-6.89
323.872	-5.5
324.083	-9.5
324.295	-6.56
324.506	-5.39
324.718	-6.83
324.929	-2.08
325.14	-2.18
325.352	-2.21
325.563	-3.16
325.774	-3.66
325.986	-3.92
326.197	-3.93
326.408	-1.86
326.62	-2.7
326.831	-5.22
327.042	-5.83
327.253	-6.68
327.464	-4.16
327.676	-3.4
327.887	-4.99
328.098	-3.77
328.309	0.15
328.52	1.1
328.732	-0.51
328.943	-2.78
329.154	2.62
329.365	2.56
329.576	1.21
329.787	-1.25
329.998	-1.64
330.209	1.34
330.42	0.59
330.631	-2.92
330.842	-1.67
331.053	-0.71
331.264	3.32
331.475	0.7
331.686	2.21
331.897	1.91
332.108	2.5
332.319	4.88
332.53	2.55
332.741	3.74
332.952	6.02
333.163	3.03
333.374	4.29
333.585	1.74
333.795	0.91
334.006	2.28
334.217	4.35
334.428	5.04
334.639	4.78
334.849	5.55
335.06	5.56
335.271	2.19
335.482	5.49
335.692	5.54
335.903	6.19
336.114	7.69
336.325	8.7
336.535	6.78
336.746	5.15
336.957	4.72
337.167	6.15
337.378	2.66
337.589	5.97
337.799	6.01
338.01	5.43
338.22	5.69
338.431	8.47
338.642	6.96
338.852	9.06
339.063	10.14
339.273	9.19
339.484	8.82
339.694	12.51
339.905	10.75
340.115	6.32
340.326	6.96
340.536	7.92
340.746	2.64
340.957	3.29
341.167	1.96
341.378	0.53
341.588	2.64
341.799	0.92
342.009	-1.39
342.219	0.77
342.43	3.41
342.64	5.26
342.85	3.91
343.061	5.37
343.271	3.83
343.481	4.14
343.691	2.84
343.902	1.85
344.112	2.38
344.322	4.37
344.532	2.94
344.743	4.43
344.953	3.35
345.163	2.73
345.373	4.17
345.583	5.7
345.793	5.75
346.004	8.56
346.214	9.64
346.424	12.3
346.634	11.94
346.844	12.06
347.054	14.15
347.264	14.34
347.474	15.46
347.684	15.23
347.894	14.1
348.104	13.3
348.314	12.11
348.524	11.21
348.734	9.64
348.944	9.65
349.154	9.5
349.364	6.54
349.574	6.68
349.784	7.94
349.994	9.35
350.204	8.88
350.413	9.59
350.623	9.08
350.833	10.16
351.043	11.41
351.253	10.66
351.463	9.73
351.672	9.87
351.882	9.56
352.092	7.15
352.302	6
352.511	6.79
352.721	6.16
352.931	7.4
353.141	7.34
353.35	5.68
353.56	5.49
353.77	5.3
353.979	4.47
354.189	2.32
354.399	4.05
354.608	2.76
354.818	2.4
355.027	2.16
355.237	2.8
355.447	0.69
355.656	1.09
355.866	1.71
356.075	3.2
356.285	4.19
356.494	5.6
356.704	6.4
356.913	7.94
357.123	9.51
357.332	11.17
357.542	11.17
357.751	12.81
357.96	13.71
358.17	14.33
358.379	15.78
358.589	14.64
358.798	14.87
359.007	14.16
359.217	14.74
359.426	14.8
359.635	13.39
359.845	12.53
360.054	12.59
360.263	12.13
360.472	11.73
360.682	10.49
360.891	12.34
361.1	12.51
361.309	13.62
361.519	12.05
361.728	10.76
361.937	11.51
362.146	12.25
362.355	12.15
362.564	12.26
362.774	12.1
362.983	12.14
363.192	10.99
363.401	10.29
363.61	9.04
363.819	8.08
364.028	9.16
364.237	8.87
364.446	8.31
364.655	8.48
364.864	6.91
365.073	6.69
365.282	5.75
365.491	6.65
365.7	7.19
365.909	7.28
366.118	8.34
366.327	7.64
366.536	7.68
366.745	6.81
366.954	5.9
367.162	6.45
367.371	6.86
367.58	7.51
367.789	7.78
367.998	7.51
368.207	7.23
368.415	7.24
368.624	7.81
368.833	8.78
369.042	9.46
369.25	11.05
369.459	11.23
369.668	10.75
369.877	10.89
370.085	10.25
370.294	10.55
370.503	11.42
370.711	12.86
370.92	12.65
371.129	11.83
371.337	12.16
371.546	11.63
371.754	11.02
371.963	10.99
372.171	11.24
372.38	10.74
372.589	10.23
372.797	9.4
373.006	8.01
373.214	5.71
373.423	4.46
373.631	5.25
373.84	4.93
374.048	5.98
374.256	7.93
374.465	7.57
374.673	7.14
374.882	6.72
375.09	5.72
375.298	5.34
375.507	9.58
375.715	10.94
375.923	11.83
376.132	11.28
376.34	11.75
376.548	11.01
376.757	10.54
376.965	12.58
377.173	13.03
377.381	14.09
377.59	13.67
377.798	11.25
378.006	11.23
378.214	10.03
378.423	10.93
378.631	11.75
378.839	11.26
379.047	12.06
379.255	11.19
379.463	12.04
379.671	11.02
379.879	11.99
380.088	12.78
380.296	13.85
380.504	13.23
380.712	13.16
380.92	11.91
381.128	12.13
381.336	12.31
381.544	11.9
381.752	10.59
381.96	12.18
382.168	13.09
382.376	11.83
382.584	9.04
382.791	7.95
382.999	7.06
383.207	6.75
383.415	7.08
383.623	7.74
383.831	7.94
384.039	7.89
384.247	7.82
384.454	7.12
384.662	8.06
384.87	10.45
385.078	11.24
385.285	12.32
385.493	12.27
385.701	11.94
385.909	10.26
386.116	10.13
386.324	11.22
386.532	12.01
386.739	12.84
386.947	12.43
387.155	11.41
387.362	11.29
387.57	10.84
387.778	11.06
387.985	11.12
388.193	11.63
388.4	11.12
388.608	10.27
388.816	7.91
389.023	7.02
389.231	7.29
389.438	6.91
389.646	6.83
389.853	6.48
390.061	5.93
390.268	5.45
390.475	5.92
390.683	6.4
390.89	6.43
391.098	6.91
391.305	6.17
391.512	5.99
391.72	5.66
391.927	7.41
392.135	7.82
392.342	8.17
392.549	8.24
392.756	8.32
392.964	8.65
393.171	7.98
393.378	8.36
393.586	9.01
393.793	9.99
394	10.72
394.207	9.63
394.414	9.46
394.622	9.33
394.829	8.53
395.036	8.18
395.243	7.46
395.45	8.38
395.657	7.75
395.864	7.54
396.072	6.8
396.279	7.23
396.486	6.35
396.693	5.71
396.9	6.17
397.107	6.95
397.314	8.07
397.521	8.54
397.728	8.59
397.935	8.62
398.142	8.57
398.349	7.27
398.556	7.33
398.763	8.63
398.97	9.07
399.177	8.58
399.383	8.88
399.59	8.84
399.797	8.82
400.004	9.13
400.211	10.05
400.418	10.63
400.625	11.7
400.831	11.08
401.038	10.65
401.245	10.14
401.452	10.9
401.658	10.21
401.865	9.12
402.072	8.89
402.279	8.08
402.485	6.83
402.692	7.14
402.899	6.45
403.105	6.69
403.312	7.51
403.519	7.56
403.725	7.21
403.932	8.21
404.138	7.48
404.345	8.07
404.552	8.41
404.758	9.4
404.965	8.5
405.171	9.46
405.378	9.54
405.584	9.2
405.791	9.98
405.997	9.41
406.204	8.51
406.41	8.3
406.617	7.58
406.823	7.57
407.029	7.65
407.236	7.91
407.442	7.33
407.649	7.41
407.855	6.97
408.061	6.34
408.268	7.55
408.474	8.24
408.68	9.48
408.887	10.1
409.093	10.1
409.299	9.28
409.505	9.73
409.712	10.53
409.918	10.92
410.124	10.93
410.33	10.87
410.537	11.06
410.743	11.48
410.949	11.52
411.155	11.8
411.361	13.17
411.567	13.82
411.773	14.45
411.98	13.89
412.186	13.37
412.392	14.44
412.598	15.04
412.804	14.72
413.01	14.07
413.216	13.45
413.422	13.22
413.628	11.82
413.834	11.39
414.04	11.07
414.246	10.98
414.452	10.99
414.658	9.76
414.864	9.39
415.07	10.12
415.275	9.81
415.481	11.1
415.687	10.37
415.893	10.24
416.099	11.07
416.305	10.97
416.511	12.17
416.716	12.41
416.922	12.53
417.128	12.52
417.334	11.99
417.539	12.34
417.745	12.16
417.951	13.09
418.157	13.33
418.362	12.67
418.568	12.92
418.774	12.5
418.979	12.09
419.185	12.12
419.391	12.41
419.596	11.99
419.802	12.33
420.008	11.98
420.213	11.77
420.419	11.55
420.624	11.93
420.83	11.87
421.035	11.61
421.241	12.33
421.446	12.47
421.652	12.48
421.857	12.9
422.063	12.48
422.268	12.5
422.474	11.92
422.679	12.33
422.885	12.28
423.09	11.9
423.295	12.15
423.501	11.35
423.706	11.4
423.911	11.29
424.117	10.94
424.322	10.92
424.527	10.86
424.733	11.05
424.938	10.99
425.143	10.8
425.349	10.74
425.554	11
425.759	11.47
425.964	11.38
426.169	11.81
426.375	12.1
426.58	12.6
426.785	12.64
426.99	12.52
427.195	12.13
427.4	12.25
427.605	12.17
427.811	12.36
428.016	12.17
428.221	12.13
428.426	11.79
428.631	11.56
428.836	11.24
429.041	11.16
429.246	11.56
429.451	11.14
429.656	11.98
429.861	12.77
430.066	12.39
430.271	12.81
430.476	12.52
430.681	12.43
430.886	12.07
431.09	12.39
431.295	12.54
431.5	12.54
431.705	13.3
431.91	12.49
432.115	12.55
432.32	12.5
432.524	12.64
432.729	12.43
432.934	12.05
433.139	12.46
433.343	12.48
433.548	12.21
433.753	11.38
433.958	11.38
434.162	11.39
434.367	11.76
434.572	11.02
434.776	10.57
434.981	11.11
435.186	12.04
435.39	12.2
435.595	11.86
435.799	12.12
436.004	12.91
436.209	12.77
436.413	12.72
436.618	11.73
436.822	12.14
437.027	11.67
437.231	11.93
437.436	11.26
437.64	11.2
437.845	11.33
438.049	11.57
438.253	11.56
438.458	11.61
438.662	11.36
438.867	11.45
439.071	11.09
439.275	11.47
439.48	11.31
439.684	11.14
439.888	10.76
440.093	10.52
440.297	10.54
440.501	10.5
440.706	10.03
440.91	10.07
441.114	9.88
441.318	10.14
441.523	9.92
441.727	9.89
441.931	10.21
442.135	11.09
442.339	11.05
442.543	11.08
442.748	11.23
442.952	11.69
443.156	12.08
443.36	12.43
443.564	12.51
443.768	12.48
443.972	11.97
444.176	12.64
444.38	12.37
444.584	12.7
444.788	12.75
444.992	12.59
445.196	12.83
445.4	12.7
445.604	12.81
445.808	12.56
446.012	13.07
446.216	13.23
446.42	12.37
446.624	12.25
446.828	11.71
447.032	11.93
447.235	11.81
447.439	11.52
447.643	11.37
447.847	10.89
448.051	10.79
448.254	10.2
448.458	11.09
448.662	11.46
448.866	11.47
449.069	12.2
449.273	11.38
449.477	11.97
449.681	11.86
449.884	12.05
450.088	12.19
450.292	12.9
450.495	13.15
450.699	12.23
450.902	12.43
451.106	12.89
451.31	12.59
451.513	12.55
451.717	12.27
451.92	12.34
452.124	12.5
452.327	12.36
452.531	11.75
452.734	11.91
452.938	12.29
453.141	11.98
453.345	11.79
453.548	12.22
453.752	12.66
453.955	13.14
454.158	13.56
454.362	12.97
454.565	13.59
454.769	14.09
454.972	12.86
455.175	12.77
455.379	13.07
455.582	12.33
455.785	11.86
455.988	11.59
456.192	11.05
456.395	11.01
456.598	11.81
456.801	11.79
457.005	11.53
457.208	12.29
457.411	12.17
457.614	12.01
457.817	12.35
458.021	12.35
458.224	11.86
458.427	12.07
458.63	11.52
458.833	11.23
459.036	10.82
459.239	11.11
459.442	10.95
459.645	11.17
459.848	11.27
460.051	11.18
460.254	11.55
460.457	11.95
460.66	11.52
460.863	11.99
461.066	12.38
461.269	12.47
461.472	11.89
461.675	12.42
461.878	12.09
462.081	12.18
462.284	12.06
462.486	11.69
462.689	11.31
462.892	11.45
463.095	11.21
463.298	10.14
463.5	10.69
463.703	11.22
463.906	10.81
464.109	10.25
464.311	9.89
464.514	9.87
464.717	9.42
464.92	10.39
465.122	10.62
465.325	10.51
465.528	10.77
465.73	10.64
465.933	10.77
466.135	10.28
466.338	10.92
466.541	10.76
466.743	11.66
466.946	11.66
467.148	11.32
467.351	11.6
467.553	11.63
467.756	11.6
467.958	11.62
468.161	11.21
468.363	12.19
468.566	12.16
468.768	12.46
468.971	11.48
469.173	12.28
469.375	12.47
469.578	12.33
469.78	12.2
469.983	12.13
470.185	11.97
470.387	11.95
470.59	12.08
470.792	11.59
470.994	11.48
471.196	11.62
471.399	10.82
471.601	10.78
471.803	10.47
472.005	10.63
472.208	11.02
472.41	10.86
472.612	11.26
472.814	10.55
473.016	10.85
473.218	11
473.421	11.23
473.623	11.26
473.825	10.79
474.027	10.55
474.229	10.13
474.431	9.63
474.633	10.32
474.835	10.21
475.037	10.36
475.239	10.54
475.441	10.67
475.643	10.3
475.845	10.58
476.047	10.95
476.249	11.1
476.451	11.73
476.653	12.41
476.855	12.36
477.057	12.3
477.258	12.28
477.46	12.17
477.662	12.02
477.864	12.69
478.066	12.23
478.268	12.04
478.469	11.87
478.671	12.06
478.873	11.92
479.075	11.51
479.276	11.85
479.478	12.33
479.68	12.03
479.882	11.97
480.083	12.12
480.285	12.45
480.487	12.79
480.688	13.18
480.89	12.7
481.091	12.63
481.293	12.55
481.495	12.2
481.696	12.07
481.898	12.25
482.099	12.31
482.301	12.06
482.502	12.18
482.704	12.07
482.905	11.98
483.107	12.14
483.308	12.24
483.51	12.36
483.711	12.54
483.913	12.55
484.114	12.59
484.315	12.59
484.517	12.63
484.718	12.62
484.92	12.74
485.121	12.66
485.322	12.63
485.524	12.56
485.725	12.46
485.926	12.31
486.127	12.37
486.329	12.29
486.53	12.33
486.731	12.18
486.932	12.17
487.134	12.18
487.335	12.51
487.536	12.48
487.737	12.54
487.938	12.59
488.139	12.34
488.341	12.33
488.542	12.44
488.743	12.25
488.944	12.24
489.145	12.22
489.346	12.01
489.547	11.65
489.748	11.67
489.949	11.53
490.15	11.64
490.351	11.89
490.552	11.75
490.753	11.83
490.954	11.84
491.155	12.06
491.356	11.97
491.557	11.95
491.758	12.02
491.959	12.29
492.159	12.37
492.36	12.28
492.561	12.42
492.762	12.37
492.963	12.2
493.164	12.35
493.364	12.29
493.565	12.45
493.766	12.67
493.967	12.73
494.167	12.19
494.368	12.28
494.569	12.02
494.769	11.54
494.97	11.43
495.171	11.61
495.371	11.58
495.572	11.36
495.773	11.32
495.973	11.36
496.174	11.15
496.375	11.39
496.575	11.65
496.776	11.9
496.976	11.99
497.177	12.33
497.377	12.28
497.578	12.05
497.778	12.21
497.979	11.99
498.179	12.04
498.38	12.34
498.58	11.9
498.78	11.87
498.981	11.96
499.181	12.31
499.382	12.15
499.582	12.2
499.782	12.38
499.983	12.56
500.183	12.89
500.383	13.09
500.584	12.95
500.784	13.42
500.984	13.49
501.184	13.18
501.385	13.24
501.585	13.61
501.785	13.66
501.985	14.13
502.185	13.7
502.386	14.05
502.586	13.7
502.786	13.86
502.986	13.6
503.186	12.91
503.386	12.73
503.586	12.78
503.786	12.44
503.987	12.1
504.187	11.65
504.387	12.19
504.587	12.08
504.787	12.36
504.987	12.55
505.187	12.99
505.387	13.32
505.587	13.9
505.786	13.66
505.986	13.79
506.186	13.87
506.386	13.73
506.586	13.67
506.786	13.78
506.986	13.96
507.186	13.79
507.386	13.68
507.585	13.46
507.785	13.57
507.985	14.08
508.185	14.16
508.384	14.08
508.584	14.46
508.784	14.43
508.984	14.48
509.183	14.33
509.383	14.72
509.583	14.07
509.782	14.46
509.982	14.24
510.182	13.81
510.381	13.69
510.581	13.73
510.781	13.6
510.98	13.65
511.18	13.24
511.379	13.24
511.579	12.87
511.778	13.59
511.978	13.36
512.177	13.57
512.377	13.76
512.576	13.99
512.776	14.37
512.975	14.5
513.175	14.54
513.374	14.55
513.573	14.22
513.773	14.32
513.972	14.39
514.172	14.64
514.371	14.45
514.57	14.8
514.77	14.8
514.969	14.77
515.168	15
515.367	15.15
515.567	15.5
515.766	15.94
515.965	15.55
516.164	15.45
516.364	15.36
516.563	15.34
516.762	15.34
516.961	15.59
517.16	15.44
517.359	15.55
517.559	15.34
517.758	15.16
517.957	15.06
518.156	15.5
518.355	15.69
518.554	15.9
518.753	16.07
518.952	16.22
519.151	15.89
519.35	15.95
519.549	15.88
519.748	16.21
519.947	16.33
520.146	16.51
520.345	16.41
520.544	16.24
520.743	16.24
520.942	16.72
521.141	16.42
521.339	16.69
521.538	16.68
521.737	16.48
521.936	16.42
522.135	16.44
522.333	16.53
522.532	16.76
522.731	17.04
522.93	17.06
523.129	16.73
523.327	16.92
523.526	17
523.725	17.21
523.923	17.35
524.122	17.34
524.321	17.55
524.519	17.66
524.718	17.54
524.917	17.28
525.115	17.32
525.314	17.39
525.512	17.44
525.711	17.41
525.909	17.59
526.108	17.77
526.306	17.66
526.505	17.9
526.703	17.8
526.902	17.71
527.1	17.86
527.299	17.74
527.497	17.76
527.696	17.9
527.894	17.93
528.092	17.96
528.291	18
528.489	17.93
528.688	17.89
528.886	18.07
529.084	18.23
529.283	18.41
529.481	18.57
529.679	18.63
529.877	18.54
530.076	18.6
530.274	18.64
530.472	18.53
530.67	18.76
530.869	18.61
531.067	18.4
531.265	18.35
531.463	18.17
531.661	18.25
531.859	18.14
532.057	18.11
532.255	18.16
532.454	18.24
532.652	18.07
532.85	18.15
533.048	18.38
533.246	18.39
533.444	18.51
533.642	18.5
533.84	18.58
534.038	18.67
534.236	19.1
534.434	19.15
534.632	19.09
534.83	19.49
535.027	19.68
535.225	19.63
535.423	19.76
535.621	19.69
535.819	19.68
536.017	19.92
536.215	20.15
536.412	19.79
536.61	19.84
536.808	20.08
537.006	20.11
537.203	19.99
537.401	19.59
537.599	19.82
537.797	20.03
537.994	20.16
538.192	19.8
538.39	19.59
538.587	19.5
538.785	19.49
538.983	19.09
539.18	19.36
539.378	19.51
539.575	19.98
539.773	19.75
539.97	19.63
540.168	19.92
540.366	20.02
540.563	20.22
540.761	20.02
540.958	19.92
541.155	19.98
541.353	19.82
541.55	19.62
541.748	19.59
541.945	19.75
542.143	19.7
542.34	19.23
542.537	19.07
542.735	18.75
542.932	19.01
543.129	19.26
543.327	19.33
543.524	19.09
543.721	19.37
543.919	18.99
544.116	18.55
544.313	18.58
544.51	19.25
544.708	19.53
544.905	19.75
545.102	19.72
545.299	19.62
545.496	19.63
545.693	19.66
545.891	19.42
546.088	19.79
546.285	20.15
546.482	19.92
546.679	19.45
546.876	19.45
547.073	20.04
547.27	19.92
547.467	19.99
547.664	20.39
547.861	20.44
548.058	20.78
548.255	20.53
548.452	20.4
548.649	21.09
548.846	21.21
549.043	20.97
549.24	19.91
549.437	20.42
549.633	19.81
549.83	19.35
550.027	19.82
550.224	19.83
550.421	20.21
550.618	20.62
550.814	20.38
551.011	20.66
551.208	20.42
551.405	20.91
551.601	20.09
551.798	20.48
551.995	20.37
552.191	20.02
552.388	19.68
552.585	19.44
552.781	19.25
552.978	19.34
553.175	19.05
553.371	19.52
553.568	19.71
553.764	20.17
553.961	20.5
554.157	20.28
554.354	20.51
554.55	20.96
554.747	21.4
554.943	21.28
555.14	21.12
555.336	21.2
555.533	20.88
555.729	20.42
555.926	20.8
556.122	20.99
556.318	21.44
556.515	21.78
556.711	21.49
556.907	21.02
557.104	20.9
557.3	21.34
557.496	21.51
557.693	21.65
557.889	21.71
558.085	21.37
558.281	20.85
558.478	20.47
558.674	20.04
558.87	20.3
559.066	20.64
559.262	21.38
559.459	20.81
559.655	20.6
559.851	20.73
560.047	20.02
560.243	19.88
560.439	19.92
560.635	20.71
560.831	21.46
561.027	21.55
561.223	21.73
561.419	21.39
561.615	21.99
561.811	21.62
562.007	21.59
562.203	22.77
562.399	22.7
562.595	22.76
562.791	22.38
562.987	22.11
563.183	22.27
563.379	22.4
563.575	22.54
563.771	21.73
563.966	22.46
564.162	22.54
564.358	22.45
564.554	22.91
564.75	22.92
564.945	23.61
565.141	23.69
565.337	23.81
565.533	23.4
565.728	23.77
565.924	24.58
566.12	24.52
566.315	24.43
566.511	24.72
566.707	24.92
566.902	25.21
567.098	24.76
567.293	24.6
567.489	24.5
567.684	24.59
567.88	23.68
568.076	23.4
568.271	23.4
568.467	24.13
568.662	23.42
568.858	23.5
569.053	23.62
569.248	23.56
569.444	24.03
569.639	24.05
569.835	24.34
570.03	24.98
570.225	24.82
570.421	24.83
570.616	24.63
570.812	24.7
571.007	24.96
571.202	24.9
571.397	24.88
571.593	24.45
571.788	24.54
571.983	24.04
572.178	23.69
572.374	23.7
572.569	23.27
572.764	23.13
572.959	23.69
573.154	23.42
573.35	23.79
573.545	23.48
573.74	24.02
573.935	23.77
574.13	23.92
574.325	24.3
574.52	24.31
574.715	24.8
574.91	24.91
575.105	24.78
575.3	24.92
575.495	24.78
575.69	25.21
575.885	24.51
576.08	24.88
576.275	25.59
576.47	25.65
576.665	26.17
576.86	25.76
577.055	25.04
577.25	25.23
577.444	24.52
577.639	23.7
577.834	23.82
578.029	24.13
578.224	23.71
578.418	23.56
578.613	23.92
578.808	23.72
579.003	24.33
579.197	25.37
579.392	25.56
579.587	26.6
579.781	27.3
579.976	27.37
580.171	27.95
580.365	28.2
580.56	27.77
580.755	27.53
580.949	27.49
581.144	27.17
581.338	26.97
581.533	26.61
581.727	25.6
581.922	25.53
582.116	24.88
582.311	24.4
582.505	25
582.7	25.69
582.894	25.24
583.089	25.41
583.283	24.74
583.478	24.37
583.672	23.8
583.866	24.11
584.061	23.89
584.255	25.74
584.449	25.82
584.644	24.69
584.838	24.72
585.032	24.83
585.226	24.09
585.421	25.75
585.615	25.88
585.809	26.16
586.003	26.17
586.198	26.71
586.392	25.93
586.586	26.06
586.78	27.01
586.974	26.37
587.168	26.66
587.363	27.67
587.557	27.33
587.751	27.53
587.945	27.92
588.139	28.84
588.333	28.39
588.527	27.73
588.721	27.52
588.915	27.91
589.109	27.78
589.303	27.85
589.497	27.79
589.691	27.8
589.885	27.93
590.079	27.66
590.273	26.64
590.466	26.54
590.66	26.18
590.854	26.39
591.048	25.35
591.242	25.98
591.436	25.23
591.629	24.92
591.823	24.53
592.017	24.3
592.211	24.18
592.404	24.3
592.598	24.1
592.792	24.75
592.986	25.15
593.179	25.92
593.373	26.5
593.567	26.75
593.76	27.03
593.954	27.84
594.147	27.96
594.341	28.42
594.535	28.35
594.728	28.76
594.922	28.43
595.115	28.07
595.309	27.92
595.502	27.39
595.696	27.69
595.889	27.53
596.083	27.47
596.276	27.13
596.47	27.49
596.663	28.08
596.856	28.47
597.05	28.45
597.243	28.27
597.437	27.88
597.63	27.23
597.823	27.09
598.017	27.74
598.21	27.28
598.403	28.19
598.596	27.07
598.79	26.57
598.983	26.66
599.176	27.03
599.369	27.35
599.563	27.15
599.756	28
599.949	27.68
600.142	26.9
600.335	26.99
600.528	26.55
600.722	27.26
600.915	27.65
601.108	26.75
601.301	27.45
601.494	27.64
601.687	27.5
601.88	27.73
602.073	28.03
602.266	28.24
602.459	28.73
602.652	28.71
602.845	28.55
603.038	28.49
603.231	28.66
603.424	28.52
603.617	28.12
603.809	28.56
604.002	28.92
604.195	29.3
604.388	29.26
604.581	29.19
604.774	28.89
604.966	28.69
605.159	28.29
605.352	28.9
605.545	28.25
605.737	28.57
605.93	28.42
606.123	27.55
606.316	26.85
606.508	27.03
606.701	26.48
606.894	26.79
607.086	27.1
607.279	27.19
607.471	27.61
607.664	28
607.857	28.09
608.049	28.83
608.242	29
608.434	30.04
608.627	30.07
608.819	30.27
609.012	30.5
609.204	30.44
609.397	30.94
609.589	30.46
609.782	30.45
609.974	29.72
610.166	28.56
610.359	28.53
610.551	28.13
610.743	28.36
610.936	28.84
611.128	27.85
611.32	27.81
611.513	27.7
611.705	27.96
611.897	27.68
612.09	28.54
612.282	29.82
612.474	30.23
612.666	29.12
612.858	28.82
613.051	28.13
613.243	28.16
613.435	27.01
613.627	26.06
613.819	26.29
614.011	25.79
614.203	25.13
614.395	24.02
614.588	24.23
614.78	24.63
614.972	24.25
615.164	23.9
615.356	25.94
615.548	27.44
615.74	28.31
615.932	27.15
616.124	28.17
616.315	29.13
616.507	29.69
616.699	29.2
616.891	29.33
617.083	29.13
617.275	29.11
617.467	27.93
617.659	27.67
617.85	26.87
618.042	26.84
618.234	26.89
618.426	26.05
618.618	25.84
618.809	25.7
619.001	26.17
619.193	26.11
619.384	27.07
619.576	26.68
619.768	27.34
619.959	27.39
620.151	27.21
620.343	26.79
620.534	27.46
620.726	27.58
620.917	27.09
621.109	27.21
621.301	28.34
621.492	27.83
621.684	27.9
621.875	26.59
622.067	27.62
622.258	28.05
622.45	27.71
622.641	27.22
622.832	27.05
623.024	27.34
623.215	26.6
623.407	25.38
623.598	25.36
623.789	25.31
623.981	25.62
624.172	25.26
624.363	25.97
624.555	26.98
624.746	26.48
624.937	27.43
625.129	27.72
625.32	27.34
625.511	27.69
625.702	28.28
625.893	28
626.085	28.81
626.276	28.73
626.467	28.17
626.658	28.21
626.849	29
627.04	28.2
627.231	28.54
627.422	29.34
627.614	29.46
627.805	28.68
627.996	29.02
628.187	29.07
628.378	29.52
628.569	29.78
628.76	29.19
628.951	28.95
629.142	29.55
629.332	28.92
629.523	28.45
629.714	28.06
629.905	28.9
630.096	28.9
630.287	28.48
630.478	28.2
630.669	27.47
630.859	27.13
631.05	27.45
631.241	27.84
631.432	27.59
631.623	27.41
631.813	28.41
632.004	28.76
632.195	28.82
632.385	29.03
632.576	28.67
632.767	30.51
632.957	30.88
633.148	31.14
633.339	30.15
633.529	30.5
633.72	31.3
633.91	31.05
634.101	30.62
634.292	31.25
634.482	31.49
634.673	31.67
634.863	29.99
635.054	30.11
635.244	29.4
635.435	29.8
635.625	30.61
635.815	31.49
636.006	30.76
636.196	30
636.387	29.14
636.577	29.24
636.767	28.92
636.958	30.01
637.148	30.62
637.338	30.48
637.529	30.84
637.719	29.91
637.909	28.37
638.099	28.59
638.29	29.92
638.48	29.47
638.67	28.3
638.86	30.04
639.05	29.78
639.241	28.45
639.431	29.32
639.621	30
639.811	29.49
640.001	29.79
640.191	30.51
640.381	29.06
640.571	30.35
640.761	30.58
640.951	28.86
641.141	29.16
641.331	29.61
641.521	28.44
641.711	27.37
641.901	27.99
642.091	27.98
642.281	27.15
642.471	28.12
642.661	27.54
642.851	28.87
643.041	29.66
643.231	28.74
643.42	29.43
643.61	29.77
643.8	29.22
643.99	29.42
644.18	29.69
644.369	30.25
644.559	30.06
644.749	29.85
644.939	29.14
645.128	29.55
645.318	30.11
645.508	30.21
645.697	30.71
645.887	31.9
646.076	31.87
646.266	31.08
646.456	31.26
646.645	31.37
646.835	31.69
647.024	31.27
647.214	30.17
647.403	30.15
647.593	29.7
647.782	28.93
647.972	28.47
648.161	27.72
648.351	28.93
648.54	29.43
648.73	28.59
648.919	29.87
649.108	30.2
649.298	30.47
649.487	30.49
649.677	30.33
649.866	31.53
650.055	31.85
650.244	32.47
650.434	32.34
650.623	31.51
650.812	32.17
651.002	31.07
651.191	30.12
651.38	29.71
651.569	29.03
651.758	29.07
651.947	28.6
652.137	28.16
652.326	27.97
652.515	27.41
652.704	27.35
652.893	26.85
653.082	26.98
653.271	27.34
653.46	28.59
653.649	29.02
653.838	29.23
654.027	29.77
654.216	30.21
654.405	30.34
654.594	30.23
654.783	31.2
654.972	32.7
655.161	32.96
655.35	33.26
655.539	32.94
655.728	31.5
655.916	30.89
656.105	31.11
656.294	30.87
656.483	30.78
656.672	31.93
656.86	31.61
657.049	29.22
657.238	29.19
657.427	29.93
657.615	29.8
657.804	31.2
657.993	32.14
658.181	31.62
658.37	32.26
658.559	31.69
658.747	30.75
658.936	29.75
659.125	30.87
659.313	30.64
659.502	30.36
659.69	30.68
659.879	30.91
660.067	31.05
660.256	31.81
660.444	30.96
660.633	31.5
660.821	32.05
661.01	32.88
661.198	32.75
661.387	32.48
661.575	32.24
661.763	31.71
661.952	31.71
662.14	31.07
662.328	29.87
662.517	29.62
662.705	29.23
662.893	28.13
663.082	28.67
663.27	28.6
663.458	28.88
663.646	28.49
663.834	28.75
664.023	26.95
664.211	26.17
664.399	25.91
664.587	26.9
664.775	29.06
664.963	30.59
665.152	30.1
665.34	31.48
665.528	30.39
665.716	30.03
665.904	30.89
666.092	32.82
666.28	32.79
666.468	32.94
666.656	32.48
666.844	30.57
667.032	29.19
667.22	29.14
667.408	26.87
667.596	28.57
667.784	30.35
667.971	29.79
668.159	29.44
668.347	30.1
668.535	31
668.723	31.15
668.911	32
669.098	32.32
669.286	32.07
669.474	34.12
669.662	33.84
669.849	32.37
670.037	31.13
670.225	31.34
670.413	31.6
670.6	31.07
670.788	31.5
670.976	31
671.163	30.92
671.351	30.61
671.538	30.63
671.726	30.15
671.913	30.41
672.101	30.79
672.289	30.44
672.476	31.11
672.664	30.33
672.851	29.8
673.039	28.72
673.226	27.67
673.413	28.36
673.601	28.06
673.788	27.6
673.976	28.09
674.163	29.13
674.35	29.29
674.538	27.67
674.725	28.77
674.912	29.07
675.1	29.66
675.287	31.63
675.474	30.56
675.662	29.81
675.849	29.95
676.036	30.08
676.223	28.88
676.411	30.2
676.598	29.69
676.785	29.12
676.972	29.09
677.159	29.2
677.346	29.01
677.533	30.09
677.721	30.2
677.908	29.78
678.095	29.93
678.282	30.97
678.469	30.3
678.656	31.16
678.843	32.23
679.03	32.22
679.217	32.95
679.404	32.49
679.591	32.65
679.778	32.35
679.964	33.88
680.151	33.61
680.338	34.26
680.525	32.67
680.712	33.15
680.899	33.46
681.086	31.52
681.272	30.89
681.459	29.52
681.646	29.8
681.833	30.26
682.02	29.46
682.206	28.6
682.393	27.02
682.58	28.1
682.766	27.86
682.953	25.95
683.14	27.69
683.326	28.14
683.513	29.17
683.7	28.61
683.886	28.08
684.073	27.2
684.259	28.08
684.446	28.74
684.632	28.82
684.819	28.26
685.005	28.56
685.192	29.15
685.378	29.81
685.565	29.55
685.751	30.28
685.938	30.12
686.124	30.86
686.31	30.89
686.497	31.08
686.683	31.26
686.87	31.89
687.056	31.64
687.242	31.17
687.429	30.31
687.615	30.24
687.801	30.26
687.987	29.84
688.174	30.81
688.36	29.45
688.546	29.51
688.732	29.44
688.918	29.37
689.105	30.03
689.291	30.7
689.477	30.72
689.663	30.98
689.849	29.68
690.035	30.53
690.221	29.67
690.407	31.09
690.593	30.06
690.779	30.12
690.965	29.66
691.151	29.35
691.337	29.33
691.523	27.81
691.709	28.75
691.895	29.1
692.081	29.73
692.267	28.66
692.453	27.69
692.639	28
692.825	28.6
693.011	29.18
693.196	29.04
693.382	27.86
693.568	29.19
693.754	27.47
693.94	28.82
694.125	27.84
694.311	28.18
694.497	28.59
694.682	28.65
694.868	27.14
695.054	26.66
695.239	26.49
695.425	28.61
695.611	28.62
695.796	29.2
695.982	29.61
696.168	29.82
696.353	29.95
696.539	31.01
696.724	32.59
696.91	32.78
697.095	32.3
697.281	32.98
697.466	33.02
697.652	33.65
697.837	33.4
698.023	32.34
698.208	32.02
698.393	32.25
698.579	31.52
698.764	30.2
698.949	31.79
699.135	32.58
699.32	31.93
699.505	30.82
699.691	29.71
699.876	30.9
700.061	31.26
700.246	32.01
700.432	32.88
700.617	32.8
700.802	33.27
700.987	31.74
701.172	31.64
701.358	32.23
701.543	31.27
701.728	31.97
701.913	30.95
702.098	29.83
702.283	28.48
702.468	26.99
702.653	28
702.838	28.66
703.023	27.53
703.208	28.65
703.393	28.89
703.578	27.89
703.763	28.33
703.948	29.23
704.133	31.03
704.318	30.77
704.503	31.4
704.688	30.73
704.873	29.06
705.057	30.03
705.242	27.79
705.427	27.04
705.612	28.39
705.797	28.3
705.981	28.4
706.166	25.85
706.351	26
706.536	26.07
706.72	26.73
706.905	26.09
707.09	26.34
707.274	26.94
707.459	28.01
707.644	28.77
707.828	27.4
708.013	27.33
708.197	29.72
708.382	31.21
708.567	31.27
708.751	29.4
708.936	32.36
709.12	32.04
709.305	33.2
709.489	31.92
709.673	30.48
709.858	32.34
710.042	31.81
710.227	30.35
710.411	29.74
710.596	28.87
710.78	31.05
710.964	29.67
711.149	30.36
711.333	30.01
711.517	31.21
711.702	32.84
711.886	31.07
712.07	31.46
712.254	32.39
712.438	32.76
712.623	32.25
712.807	31.96
712.991	32.82
713.175	32.53
713.359	31.25
713.544	30.67
713.728	28.67
713.912	30.73
714.096	30.97
714.28	30.59
714.464	29.22
714.648	30.61
714.832	30.7
715.016	29.82
715.2	29.83
715.384	30.12
715.568	30.71
715.752	32.7
715.936	31.74
716.12	31.05
716.304	30.93
716.488	32.84
716.671	31.4
716.855	30.07
717.039	29.11
717.223	28.02
717.407	28.85
717.59	29.39
717.774	28.75
717.958	29.01
718.142	28.52
718.325	29.03
718.509	28.47
718.693	29.38
718.877	29.33
719.06	27.75
719.244	29.8
719.428	30.52
719.611	29.81
719.795	29.47
719.978	26.94
720.162	27.04
720.345	27.75
720.529	27.79
720.713	28.61
720.896	30.48
721.08	33.09
721.263	31.65
721.446	30.93
721.63	31.06
721.813	31.5
721.997	33.66
722.18	33.99
722.364	31.03
722.547	28.55
722.73	29.09
722.914	28.31
723.097	28.92
723.28	28.06
723.464	28.71
723.647	27.4
723.83	27.14
724.013	26.91
724.197	25.86
724.38	27.52
724.563	28.96
724.746	27.16
724.929	25.12
725.112	21.69
725.296	22.4
725.479	23.58
725.662	24.55
725.845	26.27
726.028	25.78
726.211	27.36
726.394	26.75
726.577	27.17
726.76	28.87
726.943	30.64
727.126	33.22
727.309	32.72
727.492	30.07
727.675	30.4
727.858	26.63
728.041	26.53
728.224	25.73
728.407	26.42
728.589	29.18
728.772	29.67
728.955	28.62
729.138	29.44
729.321	28.64
729.503	27.02
729.686	26.27
729.869	27.77
730.052	27.33
730.234	28.64
730.417	29.07
730.6	27.54
730.782	25.25
730.965	26.27
731.148	24.22
731.33	27.49
731.513	28.45
731.695	30.86
731.878	31.52
732.061	31.41
732.243	31.51
732.426	29.58
732.608	27.21
732.791	28.44
732.973	28.91
733.156	29.36
733.338	25.68
733.52	27.36
733.703	26.58
733.885	26.86
734.068	32.31
734.25	31.52
734.432	32.91
734.615	35.25
734.797	35.68
734.979	33.95
735.162	35.22
735.344	35.8
735.526	35.02
735.708	36.36
735.891	36.16
736.073	29.94
736.255	30.93
736.437	30.65
736.619	32.2
736.802	31.9
736.984	34.21
737.166	32.81
737.348	32.04
737.53	31.25
737.712	26.62
737.894	25.31
738.076	26.87
738.258	26.11
738.44	27.68
738.622	24.3
738.804	24.35
738.986	23.4
739.168	25.31
739.35	26.56
739.532	26
739.714	28.31
739.896	27.45
740.078	28.6
740.259	30.3
740.441	28.62
740.623	28.96
740.805	29.42
740.987	27.19
741.168	22.93
741.35	23.8
741.532	25.74
741.714	24.31
741.895	27.1
742.077	26.45
742.259	22.58
742.44	21.83
742.622	22.67
742.804	20.99
742.985	21.84
743.167	24.98
743.348	22.27
743.53	24.33
743.711	22.72
743.893	24.6
744.075	24
744.256	28.9
744.438	28.15
744.619	26.73
744.8	26.5
744.982	31.35
745.163	31.73
745.345	34.88
745.526	33.52
745.707	35.67
745.889	31.47
746.07	31.93
746.252	30.09
746.433	34.39
746.614	35.73
746.795	33.6
746.977	26.27
747.158	25.19
747.339	26.26
747.52	25.45
747.702	24.69
747.883	25.33
748.064	26.37
748.245	25.38
748.426	25.68
748.607	25.88
748.788	25.28
748.97	28.4
749.151	29.77
749.332	26.94
749.513	24.2
749.694	21.85
749.875	22.67
750.056	22.46
750.237	23.86
750.418	21.83
750.599	20.15
750.78	23.34
750.96	20.7
751.141	23.96
751.322	25.06
751.503	24.75
751.684	26.87
751.865	30.54
752.046	26.91
752.226	25.49
752.407	20.7
752.588	23.47
752.769	26.9
752.949	30.59
753.13	26.08
753.311	28.8
753.492	31.29
753.672	32.45
753.853	30.78
754.034	33.25
754.214	28.78
754.395	32.75
754.575	30.82
754.756	26.19
754.937	22.77
755.117	23.65
755.298	23.07
755.478	25.37
755.659	24.11
755.839	24.53
756.02	25.72
756.2	30.53
756.381	31.74
756.561	31.19
756.741	32.46
756.922	33.17
757.102	34.32
757.283	31.49
757.463	31.12
757.643	32.25
757.823	27.37
758.004	29.88
758.184	30.25
758.364	29.34
758.545	29.85
758.725	26.38
758.905	27.22
759.085	28.42
759.265	29.93
759.446	29.5
759.626	25.87
759.806	29.25
759.986	26.55
760.166	25.03
760.346	24.26
760.526	26.24
760.706	29.8
760.886	32.03
761.066	28.52
761.246	25.65
761.426	25.6
761.606	26.68
761.786	25.8
761.966	26.25
762.146	27.92
762.326	27.61
762.506	27.68
762.686	27.39
762.866	27.13
763.046	30.43
763.225	31.99
763.405	30.54
763.585	32.37
763.765	33.28
763.945	33.37
764.124	32.95
764.304	32.85
764.484	32.06
764.664	31.91
764.843	31.33
765.023	29.61
765.203	31.26
765.382	34.3
765.562	32.99
765.741	32.71
765.921	30.8
766.101	28.88
766.28	32.1
766.46	33.03
766.639	33.51
766.819	29.71
766.998	27.17
767.178	24.16
767.357	24.35
767.537	23.42
767.716	23.59
767.896	22.42
768.075	23.14
768.254	23.61
768.434	21.94
768.613	21.25
768.792	21.35
768.972	20.07
769.151	24.54
769.33	24.15
769.51	25.81
769.689	27.39
769.868	27.91
770.047	28.19
770.226	26.06
770.406	27.01
770.585	28.69
770.764	29.83
770.943	34.66
771.122	30.96
771.301	26.82
771.48	24.82
771.66	21.89
771.839	23.46
772.018	21.99
772.197	22.53
772.376	21.32
772.555	18.34
772.734	19.94
772.913	15.66
773.092	15.69
773.271	17.39
773.449	20.29
773.628	20.05
773.807	18.38
773.986	22.61
774.165	21.21
774.344	22.85
774.523	25.54
774.701	27.97
774.88	27.98
775.059	27.93
775.238	30.71
775.417	28.6
775.595	26.84
775.774	29.16
775.953	28.56
776.131	26.07
776.31	24.76
776.489	28.21
776.667	21.26
776.846	17.7
777.025	20.41
777.203	17.42
777.382	17.23
777.56	22.54
777.739	17.1
777.917	13.88
778.096	16.98
778.274	17.18
778.453	10.77
778.631	14.72
778.81	19.56
778.988	16.43
779.166	13.71
779.345	15.68
779.523	16.2
779.702	23.42
779.88	23.56
780.058	20.87
780.237	18.64
780.415	17.13
780.593	22
780.771	23.84
780.95	23.66
781.128	27.72
781.306	27.51
781.484	28.3
781.662	26.45
781.841	26.02
782.019	26
782.197	30.3
782.375	34.01
782.553	24.84
782.731	23.5
782.909	21.29
783.087	17.68
783.265	18.94
783.443	16.15
783.621	12.32
783.799	10.83
783.977	15.21
784.155	14.35
784.333	12.92
784.511	20.25
784.689	24.3
784.867	25.5
785.045	27.41
785.223	25.7
785.4	27.47
785.578	29.94
785.756	32.69
785.934	30.89
786.112	29.58
786.289	29.16
786.467	27.26
786.645	26.22
786.823	30.16
787	32.78
787.178	32.2
787.356	31.48
787.533	31.01
787.711	33.44
787.889	32.5
788.066	32.7
788.244	33.57
788.421	35.58
788.599	33.18
788.776	32.36
788.954	29.49
789.131	26.32
789.309	24.81
789.486	23.09
789.664	25.33
789.841	26.83
790.019	25.05
790.196	23.45
790.373	19.2
790.551	16.52
790.728	18.69
790.906	14.66
791.083	26.93
791.26	31.96
791.437	31.17
791.615	28.34
791.792	29.39
791.969	29.94
792.146	35.2
792.324	33.77
792.501	34.36
792.678	32.96
792.855	33.63
793.032	29.44
793.209	22.85
793.387	26.05
793.564	28.16
793.741	28.55
793.918	28.85
794.095	27.33
794.272	32.07
794.449	33.74
794.626	30
794.803	31.14
794.98	29.49
795.157	34.82
795.334	33.09
795.511	27.51
795.688	23.57
795.864	25.41
796.041	24.83
796.218	21.21
796.395	21.22
796.572	23.95
796.749	22.98
796.925	22.58
797.102	18.82
797.279	22.42
797.456	20.94
797.632	21.92
797.809	18.69
797.986	17.06
798.162	21.1
798.339	17.01
798.516	21.76
798.692	22.79
798.869	24.32
799.046	25.4
799.222	23.18
799.399	28.03
799.575	25.8
799.752	25.94
799.928	21.65
800.105	16.16
800.281	18.64
800.458	11.91
800.634	14.99
800.811	15.31
800.987	16.87
801.163	17.71
801.34	14.34
801.516	18.77
801.692	15.33
801.869	20.83
802.045	20.73
802.221	28.36
802.398	30.27
802.574	27.11
802.75	24.69
802.926	23.61
803.103	19.85
803.279	20.58
803.455	21.21
803.631	24.66
803.807	28.63
803.983	30.36
804.16	22
804.336	25.7
804.512	30.73
804.688	28.89
804.864	25
805.04	31.62
805.216	29.09
805.392	24.99
805.568	28.5
805.744	16.17
805.92	19.45
806.096	21.13
806.272	9.13
806.448	2.68
806.623	7.37
806.799	12.95
806.975	8.61
807.151	10.74
807.327	15.03
807.503	16.31
807.678	15.94
807.854	12.52
808.03	11.95
808.206	17.24
808.381	19.48
808.557	15.98
808.733	14.16
808.908	14.29
809.084	12.17
809.26	9.45
809.435	5.62
809.611	9.62
809.787	12.37
809.962	7.98
810.138	7.89
810.313	7.81
810.489	9.14
810.664	11.33
810.84	19.06
811.015	18
811.191	17.81
811.366	24.71
811.542	21.72
811.717	21.15
811.892	31.07
812.068	31.3
812.243	35.2
812.419	32.71
812.594	26.97
812.769	16.38
812.944	18.14
813.12	24.28
813.295	10.32
813.47	18.11
813.645	11.18
813.821	5.2
813.996	5.36
814.171	-0.37
814.346	8.01
814.521	15.18
814.697	12.04
814.872	14.21
815.047	6.6
815.222	9.25
815.397	9.83
815.572	14.38
815.747	13.3
815.922	13.82
816.097	13.61
816.272	5.59
816.447	5.47
816.622	2.65
816.797	4.75
816.972	7.22
817.147	16.62
817.322	11.63
817.496	12.64
817.671	6.42
817.846	-1.9
818.021	-4.17
818.196	4.42
818.371	1.24
818.545	8.96
818.72	0.67
818.895	-1.18
819.069	-8.21
819.244	-0.31
819.419	-0.31
819.594	10.7
819.768	16.83
819.943	17.66
820.117	16.38
820.292	18.52
820.467	20.14
820.641	21.64
820.816	24.09
820.99	25.26
821.165	24.84
821.339	26.33
821.514	25.89
821.688	26.16
821.863	27.41
822.037	28.3
822.212	27.48
822.386	27.51
822.56	28.49
822.735	27.56
822.909	28.09
823.084	28.49
823.258	27.51
823.432	27.64
823.606	26.72
823.781	25.58
823.955	25.3
824.129	24.58
824.303	24.29
824.478	23.43
824.652	24.17
824.826	24.52
825	24.05
825.174	25.53
825.348	26.53
825.523	28.71
825.697	28.11
825.871	29.55
826.045	29.79
826.219	29.5
826.393	30.01
826.567	30.86
826.741	27.67
826.915	29.3
827.089	27.3
827.263	25.61
827.437	25.89
827.611	26
827.784	22.93
827.958	26.18
828.132	25.92
828.306	25.29
828.48	20.54
828.654	23.03
828.827	18.46
829.001	18.96
829.175	17.59
829.349	13.81
829.522	9.61
829.696	13.18
829.87	12.13
830.044	14.1
830.217	13.26
830.391	13.93
830.565	9.78
830.738	8.38
830.912	8.57
831.085	10.16
831.259	10.96
831.432	19.2
831.606	15.79
831.779	19.21
831.953	13.93
832.126	19.95
832.3	22.46
832.473	23.33
832.647	24.32
832.82	24.78
832.994	20.42
833.167	19.5
833.34	17.69
833.514	16.53
833.687	15.92
833.86	18.51
834.034	15.79
834.207	13.58
834.38	15.03
834.553	18.52
834.727	17.6
834.9	24.43
835.073	27.64
835.246	27.67
835.419	30.71
835.593	28.18
835.766	28.31
835.939	24.84
836.112	27.71
836.285	29.78
836.458	23.57
836.631	23.31
836.804	21.82
836.977	18.11
837.15	17.66
837.323	13.72
837.496	11.49
837.669	1.17
837.842	1.94
838.015	4.59
838.188	2.9
838.361	6.81
838.533	3.22
838.706	7.56
838.879	15.39
839.052	10.73
839.225	4.5
839.398	13.04
839.57	16.84
839.743	23.77
839.916	22.63
840.088	11.66
840.261	11.17
840.434	13.12
840.607	10.75
840.779	4.49
840.952	7.69
841.124	13.4
841.297	10.73
841.47	10.35
841.642	7.18
841.815	5.62
841.987	13.28
842.16	11.62
842.332	19.1
842.505	17.18
842.677	19.42
842.85	12.52
843.022	13.18
843.194	6.39
843.367	15.76
843.539	11.63
843.712	22.26
843.884	19.46
844.056	15.6
844.229	9.67
844.401	-8
844.573	-18.22
844.745	-14.24
844.918	-4.83
845.09	20.49
845.262	21.99
845.434	16.62
845.606	-18.69
845.779	-26.17
845.951	-18.49
846.123	-22.57
846.295	-4.74
846.467	5.07
846.639	-2.34
846.811	-10.37
846.983	-33.34
847.155	-44
847.327	-23.92
847.499	-7.97
847.671	-6.79
847.843	-3.53
848.015	0.14
848.187	3.5
848.359	-11.41
848.531	-5.73
848.703	-1.21
848.875	-4.56
849.047	-1.61
849.218	-1.29
849.39	-31.58
849.562	-28.64
849.734	-58.13
849.905	-56.19
850.077	-57.74
850.249	-39.27
850.421	-51.43
850.592	-82.82
850.764	-80.56
850.936	-103.72
851.107	-147.9
851.279	-76.7
851.451	-59.84
851.622	-29.3
851.794	-13.43
851.965	-44.74
852.137	-59.81
852.308	-28.51
852.48	-23.42
852.651	-54.93
852.823	-43.18
852.994	-61.8
853.166	-61.83
853.337	-57.46
853.509	-55.54
853.68	-95.61
853.851	-64.35
854.023	-67.73
854.194	-62.15
854.365	-58.53
854.537	-0.78
854.708	-10
854.879	0.96
855.05	1.74
855.222	-4.01
855.393	-2.04
855.564	4.91
855.735	2.14
855.906	12.14
856.078	6.57
856.249	-2.15
856.42	-18.35
856.591	-9.49
856.762	-11.64
856.933	1
857.104	3.23
857.275	9.51
857.446	20.92
857.617	21.77
857.788	17.8
857.959	17.79
858.13	26.35
858.301	6.92
858.472	-3.51
858.643	2.66
858.814	-20.76
858.985	-17.14
859.155	-35.61
859.326	-42.63
859.497	-45.63
859.668	-70.1
859.839	-64.64
860.009	-106.2
860.18	-80.09
860.351	-64.34
860.522	-64.4
860.692	-59.53
860.863	-89.2
861.034	-75.08
861.204	-156.89
861.375	-149.1
861.546	-55.51
861.716	-118.81
861.887	-93.24
862.057	-69.12
862.228	-20.28
862.398	-20.36
862.569	9.87
862.739	-7.58
862.91	-11.55
863.08	-3.93
863.251	0.48
863.421	3.79
863.592	12.17
863.762	18.48
863.932	22.67
864.103	5.65
864.273	-15.01
864.443	-69.33
864.614	-33.54
864.784	-16.25
864.954	-8.38
865.125	-39.64
865.295	-55.11
865.465	-61.91
865.635	-41.62
865.805	-40.18
865.976	-33.24
866.146	-21.64
866.316	-7.78
866.486	-30.68
866.656	-41.53
866.826	-69.42
866.996	-45.38
867.166	-62.43
867.336	-60.34
867.506	-68.34
867.676	-110.32
867.846	-134.48
868.016	-141.73
868.186	-141.1
868.356	-84.41
868.526	-176.71
868.696	-129.99
868.866	-354.54
869.036	-117.51
869.206	-119.1
869.376	-158.14
869.545	-116.47
869.715	-112.02
869.885	-126.13
870.055	-133.21
870.224	-134.6
870.394	-84.28
870.564	-99.11
870.734	-50.92
870.903	-58.84
871.073	-43.34
871.243	-49.58
871.412	-30.94
871.582	-26.49
871.751	-28.83
871.921	-34.36
872.091	-41.28
872.26	-43.31
872.43	-50.5
872.599	-40.44
872.769	-39.39
872.938	-63.39
873.108	-48.34
873.277	-48.04
873.446	-32.82
873.616	-20.7
873.785	-16.29
873.955	-20.2
874.124	-39.77
874.293	-19.48
874.463	-24.52
874.632	-47.16
874.801	-41.37
874.971	-76.75
875.14	-109.34
875.309	-93.06
875.478	-94.17
875.647	-74.84
875.817	-63.8
875.986	-34.83
876.155	-30.08
876.324	-36.88
876.493	-30.1
876.662	-9.35
876.831	2.55
877	18.88
877.17	10.07
877.339	8.25
877.508	5.16
877.677	-2.35
877.846	0.44
878.015	-7.41
878.184	-13.95
878.352	-14.59
878.521	-30.83
878.69	-27.54
878.859	-14.96
879.028	-1.01
879.197	-15.7
879.366	-21.81
879.534	-26.31
879.703	-20.42
879.872	-18.11
880.041	-14.74
880.21	-4.08
880.378	1.29
880.547	5.32
880.716	2.17
880.884	-1.13
881.053	5.06
881.222	6.73
881.39	9.22
881.559	12.58
881.727	15.25
881.896	15.7
882.065	15.18
882.233	14.31
882.402	12.02
882.57	11.59
882.739	16.03
882.907	17.74
883.076	18.68
883.244	20.3
883.412	17.45
883.581	16.13
883.749	15.84
883.918	15.1
884.086	12.36
884.254	15.42
884.423	19.38
884.591	9.44
884.759	4.02
884.927	1.73
885.096	2.65
885.264	1.27
885.432	3.26
885.6	8.88
885.769	9.67
885.937	22.65
886.105	16.93
886.273	8.41
886.441	16
886.609	9.78
886.777	9.27
886.945	-2.12
887.113	-10.25
887.281	-40.07
887.449	-50.17
887.617	-24.7
887.785	-31.28
887.953	-17.94
888.121	-44.81
888.289	-72.42
888.457	-59.48
888.625	-86.39
888.793	-96.01
888.961	-58.34
889.129	-25.93
889.296	-19.85
889.464	-40.42
889.632	-50.13
889.8	-57.48
889.967	-31.56
890.135	-25.38
