Data from JASIL_3277_Reflection_2.txt Node
Date: Tue Nov 17 19:09:41 EST 2015
User: Geneva
Spectrometer: USB4E03002
Autoset integration time: false
Trigger mode: 4
Integration Time (sec): 1.000000E-1
Scans to average: 10
Electric dark correction enabled: false
Nonlinearity correction enabled: false
Boxcar width: 5
Stray light correction enabled: false
XAxis mode: Wavelengths
Stop averaging: false
Number of Pixels in Spectrum: 3648
>>>>>Begin Spectral Data<<<<<
177.575	358.82
177.794	344.44
178.014	394.74
178.233	3100
178.452	-1275
178.672	-82.38
178.891	-70.63
179.11	36.87
179.33	62.03
179.549	51.12
179.768	29.35
179.987	-0
180.207	-169.44
180.426	-173.91
180.645	297.12
180.864	149.27
181.084	111.59
181.303	127.78
181.522	138.31
181.741	112.04
181.96	147.89
182.179	161.41
182.398	195.37
182.618	268.66
182.837	300.53
183.056	-3933.33
183.275	-84.45
183.494	-23.31
183.713	3.2
183.932	-20.54
184.151	-31.12
184.37	-20.88
184.589	-29.31
184.808	-47.88
185.027	-53.67
185.246	-110.4
185.465	-197.57
185.684	-4300
185.903	553.33
186.122	407.97
186.341	263.51
186.56	322.99
186.779	212.22
186.998	141.98
187.216	157.14
187.435	152.96
187.654	188.22
187.873	281.57
188.092	206.69
188.311	121.55
188.53	131.49
188.748	163.1
188.967	174.84
189.186	260.92
189.405	214.68
189.623	178.53
189.842	238.94
190.061	268.28
190.28	163.78
190.498	302.22
190.717	-9737.5
190.936	-586.41
191.154	-332.79
191.373	-202.53
191.592	-3281.82
191.81	453.24
192.029	-1515.38
192.248	4340
192.466	155.13
192.685	482.09
192.904	152.58
193.122	95.03
193.341	122.99
193.559	174.17
193.778	210.65
193.996	220.29
194.215	256.19
194.433	300
194.652	238.72
194.87	742.35
195.089	269.18
195.307	734.09
195.526	2437.93
195.744	-477.19
195.963	369.89
196.181	240.41
196.399	325.4
196.618	221.8
196.836	318.18
197.055	360.87
197.273	517.26
197.491	543.31
197.71	710.43
197.928	1015.07
198.146	246.87
198.365	234.75
198.583	174.29
198.801	201.94
199.019	272.39
199.238	192.29
199.456	147.06
199.674	114.98
199.892	138.58
200.111	119.46
200.329	135.13
200.547	127.51
200.765	159.83
200.983	200.4
201.202	125
201.42	159.22
201.638	161.76
201.856	602.04
202.074	-1792.31
202.292	1235.29
202.51	-566.67
202.728	231.98
202.946	298.88
203.165	281.55
203.383	351.28
203.601	833.33
203.819	263.16
204.037	423.86
204.255	355
204.473	255.69
204.691	236.03
204.909	207.19
205.127	205.1
205.345	235.14
205.562	268.94
205.78	494.78
205.998	182.93
206.216	217.5
206.434	179.23
206.652	164.67
206.87	166.07
207.088	208.33
207.306	298.36
207.523	218.67
207.741	240.53
207.959	197.71
208.177	133.03
208.395	176.91
208.612	144.15
208.83	131.91
209.048	112.63
209.266	106.55
209.483	94.95
209.701	88.65
209.919	84.3
210.136	62.79
210.354	74.45
210.572	105.13
210.79	113.35
211.007	134.59
211.225	105.79
211.442	87.63
211.66	129.98
211.878	123.12
212.095	-1.45
212.313	-7.89
212.53	6.8
212.748	10.15
212.966	1.2
213.183	-18.43
213.401	-38.3
213.618	-20.89
213.836	-20.73
214.053	-87.62
214.271	-85.79
214.488	253.57
214.705	157.86
214.923	213.85
215.14	138.36
215.358	94.43
215.575	117.82
215.793	155.1
216.01	120.93
216.227	115.19
216.445	109.12
216.662	130.04
216.879	131.12
217.097	119.15
217.314	121.11
217.531	151.45
217.749	129.27
217.966	118.31
218.183	94.86
218.4	91.63
218.618	64.43
218.835	46.26
219.052	47.52
219.269	87.14
219.487	93.43
219.704	27.06
219.921	25.81
220.138	69.05
220.355	81.8
220.572	94.1
220.79	98.78
221.007	108.33
221.224	98.4
221.441	119.62
221.658	85.87
221.875	87.45
222.092	109.47
222.309	93.1
222.526	71.54
222.743	57.66
222.96	95.44
223.177	96.96
223.394	40.14
223.611	63.36
223.828	42.91
224.045	37.94
224.262	45.71
224.479	43.59
224.696	57.12
224.913	49.4
225.13	51.18
225.347	48.66
225.564	37.3
225.781	49.62
225.997	50.89
226.214	50.53
226.431	44.54
226.648	46.91
226.865	42.19
227.082	39.72
227.298	38.86
227.515	34.21
227.732	29.21
227.949	29.9
228.165	30.66
228.382	28.73
228.599	26.03
228.816	31.49
229.032	26.29
229.249	26.91
229.466	30.76
229.682	29.69
229.899	28.58
230.116	29.04
230.332	29.22
230.549	21.48
230.765	24.8
230.982	28.19
231.199	22.01
231.415	28.78
231.632	36.07
231.848	28.24
232.065	26.74
232.281	31.84
232.498	23.05
232.714	19.5
232.931	26.24
233.147	21.95
233.364	24.78
233.58	28.8
233.797	29.07
234.013	19.34
234.23	19.17
234.446	24.32
234.662	23.53
234.879	27.18
235.095	30.89
235.312	33.89
235.528	38.77
235.744	36.76
235.961	34.13
236.177	24.33
236.393	29.41
236.61	24.86
236.826	19.09
237.042	30.91
237.258	40.11
237.475	45.19
237.691	44.73
237.907	40.69
238.123	36.66
238.339	32.52
238.556	37.02
238.772	39.15
238.988	44.52
239.204	46.8
239.42	34.58
239.636	27.96
239.853	22.66
240.069	19.67
240.285	19.76
240.501	19.08
240.717	16.92
240.933	16.59
241.149	15.25
241.365	10.59
241.581	9.77
241.797	8.7
242.013	11.58
242.229	11.62
242.445	13.23
242.661	15.96
242.877	18.12
243.093	21.17
243.309	20.94
243.525	18.32
243.741	20.61
243.957	19.51
244.173	20.99
244.388	16.77
244.604	16.73
244.82	17.59
245.036	15.71
245.252	15.73
245.468	13.71
245.683	11.6
245.899	13.66
246.115	12.91
246.331	13.34
246.547	13.11
246.762	12.04
246.978	11.43
247.194	11.23
247.409	10.75
247.625	12.7
247.841	17.23
248.057	19.15
248.272	16.99
248.488	18.56
248.703	19.6
248.919	24.95
249.135	25.37
249.35	27.89
249.566	25.8
249.782	25.38
249.997	18.17
250.213	13.84
250.428	14.15
250.644	12.68
250.859	13.76
251.075	16.96
251.29	12.71
251.506	15.38
251.721	15.36
251.937	18.41
252.152	17.75
252.368	20.75
252.583	22.54
252.798	22.97
253.014	25.88
253.229	26.37
253.445	23.94
253.66	22.36
253.875	26.03
254.091	25.18
254.306	25.44
254.521	27.23
254.737	26.12
254.952	26.9
255.167	25.3
255.383	27.49
255.598	23.57
255.813	22.8
256.028	22.7
256.244	16.88
256.459	14.97
256.674	10.27
256.889	9.46
257.104	8.81
257.32	8.38
257.535	8.75
257.75	7.34
257.965	6.89
258.18	5.77
258.395	7.86
258.61	8.11
258.826	8.2
259.041	8.46
259.256	8.48
259.471	9.53
259.686	8.11
259.901	8.81
260.116	9.5
260.331	9.86
260.546	10.52
260.761	9.8
260.976	12.66
261.191	12.76
261.406	14.02
261.621	14.33
261.836	15.1
262.05	17.95
262.265	15.3
262.48	14.36
262.695	13.8
262.91	13.49
263.125	12.57
263.34	12.78
263.555	13.72
263.769	12.93
263.984	15.61
264.199	15.67
264.414	18.03
264.629	19.81
264.843	17.39
265.058	15.92
265.273	15.58
265.488	14.87
265.702	11.89
265.917	11.3
266.132	9.62
266.346	7.73
266.561	9.3
266.776	7.06
266.99	5.28
267.205	7.05
267.42	10.76
267.634	12.21
267.849	12.89
268.063	14.29
268.278	16.15
268.492	19.87
268.707	18.33
268.922	14.81
269.136	14.04
269.351	15.77
269.565	15.65
269.78	13.04
269.994	10.77
270.209	11.03
270.423	12.33
270.637	12.24
270.852	9.76
271.066	11.22
271.281	10.52
271.495	11.78
271.709	10.73
271.924	11.01
272.138	12.92
272.353	13.76
272.567	15.45
272.781	14.42
272.996	14.47
273.21	14.69
273.424	15.75
273.638	16.61
273.853	16.65
274.067	17.44
274.281	17.86
274.495	15
274.71	14.87
274.924	12.42
275.138	11.1
275.352	9.55
275.566	12.01
275.781	10.73
275.995	12.27
276.209	12.18
276.423	12.82
276.637	12.18
276.851	12.77
277.065	13.27
277.279	13.37
277.493	14.46
277.707	14.67
277.921	12.73
278.135	11.39
278.349	11.89
278.563	10.72
278.777	10.26
278.991	12.1
279.205	14.02
279.419	12.69
279.633	12.31
279.847	12.64
280.061	13.74
280.275	13.57
280.489	14.61
280.703	12.71
280.917	11.72
281.131	11.89
281.344	12.03
281.558	9.35
281.772	10.07
281.986	9.34
282.2	7.94
282.414	7.7
282.627	8.57
282.841	7.65
283.055	8.83
283.269	9.3
283.482	8.73
283.696	7.51
283.91	7.72
284.123	8.23
284.337	9.08
284.551	10.55
284.764	9.5
284.978	8.74
285.192	8.55
285.405	6.59
285.619	6.84
285.833	7.41
286.046	7.42
286.26	7.68
286.473	6.37
286.687	5.63
286.9	5.49
287.114	5.52
287.327	5.83
287.541	4.78
287.754	5.57
287.968	5.74
288.181	5.02
288.395	5.7
288.608	6.27
288.822	7.24
289.035	8.1
289.248	6.45
289.462	6.77
289.675	5.39
289.889	6.54
290.102	6.54
290.315	7.1
290.529	7.19
290.742	6.9
290.955	6.74
291.169	6.6
291.382	5.77
291.595	7.16
291.808	7.08
292.022	8.93
292.235	9.45
292.448	11.03
292.661	10.36
292.875	10.64
293.088	10.48
293.301	10.24
293.514	9.23
293.727	11.63
293.94	11.32
294.153	10.76
294.367	9.25
294.58	7.44
294.793	7.97
295.006	6.17
295.219	4.86
295.432	5.13
295.645	6.87
295.858	6.91
296.071	6.03
296.284	6.21
296.497	6.61
296.71	6.72
296.923	7.83
297.136	6.36
297.349	8.27
297.562	8.41
297.775	7.95
297.988	6.85
298.201	7.75
298.414	7.09
298.626	6.92
298.839	5.21
299.052	5.3
299.265	6.31
299.478	7.32
299.691	6.01
299.903	6.59
300.116	6.08
300.329	6.08
300.542	6.41
300.755	6.98
300.967	7.54
301.18	10.06
301.393	10.32
301.605	8.52
301.818	7.69
302.031	7.26
302.243	8.23
302.456	9.23
302.669	10.48
302.881	9.92
303.094	8.96
303.307	6.97
303.519	5.84
303.732	6.09
303.944	6.47
304.157	7.05
304.37	8.01
304.582	8.12
304.795	8.59
305.007	8.38
305.22	8.01
305.432	8.02
305.645	7.83
305.857	7
306.069	6.46
306.282	7.05
306.494	6.09
306.707	6
306.919	5.99
307.132	6.09
307.344	6.6
307.556	7.94
307.769	7.26
307.981	8.96
308.193	9.96
308.406	9.4
308.618	9.37
308.83	10.21
309.043	10.44
309.255	9.35
309.467	7.4
309.679	6.88
309.892	5.51
310.104	6.42
310.316	5.5
310.528	5.03
310.74	6.05
310.953	5.97
311.165	5.46
311.377	6.1
311.589	6.15
311.801	8.47
312.013	8.51
312.225	9.54
312.437	9.94
312.649	10.19
312.862	9.29
313.074	9.73
313.286	9.73
313.498	11.99
313.71	10.27
313.922	11.51
314.134	10.51
314.346	10.43
314.558	11.1
314.77	10.08
314.982	9.05
315.193	9.52
315.405	9.55
315.617	10.51
315.829	8.63
316.041	8.51
316.253	6.54
316.465	6.98
316.677	7.12
316.888	6.9
317.1	6
317.312	7.15
317.524	7.18
317.736	9.2
317.947	7.1
318.159	7.87
318.371	9.45
318.583	11.26
318.794	10.76
319.006	10.36
319.218	8.75
319.43	9.95
319.641	9.85
319.853	11.27
320.064	8.31
320.276	10.69
320.488	9.95
320.699	8.43
320.911	7.91
321.123	9.67
321.334	8.39
321.546	6.96
321.757	7.61
321.969	8.36
322.18	6.83
322.392	6.89
322.603	6.99
322.815	7.77
323.026	9.41
323.238	9.26
323.449	7.14
323.661	8.77
323.872	10.97
324.083	10.86
324.295	12.29
324.506	12.8
324.718	14.54
324.929	13.57
325.14	12.72
325.352	12.5
325.563	13.18
325.774	12.4
325.986	13.36
326.197	14.27
326.408	14.28
326.62	12.3
326.831	12.75
327.042	11.73
327.253	11.87
327.464	11.72
327.676	11.51
327.887	10.73
328.098	12.35
328.309	10.94
328.52	9.25
328.732	8.85
328.943	8.96
329.154	8.67
329.365	8.67
329.576	7.71
329.787	9.26
329.998	9.94
330.209	10.8
330.42	9.31
330.631	8.93
330.842	10.92
331.053	11.82
331.264	12.53
331.475	13.92
331.686	12.36
331.897	13.85
332.108	11.97
332.319	11.3
332.53	8.83
332.741	10.49
332.952	9.91
333.163	8.52
333.374	7.13
333.585	7.48
333.795	5.91
334.006	6.82
334.217	5.63
334.428	6.79
334.639	6.24
334.849	7.01
335.06	4.72
335.271	6.11
335.482	6.12
335.692	7.96
335.903	6.36
336.114	7.58
336.325	6.38
336.535	6.77
336.746	6.41
336.957	7.21
337.167	7.41
337.378	9.01
337.589	7.98
337.799	6.74
338.01	6.63
338.22	8.05
338.431	6.38
338.642	8.01
338.852	8.36
339.063	6.83
339.273	6.87
339.484	7.88
339.694	7.02
339.905	7.91
340.115	9.58
340.326	8.33
340.536	8.58
340.746	8.66
340.957	8.72
341.167	8.72
341.378	9.4
341.588	8.41
341.799	9.05
342.009	9.1
342.219	9.47
342.43	8.25
342.64	8.95
342.85	8.59
343.061	9.53
343.271	9.24
343.481	9.15
343.691	10.62
343.902	11.04
344.112	10.65
344.322	10.93
344.532	10.4
344.743	11.07
344.953	10.81
345.163	9.95
345.373	9.32
345.583	9.56
345.793	10.59
346.004	8.93
346.214	8.55
346.424	8.67
346.634	8.25
346.844	7.17
347.054	7.42
347.264	7.34
347.474	7.35
347.684	7.34
347.894	6.15
348.104	4.27
348.314	5.42
348.524	5.88
348.734	5.22
348.944	5.04
349.154	5.65
349.364	4.3
349.574	3.61
349.784	3.54
349.994	3.79
350.204	4.13
350.413	3.99
350.623	3.41
350.833	4.2
351.043	4.57
351.253	4.84
351.463	5.9
351.672	7.52
351.882	7.59
352.092	7.07
352.302	7.42
352.511	7.26
352.721	8.31
352.931	7.82
353.141	6.22
353.35	7.25
353.56	9.02
353.77	8.56
353.979	8.56
354.189	10.03
354.399	10.87
354.608	11.17
354.818	11.49
355.027	11.74
355.237	11.97
355.447	12.11
355.656	10.45
355.866	9.69
356.075	9.11
356.285	9.86
356.494	8.77
356.704	9.64
356.913	8.74
357.123	9.16
357.332	8.51
357.542	7.82
357.751	8.05
357.96	7.73
358.17	7.18
358.379	8.08
358.589	6.55
358.798	6.84
359.007	6.16
359.217	6.39
359.426	6.15
359.635	5.52
359.845	6.36
360.054	5.98
360.263	6.14
360.472	5.96
360.682	5.26
360.891	6.09
361.1	5.46
361.309	4.84
361.519	5.58
361.728	5.28
361.937	5.59
362.146	5.6
362.355	6.14
362.564	6.1
362.774	6.14
362.983	5.48
363.192	5.79
363.401	5.77
363.61	6.65
363.819	5.85
364.028	6.13
364.237	6.68
364.446	6.6
364.655	6.62
364.864	6.93
365.073	7.06
365.282	7.53
365.491	6.66
365.7	7.32
365.909	6.97
366.118	6.93
366.327	6.76
366.536	6.27
366.745	5.97
366.954	6.04
367.162	5.93
367.371	5.7
367.58	6.52
367.789	6.7
367.998	7.22
368.207	6.07
368.415	6.14
368.624	6.15
368.833	6.78
369.042	6.77
369.25	6.18
369.459	6.31
369.668	5.91
369.877	5.16
370.085	4.7
370.294	3.57
370.503	4.61
370.711	4.84
370.92	5.02
371.129	5.23
371.337	5.97
371.546	6.11
371.754	6.06
371.963	7.22
372.171	7.4
372.38	8.01
372.589	7.87
372.797	8.31
373.006	8
373.214	8.11
373.423	7.39
373.631	5.95
373.84	6.12
374.048	6.64
374.256	6.22
374.465	6.47
374.673	7.24
374.882	7.45
375.09	7.32
375.298	6.83
375.507	6.17
375.715	6.13
375.923	6.97
376.132	6.38
376.34	5.63
376.548	5.07
376.757	6.31
376.965	6.23
377.173	5.96
377.381	5.02
377.59	5.68
377.798	6.91
378.006	6.77
378.214	6.14
378.423	6.24
378.631	7.19
378.839	8.06
379.047	5.69
379.255	4.31
379.463	4.27
379.671	6.03
379.879	6.7
380.088	6.42
380.296	6.49
380.504	7.17
380.712	7.76
380.92	7.55
381.128	6.32
381.336	7.81
381.544	8.41
381.752	9.11
381.96	7.47
382.168	6.29
382.376	6.31
382.584	5.81
382.791	5.74
382.999	4.85
383.207	5.32
383.415	5.67
383.623	5.22
383.831	4.83
384.039	4.68
384.247	4.33
384.454	3.83
384.662	3.9
384.87	5.17
385.078	5.09
385.285	5.17
385.493	4.07
385.701	4.4
385.909	5.24
386.116	5.42
386.324	5.36
386.532	6.46
386.739	6.8
386.947	7.04
387.155	6.62
387.362	7.03
387.57	7.26
387.778	7.88
387.985	7.58
388.193	7.5
388.4	7.71
388.608	7.63
388.816	7.3
389.023	6.55
389.231	5.76
389.438	5.23
389.646	4.41
389.853	5.12
390.061	4
390.268	4.04
390.475	2.96
390.683	3.01
390.89	2.87
391.098	3.07
391.305	4.42
391.512	4.65
391.72	4.98
391.927	5.18
392.135	4.9
392.342	5.99
392.549	6.02
392.756	5.82
392.964	5.48
393.171	5.79
393.378	6.2
393.586	5.74
393.793	5.7
394	6.13
394.207	6.33
394.414	6.84
394.622	6.73
394.829	7.05
395.036	8.47
395.243	8.33
395.45	9.03
395.657	8.78
395.864	8.65
396.072	7.78
396.279	6.75
396.486	6.89
396.693	6.64
396.9	6.33
397.107	5.79
397.314	5.22
397.521	5.4
397.728	4.2
397.935	4.5
398.142	5.15
398.349	6.12
398.556	6.04
398.763	5.67
398.97	5.13
399.177	5.21
399.383	6.22
399.59	6.02
399.797	6.47
400.004	7.11
400.211	6.15
400.418	6.45
400.625	6.43
400.831	6.73
401.038	7.16
401.245	7.05
401.452	6.57
401.658	6.13
401.865	6.31
402.072	5.75
402.279	5.19
402.485	5.28
402.692	4.17
402.899	4.14
403.105	4.09
403.312	3.44
403.519	3.5
403.725	3.1
403.932	2.93
404.138	2.73
404.345	2.58
404.552	3.16
404.758	2.92
404.965	3.48
405.171	3.48
405.378	3.57
405.584	3.64
405.791	3.77
405.997	4.18
406.204	4.12
406.41	3.9
406.617	4.14
406.823	4.18
407.029	4.44
407.236	3.97
407.442	4.16
407.649	4.66
407.855	5.33
408.061	5.44
408.268	5.29
408.474	4.82
408.68	4.58
408.887	4.31
409.093	4.36
409.299	4.83
409.505	5.02
409.712	4.68
409.918	4.33
410.124	3.92
410.33	3.86
410.537	4.5
410.743	5.28
410.949	5.27
411.155	5.41
411.361	4.92
411.567	3.91
411.773	4.03
411.98	3.79
412.186	4.89
412.392	4.75
412.598	4.81
412.804	4.87
413.01	4.29
413.216	4.27
413.422	3.4
413.628	4.23
413.834	4.99
414.04	4.93
414.246	4.96
414.452	3.81
414.658	4.1
414.864	4.32
415.07	3.85
415.275	3.9
415.481	4.16
415.687	5.32
415.893	4.48
416.099	4.33
416.305	4.13
416.511	4.21
416.716	4.32
416.922	4.26
417.128	4.19
417.334	4.25
417.539	4.26
417.745	4.53
417.951	4.24
418.157	4.08
418.362	4.12
418.568	3.82
418.774	3.82
418.979	3.9
419.185	3.4
419.391	3.35
419.596	3.32
419.802	3.42
420.008	3.31
420.213	0.54
420.419	0.65
420.624	0.3
420.83	0.8
421.035	0.69
421.241	0.48
421.446	0.94
421.652	0.82
421.857	0.52
422.063	0.13
422.268	0.08
422.474	3
422.679	3.13
422.885	3.23
423.09	3.01
423.295	3.3
423.501	3.53
423.706	3.18
423.911	2.9
424.117	2.88
424.322	2.95
424.527	3.07
424.733	2.7
424.938	2.72
425.143	3
425.349	3.08
425.554	2.95
425.759	2.92
425.964	3.2
426.169	3.47
426.375	3.79
426.58	4.21
426.785	3.87
426.99	3.97
427.195	4.16
427.4	4.69
427.605	4.77
427.811	4.4
428.016	4.35
428.221	4.08
428.426	4.15
428.631	3.92
428.836	3.7
429.041	3.84
429.246	3.86
429.451	3.73
429.656	3.12
429.861	2.86
430.066	2.95
430.271	3.19
430.476	3.74
430.681	3.67
430.886	4.25
431.09	4.68
431.295	4.45
431.5	4.4
431.705	4.37
431.91	4.39
432.115	4.57
432.32	4.83
432.524	4.63
432.729	4.34
432.934	4.11
433.139	3.79
433.343	3.56
433.548	3.4
433.753	3.58
433.958	3.34
434.162	3.3
434.367	3.4
434.572	3.11
434.776	2.96
434.981	3
435.186	3.63
435.39	3.93
435.595	3.79
435.799	4.2
436.004	4.31
436.209	4.27
436.413	4.28
436.618	4.22
436.822	4.49
437.027	4.43
437.231	4.58
437.436	4.21
437.64	4.01
437.845	4.1
438.049	4.14
438.253	3.94
438.458	4.04
438.662	3.71
438.867	3.35
439.071	3.28
439.275	3.32
439.48	3.14
439.684	3.01
439.888	3.12
440.093	3.2
440.297	3.04
440.501	3.27
440.706	2.93
440.91	3.06
441.114	3.41
441.318	3.19
441.523	3.36
441.727	3.41
441.931	3.52
442.135	3.41
442.339	3.4
442.543	3.44
442.748	3.23
442.952	3.76
443.156	4.24
443.36	3.91
443.564	3.61
443.768	3.58
443.972	3.61
444.176	3.73
444.38	3.57
444.584	3.51
444.788	3.56
444.992	3.74
445.196	3.47
445.4	2.96
445.604	2.92
445.808	3.26
446.012	3.11
446.216	2.85
446.42	2.73
446.624	3.23
446.828	3
447.032	2.84
447.235	2.54
447.439	3
447.643	3.21
447.847	3.58
448.051	3.42
448.254	3.37
448.458	3.82
448.662	3.86
448.866	3.55
449.069	3.9
449.273	4.08
449.477	4.12
449.681	3.73
449.884	3.98
450.088	3.91
450.292	3.82
450.495	3.56
450.699	3.71
450.902	3.82
451.106	3.89
451.31	3.6
451.513	3.38
451.717	3.36
451.92	3.41
452.124	3.18
452.327	3.42
452.531	3.19
452.734	3.65
452.938	3.27
453.141	2.81
453.345	2.83
453.548	3.16
453.752	2.75
453.955	2.72
454.158	2.71
454.362	2.97
454.565	3.01
454.769	3.46
454.972	3.5
455.175	3.21
455.379	3.61
455.582	3.28
455.785	3.13
455.988	3.82
456.192	3.62
456.395	3.4
456.598	3.19
456.801	2.83
457.005	3.11
457.208	2.8
457.411	3.24
457.614	2.98
457.817	2.81
458.021	2.72
458.224	2.81
458.427	2.91
458.63	2.94
458.833	2.95
459.036	2.96
459.239	2.69
459.442	2.83
459.645	2.74
459.848	2.95
460.051	3.08
460.254	3.39
460.457	3.29
460.66	3.39
460.863	3.54
461.066	3.32
461.269	3.28
461.472	3.31
461.675	3.12
461.878	2.9
462.081	3.07
462.284	3.4
462.486	2.86
462.689	2.82
462.892	3.07
463.095	3
463.298	3.04
463.5	2.9
463.703	2.9
463.906	3.28
464.109	3.67
464.311	3.34
464.514	3.12
464.717	3.18
464.92	3.17
465.122	3.37
465.325	3.61
465.528	3.94
465.73	4.28
465.933	4.54
466.135	5
466.338	5.1
466.541	5.28
466.743	5.38
466.946	5.62
467.148	5.78
467.351	5.5
467.553	5.36
467.756	5.31
467.958	5.36
468.161	4.86
468.363	4.09
468.566	3.64
468.768	3.51
468.971	3.55
469.173	3.25
469.375	3.24
469.578	3.17
469.78	3.51
469.983	3.7
470.185	3.77
470.387	4.02
470.59	4.08
470.792	4.31
470.994	4.2
471.196	4.08
471.399	4.27
471.601	4.37
471.803	4.57
472.005	4.22
472.208	3.8
472.41	3.27
472.612	3.36
472.814	3.79
473.016	3.83
473.218	4.23
473.421	4.32
473.623	4.68
473.825	4.6
474.027	4.61
474.229	4.82
474.431	4.66
474.633	4.66
474.835	4.61
475.037	4.06
475.239	3.99
475.441	3.71
475.643	3.84
475.845	3.46
476.047	3.12
476.249	2.94
476.451	2.65
476.653	2.96
476.855	3.06
477.057	3.19
477.258	3.49
477.46	3.39
477.662	3.39
477.864	3.13
478.066	3.42
478.268	3.41
478.469	3.5
478.671	3.66
478.873	3.68
479.075	3.47
479.276	3.39
479.478	3.08
479.68	3.23
479.882	3.17
480.083	3.14
480.285	2.81
480.487	3.01
480.688	2.85
480.89	2.73
481.091	2.61
481.293	2.62
481.495	2.74
481.696	2.72
481.898	2.66
482.099	2.75
482.301	2.82
482.502	2.76
482.704	2.58
482.905	2.65
483.107	2.53
483.308	2.49
483.51	2.49
483.711	2.38
483.913	2.36
484.114	2.32
484.315	2.22
484.517	2.15
484.718	2.26
484.92	2.3
485.121	2.09
485.322	2.17
485.524	2.24
485.725	2.31
485.926	2.33
486.127	2.33
486.329	2.37
486.53	2.39
486.731	2.37
486.932	2.34
487.134	2.43
487.335	2.54
487.536	2.55
487.737	2.44
487.938	2.47
488.139	2.33
488.341	2.39
488.542	2.18
488.743	2.15
488.944	1.98
489.145	1.99
489.346	2.02
489.547	1.91
489.748	1.88
489.949	2.01
490.15	2.08
490.351	2.27
490.552	2.3
490.753	2.45
490.954	2.35
491.155	2.57
491.356	2.63
491.557	2.49
491.758	2.7
491.959	2.82
492.159	2.86
492.36	2.94
492.561	2.89
492.762	3.16
492.963	3.36
493.164	3.75
493.364	3.88
493.565	3.61
493.766	4.05
493.967	3.98
494.167	3.85
494.368	3.88
494.569	3.58
494.769	3.69
494.97	3.35
495.171	3.1
495.371	3.16
495.572	3.02
495.773	3.03
495.973	3
496.174	3
496.375	3.41
496.575	3.37
496.776	3.3
496.976	3.53
497.177	3.63
497.377	3.77
497.578	3.67
497.778	3.42
497.979	3.72
498.179	3.61
498.38	3.94
498.58	3.84
498.78	3.83
498.981	4.08
499.181	3.7
499.382	3.76
499.582	3.63
499.782	3.35
499.983	3.78
500.183	3.74
500.383	3.66
500.584	3.47
500.784	3.48
500.984	3.77
501.184	3.91
501.385	4.26
501.585	4.3
501.785	4.76
501.985	4.96
502.185	4.61
502.386	4.61
502.586	4.92
502.786	4.52
502.986	4.41
503.186	4.52
503.386	4.53
503.586	4.22
503.786	4.07
503.987	3.82
504.187	3.85
504.387	4.04
504.587	4.09
504.787	4.02
504.987	4.36
505.187	3.99
505.387	3.87
505.587	3.69
505.786	3.69
505.986	3.84
506.186	3.97
506.386	3.84
506.586	4.2
506.786	3.76
506.986	3.96
507.186	3.97
507.386	4.34
507.585	4.27
507.785	4.49
507.985	4.59
508.185	4.44
508.384	4.23
508.584	4.58
508.784	4.66
508.984	4.71
509.183	4.33
509.383	4.33
509.583	4.12
509.782	3.93
509.982	3.81
510.182	3.84
510.381	3.99
510.581	4.31
510.781	4.03
510.98	3.79
511.18	3.97
511.379	3.82
511.579	3.61
511.778	4.04
511.978	4.43
512.177	4.33
512.377	4.28
512.576	4.11
512.776	3.9
512.975	4.13
513.175	4.16
513.374	4.01
513.573	4.5
513.773	4.6
513.972	4.42
514.172	4.43
514.371	4.7
514.57	4.76
514.77	4.98
514.969	5.29
515.168	5.42
515.367	5.36
515.567	5.58
515.766	5.52
515.965	5.57
516.164	5.57
516.364	5.22
516.563	5.03
516.762	4.89
516.961	4.99
517.16	4.7
517.359	4.69
517.559	4.84
517.758	4.9
517.957	5.03
518.156	5.15
518.355	4.99
518.554	5.17
518.753	5.1
518.952	5.27
519.151	5.38
519.35	5.54
519.549	5.55
519.748	5.35
519.947	5.49
520.146	4.9
520.345	5.01
520.544	5.14
520.743	5.11
520.942	5.79
521.141	5.71
521.339	5.63
521.538	5.46
521.737	5.47
521.936	5.31
522.135	5.23
522.333	5.73
522.532	5.55
522.731	5.57
522.93	5.68
523.129	5
523.327	4.93
523.526	4.92
523.725	5.24
523.923	5.24
524.122	5.45
524.321	5.49
524.519	5.57
524.718	5.59
524.917	5.67
525.115	5.77
525.314	5.92
525.512	6.12
525.711	6.09
525.909	5.99
526.108	5.93
526.306	5.86
526.505	5.94
526.703	5.88
526.902	5.77
527.1	5.61
527.299	5.47
527.497	5.48
527.696	5.43
527.894	5.5
528.092	5.51
528.291	5.51
528.489	5.52
528.688	5.54
528.886	5.61
529.084	5.78
529.283	5.8
529.481	5.75
529.679	5.81
529.877	5.71
530.076	5.56
530.274	5.69
530.472	5.68
530.67	5.71
530.869	5.52
531.067	5.19
531.265	5.13
531.463	5.2
531.661	5.53
531.859	5.62
532.057	5.67
532.255	5.94
532.454	5.65
532.652	5.69
532.85	5.74
533.048	5.76
533.246	5.98
533.444	6.15
533.642	6.36
533.84	6.23
534.038	6.16
534.236	6.31
534.434	6.06
534.632	6.44
534.83	6.46
535.027	6.67
535.225	6.79
535.423	6.74
535.621	6.67
535.819	6.51
536.017	6.44
536.215	6.36
536.412	6.38
536.61	6.45
536.808	6.35
537.006	6.44
537.203	6.51
537.401	6.69
537.599	7.01
537.797	6.91
537.994	7.02
538.192	7.21
538.39	7.36
538.587	7.55
538.785	7.56
538.983	7.5
539.18	7.68
539.378	7.49
539.575	7.24
539.773	6.89
539.97	7.11
540.168	7.01
540.366	7.03
540.563	7.07
540.761	7.07
540.958	7.24
541.155	7.35
541.353	7.24
541.55	7.31
541.748	7.47
541.945	7.73
542.143	7.8
542.34	7.98
542.537	8.06
542.735	8.06
542.932	8.03
543.129	7.92
543.327	7.87
543.524	7.82
543.721	7.99
543.919	7.92
544.116	7.99
544.313	7.99
544.51	7.84
544.708	7.79
544.905	7.99
545.102	8.08
545.299	8.09
545.496	7.97
545.693	8.29
545.891	8.11
546.088	8.32
546.285	8.23
546.482	8.24
546.679	8.88
546.876	9.29
547.073	9.52
547.27	9.76
547.467	10.15
547.664	10.39
547.861	10.26
548.058	10.19
548.255	10.11
548.452	10.19
548.649	10.38
548.846	10.06
549.043	9.83
549.24	9.55
549.437	9.55
549.633	9.24
549.83	9.24
550.027	9.67
550.224	10.18
550.421	10.4
550.618	10.63
550.814	10.27
551.011	10.26
551.208	9.99
551.405	10.12
551.601	10.27
551.798	10.38
551.995	10.77
552.191	10.61
552.388	10.62
552.585	10.5
552.781	10.59
552.978	10.86
553.175	10.8
553.371	11.21
553.568	11.28
553.764	10.83
553.961	11.2
554.157	10.92
554.354	10.77
554.55	10.75
554.747	10.93
554.943	10.55
555.14	10.42
555.336	10.67
555.533	10.46
555.729	10.61
555.926	11.26
556.122	11.25
556.318	12.05
556.515	12.09
556.711	11.97
556.907	11.88
557.104	12.43
557.3	12.69
557.496	12.59
557.693	12.67
557.889	12.47
558.085	12.1
558.281	11.85
558.478	11.76
558.674	11.95
558.87	11.97
559.066	12.18
559.262	12.41
559.459	12.35
559.655	12.58
559.851	12.82
560.047	13.11
560.243	13.51
560.439	13.74
560.635	13.72
560.831	13.74
561.027	13.95
561.223	13.86
561.419	13.59
561.615	13.57
561.811	13.23
562.007	13.42
562.203	13.64
562.399	13.12
562.595	13
562.791	12.81
562.987	12.81
563.183	12.79
563.379	13.17
563.575	13.45
563.771	13.72
563.966	13.91
564.162	13.71
564.358	13.64
564.554	14.33
564.75	14.13
564.945	14.18
565.141	14.4
565.337	14.63
565.533	14.47
565.728	14.45
565.924	14.34
566.12	14.67
566.315	14.78
566.511	14.39
566.707	13.82
566.902	14.42
567.098	14.34
567.293	14.59
567.489	14.15
567.684	14.08
567.88	14.02
568.076	14.2
568.271	13.96
568.467	14.29
568.662	14.51
568.858	14.87
569.053	14.66
569.248	14.81
569.444	14.88
569.639	15.06
569.835	15.49
570.03	15.6
570.225	15.3
570.421	15.48
570.616	15.17
570.812	15.12
571.007	14.83
571.202	14.92
571.397	15.03
571.593	14.76
571.788	14.83
571.983	14.94
572.178	14.83
572.374	15.19
572.569	15.11
572.764	15.16
572.959	15.71
573.154	16.35
573.35	16.26
573.545	16.08
573.74	16.37
573.935	16.87
574.13	16.88
574.325	17.04
574.52	17.16
574.715	17.46
574.91	17.85
575.105	17.57
575.3	17.53
575.495	17.94
575.69	18.21
575.885	18.11
576.08	17.75
576.275	17.35
576.47	17.13
576.665	17.48
576.86	17.38
577.055	17.32
577.25	17.51
577.444	17.58
577.639	17.43
577.834	17.23
578.029	17.63
578.224	17.77
578.418	18.3
578.613	18.99
578.808	18.84
579.003	18.63
579.197	18.54
579.392	18.98
579.587	18.44
579.781	18.15
579.976	17.7
580.171	17.53
580.365	17.58
580.56	17.8
580.755	17.97
580.949	17.95
581.144	18.32
581.338	18.48
581.533	17.93
581.727	18.46
581.922	19.01
582.116	19.79
582.311	19.54
582.505	19.88
582.7	19.56
582.894	19.11
583.089	19.08
583.283	19.25
583.478	19.59
583.672	19.96
583.866	20.06
584.061	19.37
584.255	19.24
584.449	19.92
584.644	19.77
584.838	19.94
585.032	19.49
585.226	19.66
585.421	19.56
585.615	19.1
585.809	19.1
586.003	19.38
586.198	19.85
586.392	19.81
586.586	19.65
586.78	19.25
586.974	19.46
587.168	19.58
587.363	19.22
587.557	19.51
587.751	20.11
587.945	19.73
588.139	19.37
588.333	19.24
588.527	19.76
588.721	19.3
588.915	19.51
589.109	19.22
589.303	19.81
589.497	20.17
589.691	20.09
589.885	19.24
590.079	19.86
590.273	20.22
590.466	20.17
590.66	19.75
590.854	19.89
591.048	20.13
591.242	20.02
591.436	19.99
591.629	19.59
591.823	19.4
592.017	19.75
592.211	19.51
592.404	19.18
592.598	19.68
592.792	20.03
592.986	19.88
593.179	19.56
593.373	19.7
593.567	19.45
593.76	19.46
593.954	19.58
594.147	19.81
594.341	19.8
594.535	20.03
594.728	20.12
594.922	19.8
595.115	20.25
595.309	20.25
595.502	20.29
595.696	20.59
595.889	20.97
596.083	20.89
596.276	21.34
596.47	21.49
596.663	21.34
596.856	21.06
597.05	21.32
597.243	21.61
597.437	22.12
597.63	22.65
597.823	22.28
598.017	22.44
598.21	22.7
598.403	22.79
598.596	22.71
598.79	23.06
598.983	23.47
599.176	23.5
599.369	22.76
599.563	22.46
599.756	22.07
599.949	22.54
600.142	22.06
600.335	22
600.528	21.61
600.722	21.83
600.915	21.82
601.108	21.89
601.301	21.6
601.494	21.97
601.687	21.76
601.88	21.33
602.073	21.29
602.266	21.5
602.459	20.94
602.652	20.56
602.845	20.62
603.038	20.45
603.231	20.02
603.424	20.3
603.617	20.57
603.809	21.2
604.002	21.53
604.195	21.3
604.388	21.21
604.581	21.74
604.774	22.17
604.966	22.08
605.159	21.77
605.352	22.33
605.545	22.47
605.737	22.54
605.93	22.22
606.123	22.04
606.316	22.16
606.508	22.18
606.701	22.64
606.894	22.19
607.086	22.22
607.279	22.53
607.471	22.42
607.664	22.2
607.857	21.8
608.049	22.04
608.242	22.19
608.434	22.69
608.627	22.53
608.819	22.11
609.012	22.11
609.204	22.41
609.397	22.65
609.589	22.68
609.782	22.6
609.974	22.6
610.166	22.49
610.359	22.45
610.551	22.26
610.743	22.5
610.936	22.54
611.128	23.01
611.32	22.29
611.513	22.56
611.705	22.45
611.897	22.58
612.09	23.51
612.282	23.9
612.474	24.05
612.666	23.8
612.858	24.47
613.051	23.71
613.243	22.95
613.435	22.99
613.627	22.21
613.819	22.19
614.011	22.66
614.203	22.01
614.395	21.61
614.588	22.17
614.78	22.53
614.972	22.11
615.164	23.25
615.356	23.6
615.548	24.38
615.74	24.94
615.932	25.36
616.124	25.04
616.315	25.16
616.507	24.61
616.699	24.31
616.891	24.15
617.083	24.33
617.275	24.19
617.467	24.37
617.659	24.09
617.85	23.51
618.042	23.17
618.234	22.5
618.426	22.1
618.618	23.02
618.809	22.64
619.001	22.38
619.193	21.69
619.384	21.51
619.576	22.03
619.768	21.81
619.959	21.88
620.151	21.88
620.343	22.56
620.534	22.03
620.726	21.74
620.917	22.15
621.109	22.41
621.301	23.13
621.492	23.48
621.684	22.54
621.875	22.83
622.067	23.49
622.258	22.63
622.45	22.95
622.641	23.11
622.832	23.06
623.024	22.72
623.215	22.65
623.407	22.25
623.598	21.74
623.789	22.8
623.981	22.76
624.172	23.05
624.363	24.3
624.555	24.37
624.746	24.56
624.937	24.5
625.129	24.21
625.32	24.07
625.511	24.17
625.702	24.05
625.893	23.57
626.085	23.34
626.276	22.97
626.467	22.48
626.658	21.72
626.849	21.95
627.04	21.85
627.231	22.74
627.422	23.44
627.614	23.32
627.805	24.02
627.996	24.54
628.187	24.74
628.378	24.92
628.569	24.72
628.76	24.98
628.951	25.38
629.142	25.54
629.332	25.16
629.523	24.55
629.714	24.36
629.905	24.42
630.096	24.03
630.287	24.56
630.478	24.07
630.669	24.62
630.859	24.96
631.05	24.5
631.241	24.29
631.432	24.13
631.623	24.57
631.813	24.47
632.004	24.06
632.195	24.17
632.385	23.53
632.576	23.71
632.767	23.12
632.957	23.64
633.148	24.21
633.339	24.16
633.529	24.44
633.72	23.9
633.91	24.49
634.101	24.49
634.292	24.53
634.482	24.49
634.673	25.5
634.863	26.17
635.054	25.82
635.244	25.19
635.435	25.59
635.625	25.34
635.815	25.98
636.006	25.7
636.196	26.33
636.387	26.25
636.577	27.12
636.767	26.03
636.958	26.24
637.148	26.43
637.338	26.77
637.529	26.35
637.719	26.51
637.909	26.3
638.099	27.3
638.29	27.09
638.48	26.75
638.67	26.83
638.86	27.96
639.05	27.82
639.241	28.68
639.431	29.04
639.621	30.2
639.811	30.33
640.001	30.19
640.191	30.06
640.381	30.14
640.571	30.6
640.761	29.7
640.951	28.49
641.141	28.14
641.331	27.46
641.521	27.09
641.711	26.67
641.901	26.24
642.091	25.97
642.281	25.88
642.471	25.37
642.661	25.06
642.851	24.93
643.041	25.13
643.231	25.69
643.42	25.4
643.61	25.23
643.8	24.65
643.99	25.22
644.18	25.58
644.369	24.59
644.559	25.45
644.749	26.19
644.939	26.7
645.128	26.89
645.318	26.32
645.508	26.14
645.697	26.35
645.887	26.76
646.076	26.32
646.266	26.4
646.456	26.92
646.645	26.18
646.835	25.75
647.024	25.04
647.214	25.48
647.403	26.19
647.593	26.24
647.782	26.14
647.972	26.31
648.161	26.96
648.351	26.55
648.54	26.18
648.73	26.18
648.919	26.17
649.108	27.35
649.298	27.21
649.487	26.68
649.677	26.73
649.866	26.72
650.055	26.57
650.244	25.53
650.434	25.59
650.623	25.42
650.812	25.42
651.002	25.49
651.191	25.08
651.38	24.88
651.569	25.34
651.758	25.35
651.947	26.06
652.137	25.66
652.326	26.57
652.515	26.71
652.704	27.09
652.893	27.84
653.082	27.39
653.271	26.88
653.46	27.29
653.649	26.9
653.838	27.73
654.027	26.73
654.216	27.45
654.405	26.99
654.594	27.27
654.783	27.51
654.972	26.96
655.161	27.22
655.35	27.52
655.539	27.36
655.728	27.73
655.916	26.74
656.105	27.24
656.294	26.29
656.483	26.85
656.672	26.55
656.86	26.61
657.049	26.32
657.238	26.19
657.427	26.87
657.615	26.08
657.804	25.8
657.993	25.97
658.181	25.6
658.37	26.04
658.559	25.55
658.747	25.54
658.936	25.02
659.125	23.83
659.313	24.13
659.502	23.33
659.69	24.45
659.879	23.97
660.067	24.74
660.256	24.92
660.444	25.4
660.633	25.56
660.821	25.78
661.01	26.17
661.198	28.07
661.387	27.95
661.575	28.7
661.763	28.05
661.952	28.11
662.14	27.74
662.328	27.55
662.517	26.2
662.705	26.07
662.893	25.6
663.082	24.94
663.27	25.05
663.458	25.74
663.646	26.25
663.834	26.2
664.023	26.94
664.211	25.91
664.399	26.09
664.587	26.8
664.775	26.63
664.963	27.83
665.152	28.63
665.34	28.14
665.528	27.46
665.716	26.99
665.904	25.99
666.092	25.75
666.28	25.72
666.468	25.52
666.656	25.94
666.844	26.4
667.032	26.31
667.22	26.15
667.408	26.29
667.596	26.77
667.784	26.87
667.971	28.03
668.159	28.63
668.347	29.09
668.535	29.18
668.723	29.56
668.911	30.04
669.098	29.26
669.286	29.15
669.474	29.54
669.662	29.06
669.849	28.78
670.037	28.57
670.225	27.95
670.413	28.73
670.6	29.51
670.788	28.01
670.976	27.54
671.163	27.94
671.351	28.15
671.538	29.14
671.726	29.53
671.913	29.93
672.101	30.43
672.289	31.88
672.476	32.33
672.664	32.32
672.851	33.37
673.039	33.7
673.226	32.86
673.413	33.05
673.601	31.64
673.788	30.99
673.976	29.87
674.163	30.01
674.35	29.33
674.538	28.34
674.725	28.66
674.912	28.72
675.1	28.33
675.287	29.08
675.474	29.26
675.662	29.38
675.849	30.49
676.036	30.68
676.223	30.14
676.411	29
676.598	28.29
676.785	28.15
676.972	28.82
677.159	28.67
677.346	28.76
677.533	27.88
677.721	27.57
677.908	27.18
678.095	27.61
678.282	27.77
678.469	29.06
678.656	29.58
678.843	27.66
679.03	27.37
679.217	28.23
679.404	28.24
679.591	29.26
679.778	29.72
679.964	29.69
680.151	29.48
680.338	29.29
680.525	28.76
680.712	28.58
680.899	29.45
681.086	29.11
681.272	28.36
681.459	28.65
681.646	28.48
681.833	28.51
682.02	29.22
682.206	29.31
682.393	29.01
682.58	29.11
682.766	30.11
682.953	29.89
683.14	30.21
683.326	30.17
683.513	29.29
683.7	28.22
683.886	27.88
684.073	26.83
684.259	27.63
684.446	28.14
684.632	28.02
684.819	27.18
685.005	28.81
685.192	28.7
685.378	29.33
685.565	30.1
685.751	30.42
685.938	31.18
686.124	31.36
686.31	31.07
686.497	32.02
686.683	32.03
686.87	32.81
687.056	31.77
687.242	32.14
687.429	31.97
687.615	31.77
687.801	32.24
687.987	31.65
688.174	31.88
688.36	31.71
688.546	30.35
688.732	30.38
688.918	28.91
689.105	29.13
689.291	29.1
689.477	28.46
689.663	29.18
689.849	29.61
690.035	29.91
690.221	30.8
690.407	30.69
690.593	30.85
690.779	30.07
690.965	31.66
691.151	31.94
691.337	30.91
691.523	30.79
691.709	30.11
691.895	30.07
692.081	30.79
692.267	30.95
692.453	30.82
692.639	32.22
692.825	32.67
693.011	32.27
693.196	32.8
693.382	33.24
693.568	33.97
693.754	34.74
693.94	34.83
694.125	33.53
694.311	33.1
694.497	33.44
694.682	33.52
694.868	34.68
695.054	34.78
695.239	35.2
695.425	34.02
695.611	32.98
695.796	32.23
695.982	29.9
696.168	29.43
696.353	29.53
696.539	29.38
696.724	28.62
696.91	28.6
697.095	27.88
697.281	26.99
697.466	27.3
697.652	27.53
697.837	27.27
698.023	28.13
698.208	28.35
698.393	28.01
698.579	27.83
698.764	27.1
698.949	26.53
699.135	26.67
699.32	27.07
699.505	27.82
699.691	28.63
699.876	28.86
700.061	30.38
700.246	31.04
700.432	31.42
700.617	31.86
700.802	32.46
700.987	33.65
701.172	33.41
701.358	30.84
701.543	31.28
701.728	31.02
701.913	31.61
702.098	30.55
702.283	31.99
702.468	31.19
702.653	30.54
702.838	31.31
703.023	30.13
703.208	30.44
703.393	33.38
703.578	33.33
703.763	32.18
703.948	31.4
704.133	30.6
704.318	28.62
704.503	28.09
704.688	28.29
704.873	27.61
705.057	26.66
705.242	25.66
705.427	26.06
705.612	24.49
705.797	25.55
705.981	27.07
706.166	27.17
706.351	27.21
706.536	27.42
706.72	27.4
706.905	27.8
707.09	29.97
707.274	31.89
707.459	30.46
707.644	31.7
707.828	30.9
708.013	29.6
708.197	30.07
708.382	30.46
708.567	30.64
708.751	30.99
708.936	31.94
709.12	29.49
709.305	29.62
709.489	30.01
709.673	30.09
709.858	30.59
710.042	31.5
710.227	30.72
710.411	30.84
710.596	31.28
710.78	31.1
710.964	29.49
711.149	29.6
711.333	28.69
711.517	29.31
711.702	30.03
711.886	29.1
712.07	28.19
712.254	29.84
712.438	30.54
712.623	29.97
712.807	29.49
712.991	29.71
713.175	31.29
713.359	31.71
713.544	31.17
713.728	30.97
713.912	32.32
714.096	32.09
714.28	30.89
714.464	31.14
714.648	32.49
714.832	33.83
715.016	35.04
715.2	34.78
715.384	34.84
715.568	36.32
715.752	36.72
715.936	35.84
716.12	36.75
716.304	37.61
716.488	37.2
716.671	34.88
716.855	34.4
717.039	33.54
717.223	34.09
717.407	33.16
717.59	33.08
717.774	30.88
717.958	31.98
718.142	31.33
718.325	32.02
718.509	32.59
718.693	34.3
718.877	33.44
719.06	34.88
719.244	34.95
719.428	36.8
719.611	35.46
719.795	38.26
719.978	38.32
720.162	39.35
720.345	38.61
720.529	38.36
720.713	39.56
720.896	40.6
721.08	39.37
721.263	38.1
721.446	37.24
721.63	38.7
721.813	36.24
721.997	36.6
722.18	38.36
722.364	39.09
722.547	38
722.73	37.53
722.914	36.68
723.097	36.06
723.28	37.57
723.464	36.94
723.647	35.38
723.83	35.95
724.013	35.74
724.197	31.86
724.38	31.67
724.563	31.51
724.746	30.62
724.929	30.26
725.112	29.71
725.296	27.46
725.479	27.58
725.662	27.88
725.845	27.23
726.028	27.21
726.211	29.32
726.394	29.03
726.577	29.26
726.76	29.5
726.943	31.34
727.126	32.5
727.309	32.6
727.492	33.16
727.675	33.46
727.858	33.43
728.041	33.62
728.224	34.31
728.407	35.81
728.589	36.32
728.772	37.07
728.955	36.47
729.138	35.42
729.321	35.84
729.503	36.8
729.686	36.05
729.869	37.16
730.052	37.17
730.234	36.75
730.417	36.06
730.6	34.6
730.782	34.81
730.965	33.5
731.148	35.87
731.33	35.4
731.513	35.22
731.695	36.71
731.878	36.23
732.061	34.84
732.243	34.81
732.426	34.66
732.608	36.14
732.791	35.82
732.973	38.23
733.156	37.17
733.338	39.15
733.52	37.44
733.703	37.25
733.885	38.36
734.068	38.61
734.25	38.78
734.432	39.02
734.615	39.15
734.797	39.4
734.979	38.75
735.162	39.35
735.344	37.28
735.526	38.38
735.708	38.36
735.891	37.79
736.073	38.03
736.255	37.29
736.437	38.84
736.619	38.94
736.802	40.15
736.984	38.05
737.166	36.94
737.348	38.25
737.53	38.45
737.712	37.32
737.894	37.47
738.076	39.43
738.258	40.32
738.44	39.48
738.622	38.27
738.804	36.63
738.986	37.78
739.168	40.31
739.35	39.92
739.532	39.57
739.714	39.83
739.896	38.95
740.078	38.47
740.259	38.62
740.441	37.65
740.623	40.04
740.805	40.24
740.987	39.62
741.168	36.82
741.35	38.52
741.532	39.27
741.714	39.86
741.895	40.66
742.077	39.54
742.259	38.83
742.44	37.85
742.622	37.23
742.804	37.02
742.985	37.9
743.167	39.09
743.348	38.3
743.53	38.3
743.711	38.95
743.893	37.45
744.075	38.87
744.256	37.53
744.438	40.56
744.619	41.08
744.8	39.49
744.982	40.25
745.163	39.99
745.345	40.22
745.526	39.77
745.707	38.19
745.889	39.39
746.07	37.5
746.252	41.16
746.433	37.89
746.614	38.7
746.795	43.35
746.977	43.66
747.158	44.23
747.339	42.99
747.52	41.1
747.702	44.18
747.883	44.56
748.064	46.34
748.245	44.66
748.426	44.21
748.607	44.18
748.788	40.33
748.97	40.19
749.151	39.58
749.332	39.34
749.513	41.82
749.694	40.23
749.875	39.31
750.056	40.19
750.237	39.89
750.418	40.43
750.599	38.36
750.78	40.41
750.96	40.78
751.141	41.75
751.322	42.32
751.503	42.8
751.684	42.7
751.865	43.59
752.046	41.87
752.226	41.76
752.407	41.3
752.588	41.18
752.769	41.57
752.949	40.47
753.13	39.29
753.311	36.75
753.492	34.26
753.672	34.4
753.853	35.77
754.034	34.74
754.214	35.33
754.395	36.59
754.575	37.02
754.756	35.92
754.937	37.53
755.117	37.61
755.298	39.93
755.478	40.43
755.659	40.63
755.839	39.2
756.02	39.75
756.2	42.08
756.381	41.37
756.561	41.56
756.741	42.06
756.922	40.8
757.102	42.66
757.283	44.85
757.463	44.96
757.643	43.12
757.823	43.56
758.004	43.63
758.184	38.72
758.364	39.45
758.545	38.45
758.725	38.05
758.905	38.08
759.085	36.95
759.265	34.99
759.446	35.74
759.626	35.89
759.806	32.65
759.986	32.82
760.166	33.81
760.346	31.55
760.526	31.69
760.706	31.08
760.886	30.8
761.066	32.22
761.246	33.63
761.426	32.69
761.606	33.51
761.786	34.72
761.966	34.07
762.146	34.72
762.326	35.68
762.506	35.85
762.686	37.14
762.866	38.05
763.046	36.94
763.225	35.15
763.405	36.54
763.585	36.9
763.765	37.74
763.945	38.7
764.124	39.15
764.304	38.58
764.484	38.9
764.664	38.19
764.843	36.91
765.023	35.8
765.203	36.16
765.382	34.59
765.562	32.88
765.741	32.32
765.921	30.9
766.101	31.18
766.28	31.66
766.46	30.34
766.639	31.34
766.819	31.36
766.998	31.14
767.178	32.54
767.357	34.08
767.537	36.72
767.716	38.18
767.896	39.2
768.075	37.13
768.254	37.96
768.434	40.17
768.613	40.02
768.792	38.76
768.972	41.57
769.151	41.33
769.33	41.73
769.51	39.33
769.689	39.49
769.868	38.27
770.047	38.8
770.226	40.98
770.406	38.83
770.585	38.31
770.764	41.02
770.943	39.39
771.122	40.79
771.301	39.53
771.48	41.57
771.66	42.66
771.839	44.26
772.018	47.4
772.197	44.69
772.376	47.04
772.555	47.67
772.734	46.94
772.913	46.24
773.092	44.17
773.271	45.63
773.449	45.12
773.628	41.36
773.807	39.25
773.986	38.59
774.165	42.89
774.344	43.03
774.523	42.51
774.701	43.69
774.88	46.64
775.059	49.27
775.238	47.18
775.417	48.89
775.595	52.93
775.774	56.08
775.953	56.19
776.131	53.98
776.31	51.65
776.489	49.8
776.667	48.3
776.846	49.6
777.025	49.67
777.203	50.24
777.382	49.31
777.56	45.76
777.739	44.43
777.917	43.61
778.096	42.25
778.274	43.85
778.453	47.14
778.631	49.42
778.81	46.88
778.988	46.19
779.166	46.86
779.345	46.25
779.523	46.94
779.702	46.57
779.88	48.82
780.058	49.2
780.237	46.78
780.415	43.9
780.593	44.17
780.771	45.72
780.95	46.19
781.128	47.56
781.306	50.47
781.484	52.36
781.662	51.57
781.841	49.99
782.019	52.57
782.197	56.48
782.375	56.24
782.553	59.56
782.731	58.69
782.909	58.31
783.087	56.4
783.265	54.26
783.443	52.55
783.621	52.73
783.799	51.99
783.977	51.4
784.155	49.69
784.333	51.19
784.511	43.74
784.689	43.02
784.867	40.2
785.045	41.78
785.223	39.52
785.4	40.57
785.578	42.9
785.756	45.82
785.934	44.57
786.112	46.63
786.289	47.22
786.467	51.3
786.645	48.88
786.823	49.66
787	45.17
787.178	45.44
787.356	46.39
787.533	45.25
787.711	43.63
787.889	45.74
788.066	44.92
788.244	42.9
788.421	41.66
788.599	43.4
788.776	43.56
788.954	44.94
789.131	44.66
789.309	42.52
789.486	43.89
789.664	44.95
789.841	44.03
790.019	43.93
790.196	43.6
790.373	43.13
790.551	43.9
790.728	42.75
790.906	44.71
791.083	50.84
791.26	54.62
791.437	52.77
791.615	51.12
791.792	50
791.969	51.34
792.146	52.73
792.324	54.49
792.501	55.64
792.678	61.55
792.855	58.87
793.032	53.4
793.209	51.22
793.387	52.48
793.564	53.82
793.741	55.09
793.918	55.97
794.095	54.02
794.272	55.25
794.449	55.39
794.626	52.55
794.803	51.55
794.98	49.93
795.157	46.08
795.334	45.37
795.511	44.49
795.688	39.87
795.864	36.88
796.041	40.14
796.218	37.48
796.395	37.48
796.572	34.91
796.749	38.49
796.925	39.92
797.102	40.31
797.279	39.72
797.456	38.9
797.632	42.45
797.809	46.58
797.986	46.53
798.162	44.06
798.339	42.49
798.516	44.09
798.692	43.81
798.869	43.84
799.046	45.46
799.222	49.64
799.399	49.33
799.575	45.79
799.752	42.64
799.928	46.14
800.105	49.91
800.281	48.86
800.458	48.66
800.634	50.14
800.811	51.76
800.987	55.61
801.163	51.01
801.34	50.6
801.516	52.55
801.692	54.21
801.869	46.93
802.045	44.53
802.221	47.05
802.398	46.82
802.574	47.58
802.75	48.08
802.926	43.87
803.103	48.91
803.279	49.47
803.455	50.12
803.631	46.25
803.807	48.25
803.983	51.15
804.16	47.42
804.336	44.91
804.512	40.89
804.688	36.72
804.864	35.56
805.04	31.08
805.216	31.19
805.392	32.22
805.568	33.96
805.744	38.04
805.92	41.95
806.096	45.36
806.272	46.46
806.448	48.19
806.623	48.1
806.799	52.3
806.975	51.1
807.151	52.83
807.327	50.73
807.503	52.08
807.678	51.03
807.854	51.37
808.03	47.46
808.206	49.85
808.381	51.44
808.557	51.21
808.733	50.73
808.908	53.79
809.084	54.49
809.26	58.03
809.435	58.28
809.611	54.73
809.787	48.22
809.962	52.79
810.138	52.38
810.313	49.91
810.489	49.29
810.664	50.67
810.84	49.35
811.015	46.02
811.191	44.23
811.366	48.2
811.542	50.69
811.717	52.58
811.892	48.82
812.068	49.41
812.243	48.54
812.419	52.21
812.594	45.88
812.769	47.29
812.944	48.18
813.12	46.43
813.295	42.05
813.47	40.18
813.645	40.93
813.821	45.07
813.996	42.67
814.171	41.25
814.346	39.07
814.521	41.53
814.697	41.45
814.872	38.86
815.047	40.58
815.222	44.43
815.397	42.2
815.572	39.45
815.747	41.87
815.922	39.46
816.097	41.94
816.272	47.57
816.447	50
816.622	46.19
816.797	47.9
816.972	46.57
817.147	43.48
817.322	45.69
817.496	50.08
817.671	47.32
817.846	47.99
818.021	49.02
818.196	45.33
818.371	41.02
818.545	43.36
818.72	42.97
818.895	44.47
819.069	46.11
819.244	45.15
819.419	42.49
819.594	40.82
819.768	40.58
819.943	39.48
820.117	38.18
820.292	37.05
820.467	35.08
820.641	34.82
820.816	33.76
820.99	31.35
821.165	31.37
821.339	30.63
821.514	30.53
821.688	30.24
821.863	30.12
822.037	29.41
822.212	29.88
822.386	29.8
822.56	28.53
822.735	28.21
822.909	28.87
823.084	28.32
823.258	27.88
823.432	28.37
823.606	27.84
823.781	27
823.955	27.65
824.129	27.84
824.303	27.5
824.478	28.74
824.652	28.95
824.826	29.11
825	28.77
825.174	28.61
825.348	27.2
825.523	27.46
825.697	27.27
825.871	25.94
826.045	27.26
826.219	28.51
826.393	28.38
826.567	27.84
826.741	28.54
826.915	30.43
827.089	31.79
827.263	33.21
827.437	34.09
827.611	34.3
827.784	35.59
827.958	33.6
828.132	33.19
828.306	33.67
828.48	35.35
828.654	35.9
828.827	35.11
829.001	35.33
829.175	36.02
829.349	35.95
829.522	38.1
829.696	40.56
829.87	40.38
830.044	42
830.217	44.06
830.391	44.27
830.565	41.65
830.738	45.57
830.912	43.8
831.085	41.13
831.259	41.95
831.432	40.54
831.606	37.87
831.779	38.28
831.953	37.24
832.126	37.38
832.3	34.56
832.473	35.86
832.647	32.26
832.82	31.52
832.994	34.46
833.167	33.32
833.34	33.31
833.514	33.73
833.687	31.31
833.86	31.87
834.034	31.44
834.207	31.64
834.38	30.92
834.553	31.23
834.727	34.16
834.9	32.36
835.073	33.03
835.246	32.71
835.419	31.78
835.593	35.4
835.766	34.99
835.939	30.83
836.112	32.52
836.285	30.52
836.458	31.13
836.631	27.96
836.804	29.28
836.977	30.9
837.15	29.52
837.323	30.52
837.496	34.89
837.669	32.35
837.842	40.74
838.015	37.6
838.188	39.75
838.361	39.89
838.533	41.61
838.706	36.39
838.879	38.9
839.052	44.5
839.225	45.18
839.398	39.06
839.57	40.98
839.743	37.73
839.916	44.92
840.088	44.32
840.261	45.19
840.434	47.7
840.607	50.85
840.779	52.29
840.952	49.24
841.124	48.67
841.297	57.02
841.47	58.2
841.642	60.63
841.815	57.2
841.987	57.25
842.16	53.6
842.332	51.64
842.505	47.1
842.677	43.36
842.85	46.06
843.022	46.53
843.194	38.24
843.367	39.33
843.539	46.85
843.712	45.87
843.884	55.18
844.056	64.59
844.229	64.61
844.401	65.32
844.573	65.09
844.745	64.98
844.918	64.46
845.09	62.29
845.262	61.9
845.434	51.13
845.606	51.65
845.779	41.38
845.951	40.93
846.123	34.71
846.295	39.03
846.467	44.98
846.639	39.86
846.811	46.25
846.983	59.48
847.155	64.62
847.327	64.67
847.499	63.32
847.671	69.16
847.843	62.68
848.015	65.54
848.187	75.31
848.359	69.96
848.531	66.28
848.703	61.74
848.875	61.6
849.047	53.06
849.218	58.94
849.39	63.77
849.562	58.25
849.734	58.83
849.905	65.52
850.077	63.23
850.249	67.58
850.421	79.53
850.592	78.39
850.764	76.74
850.936	84.25
851.107	85.66
851.279	84.87
851.451	82.83
851.622	83.79
851.794	81.19
851.965	80.27
852.137	76.42
852.308	82.43
852.48	79.49
852.651	72.88
852.823	71.24
852.994	72.8
853.166	69.9
853.337	70.21
853.509	53.37
853.68	57.94
853.851	55.37
854.023	53.62
854.194	32.34
854.365	34.81
854.537	27.53
854.708	29.78
854.879	22.12
855.05	22.68
855.222	33.69
855.393	42.47
855.564	34.08
855.735	35.89
855.906	38.68
856.078	52.28
856.249	64.37
856.42	85.06
856.591	91.78
856.762	97.27
856.933	101.68
857.104	104.34
857.275	106.43
857.446	130.45
857.617	122.93
857.788	119.19
857.959	111.08
858.13	96.57
858.301	88.35
858.472	78.12
858.643	82.91
858.814	78.87
858.985	71.36
859.155	81.06
859.326	78.94
859.497	73.69
859.668	76.17
859.839	73.44
860.009	84.89
860.18	76.38
860.351	81.04
860.522	71.52
860.692	73.94
860.863	83.99
861.034	87.29
861.204	87.4
861.375	98.34
861.546	92.74
861.716	89.7
861.887	89.61
862.057	96.53
862.228	107.45
862.398	93.94
862.569	89.83
862.739	78.29
862.91	75.5
863.08	69.33
863.251	63.2
863.421	54.22
863.592	59.58
863.762	52.77
863.932	44.29
864.103	38.88
864.273	41.83
864.443	38.08
864.614	43.48
864.784	46.67
864.954	49.03
865.125	44.32
865.295	56.52
865.465	66.73
865.635	68.23
865.805	67.51
865.976	65.01
866.146	60.62
866.316	66.92
866.486	79.54
866.656	66.7
866.826	66.11
866.996	69.71
867.166	76.13
867.336	67.97
867.506	68.35
867.676	71.76
867.846	66.13
868.016	70.88
868.186	61.16
868.356	45.03
868.526	53.16
868.696	44.62
868.866	40.25
869.036	45.53
869.206	44.54
869.376	37.96
869.545	44.73
869.715	70.9
869.885	65.11
870.055	64.13
870.224	69.51
870.394	60.62
870.564	69.28
870.734	70.97
870.903	69.73
871.073	69.13
871.243	75.26
871.412	72.91
871.582	67.52
871.751	68.61
871.921	78.09
872.091	71.19
872.26	88.12
872.43	94.73
872.599	85.53
872.769	87.36
872.938	77.82
873.108	86.55
873.277	103.28
873.446	92.76
873.616	89.52
873.785	82.41
873.955	86.26
874.124	81.44
874.293	82.24
874.463	94.69
874.632	80.42
874.801	81.68
874.971	56.54
875.14	42.8
875.309	40.66
875.478	50.34
875.647	55.92
875.817	54.33
875.986	47.02
876.155	49.46
876.324	51.69
876.493	58.95
876.662	61.9
876.831	64.02
877	75.8
877.17	83.24
877.339	82.89
877.508	77.53
877.677	77.77
877.846	77.27
878.015	68.14
878.184	69.46
878.352	66.22
878.521	60.31
878.69	66.13
878.859	62.75
879.028	59.46
879.197	59.21
879.366	58.68
879.534	52.64
879.703	52.46
879.872	50.57
880.041	45.23
880.21	41.4
880.378	39.71
880.547	41.1
880.716	40.63
880.884	39.59
881.053	35.32
881.222	34.23
881.39	35.32
881.559	34.84
881.727	35.62
881.896	33.93
882.065	35.29
882.233	35.04
882.402	33.18
882.57	32.4
882.739	32.06
882.907	33.22
883.076	35.13
883.244	33.95
883.412	34.8
883.581	32.15
883.749	35.16
883.918	33.93
884.086	32.69
884.254	34.87
884.423	33.29
884.591	35.53
884.759	34.25
884.927	32.68
885.096	36.97
885.264	31.94
885.432	35.78
885.6	37.57
885.769	39.2
885.937	44.36
886.105	41.57
886.273	43.58
886.441	42.37
886.609	45.72
886.777	45.76
886.945	37.46
887.113	44.86
887.281	43.46
887.449	38.29
887.617	40.15
887.785	47.65
887.953	52.6
888.121	66.46
888.289	65.45
888.457	63.18
888.625	62.27
888.793	65.88
888.961	64.14
889.129	73.27
889.296	82.85
889.464	80
889.632	72.27
889.8	73.92
889.967	60.18
890.135	58.3
