Data from JASIL_2962_Reflection_1.txt Node
Date: Sat Nov 07 21:23:11 EST 2015
User: Geneva
Spectrometer: USB4E03002
Autoset integration time: false
Trigger mode: 4
Integration Time (sec): 1.000000E-1
Scans to average: 10
Electric dark correction enabled: true
Nonlinearity correction enabled: false
Boxcar width: 5
Stray light correction enabled: false
XAxis mode: Wavelengths
Stop averaging: false
Number of Pixels in Spectrum: 3648
>>>>>Begin Spectral Data<<<<<
177.575	44.13
177.794	54.49
178.014	62.51
178.233	-26.17
178.452	-60.56
178.672	171.76
178.891	172.96
179.11	126.02
179.33	157.55
179.549	99.59
179.768	38.73
179.987	26.21
180.207	-17.79
180.426	163.55
180.645	117.75
180.864	130.49
181.084	92.1
181.303	98.06
181.522	50.41
181.741	48.32
181.96	50.47
182.179	44.34
182.398	30.26
182.618	28.89
182.837	4.67
183.056	-49.35
183.275	-45.24
183.494	5.85
183.713	48.71
183.932	83.72
184.151	249.91
184.37	126.5
184.589	73.51
184.808	69.93
185.027	49.39
185.246	50.18
185.465	43.41
185.684	37
185.903	23.29
186.122	30.24
186.341	38.43
186.56	32.69
186.779	16.88
186.998	24.77
187.216	32.56
187.435	51.73
187.654	56.4
187.873	72.61
188.092	72.16
188.311	64.54
188.53	41.69
188.748	33.9
188.967	4.67
189.186	32.83
189.405	19.52
189.623	6.02
189.842	5.42
190.061	8.12
190.28	-31.6
190.498	-42.3
190.717	-133.5
190.936	-192.88
191.154	-342.07
191.373	4123.02
191.592	-634.99
191.81	-585.28
192.029	-151.89
192.248	-347.76
192.466	-294.48
192.685	-70.74
192.904	-25.34
193.122	11.65
193.341	14.18
193.559	19.43
193.778	27.99
193.996	61.26
194.215	60.87
194.433	53.02
194.652	62.49
194.87	61.31
195.089	57.63
195.307	60.76
195.526	60.83
195.744	48.43
195.963	41.84
196.181	27.57
196.399	5
196.618	0.38
196.836	13.12
197.055	5.1
197.273	-0.82
197.491	-4.79
197.71	1.62
197.928	-10.82
198.146	-4.56
198.365	-6.1
198.583	-5.22
198.801	1.73
199.019	-7.71
199.238	-8.32
199.456	-26.89
199.674	-22.35
199.892	-27.73
200.111	-64.55
200.329	-31.39
200.547	-37.67
200.765	-27.57
200.983	-19.65
201.202	0.32
201.42	17.17
201.638	-5.79
201.856	11.76
202.074	19.6
202.292	15.26
202.51	12.99
202.728	10.19
202.946	-10.32
203.165	-17.31
203.383	-35.21
203.601	-42.65
203.819	-42.81
204.037	-21.85
204.255	-7.47
204.473	-3.16
204.691	-2.29
204.909	-13.28
205.127	-2.94
205.345	17.13
205.562	16.59
205.78	24.15
205.998	23.52
206.216	28.99
206.434	28.85
206.652	26.76
206.87	15.61
207.088	9.47
207.306	13.35
207.523	22.42
207.741	13.86
207.959	18.89
208.177	25.65
208.395	9.07
208.612	-22.46
208.83	-6.94
209.048	-15.1
209.266	-30.09
209.483	-28.58
209.701	-12
209.919	-28.24
210.136	-25.36
210.354	14.72
210.572	12.04
210.79	13.55
211.007	24.17
211.225	21.34
211.442	24.24
211.66	24.57
211.878	23.19
212.095	21.22
212.313	27.56
212.53	26.16
212.748	15.33
212.966	20.78
213.183	20.34
213.401	16
213.618	20.09
213.836	20.03
214.053	21.91
214.271	14.27
214.488	13.59
214.705	2.29
214.923	-1.45
215.14	-3.38
215.358	-6.1
215.575	-0.32
215.793	6.13
216.01	-3.63
216.227	-5.12
216.445	-12.93
216.662	-12.27
216.879	-7.18
217.097	-6.17
217.314	-3.76
217.531	-4.06
217.749	-6.14
217.966	-6.47
218.183	-9.73
218.4	-9.54
218.618	-9.94
218.835	-4.2
219.052	2.19
219.269	-2.84
219.487	-1.28
219.704	-1.46
219.921	-1.64
220.138	0.23
220.355	0.74
220.572	6.99
220.79	5.14
221.007	6.95
221.224	7.1
221.441	7.07
221.658	6.28
221.875	9.95
222.092	13.29
222.309	10.7
222.526	10.71
222.743	9.34
222.96	2
223.177	3.22
223.394	3.63
223.611	3.64
223.828	2.85
224.045	1.68
224.262	-1.53
224.479	-2.48
224.696	1.78
224.913	2.83
225.13	6.97
225.347	11.37
225.564	11.3
225.781	10.25
225.997	11.14
226.214	10.64
226.431	10.97
226.648	11.6
226.865	11.26
227.082	9.9
227.298	9.08
227.515	7.31
227.732	6.58
227.949	7.21
228.165	7.05
228.382	5.76
228.599	5.97
228.816	5.85
229.032	4.6
229.249	5.07
229.466	5.21
229.682	4.99
229.899	6.55
230.116	6.53
230.332	6.72
230.549	7.56
230.765	9.68
230.982	9.55
231.199	10.82
231.415	12.26
231.632	10.09
231.848	10.24
232.065	10.91
232.281	9.63
232.498	9.75
232.714	8.87
232.931	8.21
233.147	8.11
233.364	7.93
233.58	8.61
233.797	8.21
234.013	9.29
234.23	9.26
234.446	9.74
234.662	9.9
234.879	9.87
235.095	9.59
235.312	9.58
235.528	9.41
235.744	9.39
235.961	7.92
236.177	7.64
236.393	7.75
236.61	7.43
236.826	6.95
237.042	6.91
237.258	6.63
237.475	7.01
237.691	6.66
237.907	5.39
238.123	5.71
238.339	5.58
238.556	5.51
238.772	5.91
238.988	6.61
239.204	6.24
239.42	6.58
239.636	7.38
239.853	7.21
240.069	8.04
240.285	8.83
240.501	8.76
240.717	8.86
240.933	9.18
241.149	8.96
241.365	9.29
241.581	9.21
241.797	8.87
242.013	8.49
242.229	8.81
242.445	8.19
242.661	7.8
242.877	7.95
243.093	7.84
243.309	7.55
243.525	7.5
243.741	6.94
243.957	7.21
244.173	7.71
244.388	7.53
244.604	6.99
244.82	7.41
245.036	7.56
245.252	7.56
245.468	7.39
245.683	7.71
245.899	7.7
246.115	7.56
246.331	7.59
246.547	7.49
246.762	7.49
246.978	7.68
247.194	7.59
247.409	7.62
247.625	7.22
247.841	7.24
248.057	6.68
248.272	6.36
248.488	6.4
248.703	5.95
248.919	5.87
249.135	5.97
249.35	5.61
249.566	5.64
249.782	5.36
249.997	6.03
250.213	6.19
250.428	6.56
250.644	6.75
250.859	6.43
251.075	6.6
251.29	6.48
251.506	6.07
251.721	6
251.937	5.99
252.152	6.11
252.368	5.62
252.583	5.55
252.798	5.3
253.014	5.34
253.229	5.5
253.445	5.08
253.66	4.67
253.875	4.76
254.091	4.51
254.306	4.14
254.521	3.81
254.737	4.25
254.952	4.18
255.167	4.13
255.383	4.52
255.598	4.98
255.813	5.75
256.028	5.74
256.244	5.9
256.459	5.67
256.674	5.64
256.889	5.59
257.104	5.55
257.32	5.58
257.535	5.82
257.75	5.57
257.965	5.29
258.18	5.19
258.395	5.21
258.61	5.08
258.826	5.39
259.041	5.34
259.256	5.49
259.471	5.5
259.686	5.6
259.901	5.6
260.116	5.63
260.331	5.54
260.546	5.55
260.761	5.52
260.976	5.72
261.191	5.53
261.406	5.58
261.621	5.27
261.836	5.08
262.05	4.4
262.265	4.13
262.48	4.04
262.695	4.28
262.91	4.27
263.125	4.51
263.34	4.74
263.555	5.02
263.769	5
263.984	5.2
264.199	5.51
264.414	6.04
264.629	6.08
264.843	6.14
265.058	5.93
265.273	5.78
265.488	5.68
265.702	5.49
265.917	5.67
266.132	5.71
266.346	5.87
266.561	5.87
266.776	5.66
266.99	5.66
267.205	5.51
267.42	5.47
267.634	5.32
267.849	5.4
268.063	5.16
268.278	4.72
268.492	4.59
268.707	4.39
268.922	4.23
269.136	4.51
269.351	4.79
269.565	4.87
269.78	4.89
269.994	4.65
270.209	4.58
270.423	4.92
270.637	5.05
270.852	5.1
271.066	4.84
271.281	4.95
271.495	4.93
271.709	4.74
271.924	4.53
272.138	4.54
272.353	4.87
272.567	4.86
272.781	4.64
272.996	4.53
273.21	4.53
273.424	4.79
273.638	4.66
273.853	4.45
274.067	4.34
274.281	4.62
274.495	4.43
274.71	4.27
274.924	4.15
275.138	4.22
275.352	4.39
275.566	4.45
275.781	4.49
275.995	4.37
276.209	4.51
276.423	4.45
276.637	4.19
276.851	4.26
277.065	4.53
277.279	4.54
277.493	4.9
277.707	4.57
277.921	4.78
278.135	4.72
278.349	4.71
278.563	4.69
278.777	4.4
278.991	4.72
279.205	5.01
279.419	4.96
279.633	5.13
279.847	4.83
280.061	4.94
280.275	4.79
280.489	4.92
280.703	4.97
280.917	4.84
281.131	5.27
281.344	4.95
281.558	4.65
281.772	4.5
281.986	4.23
282.2	4.24
282.414	4.53
282.627	4.41
282.841	4.27
283.055	4.2
283.269	4.18
283.482	4.07
283.696	4.34
283.91	4.73
284.123	4.84
284.337	4.79
284.551	4.69
284.764	4.44
284.978	4.61
285.192	4.58
285.405	4.61
285.619	4.76
285.833	4.68
286.046	4.51
286.26	4.36
286.473	4.04
286.687	4.15
286.9	4.3
287.114	4.42
287.327	4.46
287.541	4.53
287.754	4.51
287.968	4.27
288.181	4.33
288.395	4.46
288.608	4.35
288.822	4.59
289.035	4.74
289.248	4.72
289.462	4.71
289.675	4.69
289.889	4.78
290.102	4.86
290.315	4.97
290.529	4.94
290.742	4.92
290.955	5.04
291.169	5.1
291.382	4.81
291.595	4.64
291.808	4.57
292.022	4.45
292.235	4.26
292.448	4.44
292.661	4.55
292.875	4.8
293.088	4.77
293.301	4.67
293.514	4.68
293.727	4.79
293.94	5
294.153	5.19
294.367	5.13
294.58	5.06
294.793	4.89
295.006	5
295.219	5.13
295.432	5.34
295.645	5.55
295.858	5.43
296.071	5.43
296.284	5.24
296.497	5.06
296.71	5.17
296.923	5.39
297.136	5.33
297.349	5.29
297.562	5.09
297.775	4.94
297.988	4.87
298.201	4.95
298.414	4.89
298.626	4.99
298.839	5.14
299.052	5.09
299.265	4.91
299.478	4.91
299.691	4.66
299.903	4.69
300.116	4.63
300.329	4.59
300.542	4.53
300.755	4.77
300.967	4.72
301.18	4.78
301.393	4.88
301.605	4.88
301.818	4.84
302.031	5.06
302.243	5.17
302.456	5.49
302.669	5.46
302.881	5.41
303.094	5.24
303.307	5.44
303.519	5.37
303.732	5.35
303.944	5.5
304.157	5.5
304.37	5.51
304.582	5.46
304.795	5.14
305.007	5.02
305.22	5.33
305.432	5.29
305.645	5.18
305.857	5.18
306.069	5.1
306.282	4.92
306.494	5.13
306.707	5.1
306.919	5.24
307.132	5.18
307.344	5.02
307.556	4.96
307.769	5.19
307.981	5.2
308.193	5.35
308.406	5.09
308.618	5.21
308.83	5.1
309.043	5.24
309.255	5.26
309.467	5.3
309.679	5.5
309.892	5.56
310.104	5.39
310.316	5.52
310.528	5.44
310.74	5.77
310.953	5.95
311.165	6.04
311.377	5.79
311.589	5.55
311.801	5.65
312.013	5.76
312.225	5.83
312.437	6.07
312.649	5.94
312.862	5.96
313.074	5.74
313.286	5.46
313.498	5.45
313.71	5.72
313.922	5.98
314.134	6.04
314.346	5.81
314.558	5.79
314.77	5.83
314.982	5.72
315.193	5.72
315.405	5.66
315.617	5.63
315.829	5.63
316.041	5.75
316.253	5.56
316.465	5.65
316.677	5.67
316.888	5.47
317.1	5.19
317.312	5.44
317.524	5.55
317.736	5.74
317.947	5.75
318.159	5.91
318.371	5.8
318.583	5.89
318.794	5.92
319.006	6.09
319.218	6.25
319.43	6.26
319.641	6.19
319.853	6.26
320.064	6.34
320.276	6.72
320.488	6.68
320.699	6.71
320.911	6.82
321.123	6.86
321.334	7.09
321.546	7.03
321.757	7.12
321.969	7.12
322.18	6.8
322.392	6.58
322.603	6.4
322.815	6.28
323.026	6.41
323.238	6.24
323.449	6.2
323.661	6.07
323.872	6.15
324.083	6.19
324.295	6.26
324.506	6.35
324.718	6.46
324.929	6.47
325.14	6.58
325.352	6.58
325.563	6.73
325.774	6.84
325.986	6.73
326.197	6.7
326.408	6.69
326.62	6.5
326.831	6.64
327.042	6.61
327.253	6.79
327.464	6.8
327.676	6.6
327.887	6.51
328.098	6.28
328.309	6.49
328.52	6.6
328.732	7.01
328.943	7.12
329.154	7.21
329.365	7.32
329.576	7.26
329.787	7.19
329.998	7.43
330.209	7.56
330.42	7.73
330.631	7.66
330.842	7.59
331.053	7.33
331.264	7.42
331.475	7.39
331.686	7.45
331.897	7.46
332.108	7.47
332.319	7.3
332.53	7.42
332.741	7.25
332.952	7.24
333.163	7.42
333.374	7.43
333.585	7.31
333.795	7.11
334.006	6.95
334.217	6.87
334.428	7.08
334.639	7.07
334.849	6.89
335.06	7.06
335.271	7.05
335.482	6.8
335.692	6.91
335.903	6.85
336.114	6.84
336.325	7.12
336.535	7.21
336.746	6.99
336.957	6.84
337.167	7.06
337.378	7.06
337.589	7.01
337.799	7.19
338.01	7.18
338.22	7.26
338.431	7.42
338.642	7.25
338.852	7.02
339.063	7.05
339.273	7.18
339.484	7.06
339.694	7.03
339.905	6.95
340.115	6.81
340.326	6.59
340.536	6.56
340.746	6.54
340.957	6.43
341.167	6.54
341.378	6.54
341.588	6.68
341.799	6.57
342.009	6.42
342.219	6.61
342.43	6.68
342.64	6.62
342.85	6.6
343.061	6.53
343.271	6.64
343.481	6.74
343.691	6.6
343.902	6.46
344.112	6.46
344.322	6.46
344.532	6.36
344.743	6.39
344.953	6.37
345.163	6.52
345.373	6.53
345.583	6.6
345.793	6.4
346.004	6.49
346.214	6.44
346.424	6.5
346.634	6.62
346.844	6.7
347.054	6.56
347.264	6.82
347.474	6.85
347.684	6.78
347.894	6.66
348.104	6.56
348.314	6.48
348.524	6.64
348.734	6.64
348.944	6.56
349.154	6.47
349.364	6.34
349.574	6.23
349.784	6.11
349.994	6.2
350.204	6
350.413	6.1
350.623	6.33
350.833	6.23
351.043	6.02
351.253	6.01
351.463	6.07
351.672	6.04
351.882	5.98
352.092	5.89
352.302	5.9
352.511	6.12
352.721	6.09
352.931	5.98
353.141	5.7
353.35	5.78
353.56	5.8
353.77	5.93
353.979	6.11
354.189	6.18
354.399	6.45
354.608	6.36
354.818	6.35
355.027	6.46
355.237	6.47
355.447	6.75
355.656	6.78
355.866	6.89
356.075	6.75
356.285	6.62
356.494	6.44
356.704	6.23
356.913	6.31
357.123	6.24
357.332	6.17
357.542	6.27
357.751	6.37
357.96	6.28
358.17	6.12
358.379	6.04
358.589	6.09
358.798	6.23
359.007	6.26
359.217	6.11
359.426	6.19
359.635	6.11
359.845	6
360.054	5.85
360.263	5.91
360.472	5.95
360.682	6.08
360.891	6.14
361.1	6.12
361.309	6.16
361.519	6.22
361.728	6.21
361.937	6.32
362.146	6.26
362.355	6.3
362.564	6.23
362.774	6.18
362.983	5.93
363.192	5.86
363.401	5.77
363.61	5.72
363.819	5.7
364.028	5.7
364.237	5.6
364.446	5.8
364.655	5.76
364.864	5.9
365.073	5.9
365.282	6.11
365.491	6.11
365.7	6.21
365.909	6.09
366.118	6.19
366.327	6.18
366.536	6.2
366.745	5.96
366.954	5.95
367.162	5.84
367.371	5.85
367.58	5.71
367.789	5.61
367.998	5.62
368.207	5.81
368.415	5.76
368.624	5.64
368.833	5.66
369.042	5.72
369.25	5.7
369.459	5.82
369.668	5.73
369.877	5.76
370.085	5.94
370.294	5.84
370.503	5.73
370.711	5.61
370.92	5.59
371.129	5.59
371.337	5.52
371.546	5.41
371.754	5.24
371.963	5.4
372.171	5.44
372.38	5.2
372.589	5.24
372.797	5.13
373.006	5.12
373.214	5.1
373.423	5.1
373.631	5.11
373.84	5.31
374.048	5.43
374.256	5.3
374.465	5.18
374.673	5.11
374.882	5.01
375.09	5.02
375.298	4.97
375.507	5.08
375.715	5
375.923	4.96
376.132	4.89
376.34	4.67
376.548	4.66
376.757	4.64
376.965	4.79
377.173	4.89
377.381	4.92
377.59	4.88
377.798	4.78
378.006	4.76
378.214	4.83
378.423	4.74
378.631	4.88
378.839	4.91
379.047	4.94
379.255	4.91
379.463	4.86
379.671	4.78
379.879	4.83
380.088	4.86
380.296	4.85
380.504	4.88
380.712	4.93
380.92	4.92
381.128	4.91
381.336	4.97
381.544	5.01
381.752	4.87
381.96	4.9
382.168	4.9
382.376	4.87
382.584	4.91
382.791	4.82
382.999	4.78
383.207	4.81
383.415	4.73
383.623	4.6
383.831	4.54
384.039	4.61
384.247	4.63
384.454	4.73
384.662	4.73
384.87	4.7
385.078	4.68
385.285	4.7
385.493	4.65
385.701	4.68
385.909	4.71
386.116	4.73
386.324	4.75
386.532	4.62
386.739	4.61
386.947	4.54
387.155	4.51
387.362	4.61
387.57	4.63
387.778	4.57
387.985	4.6
388.193	4.72
388.4	4.71
388.608	4.67
388.816	4.79
389.023	4.72
389.231	4.69
389.438	4.82
389.646	4.62
389.853	4.62
390.061	4.6
390.268	4.57
390.475	4.46
390.683	4.36
390.89	4.33
391.098	4.24
391.305	4.2
391.512	4.22
391.72	4.09
391.927	4.15
392.135	4.05
392.342	4.11
392.549	4.08
392.756	4.04
392.964	4.1
393.171	4.11
393.378	4.17
393.586	4.19
393.793	4.2
394	4.11
394.207	4.15
394.414	4.23
394.622	4.2
394.829	4.2
395.036	4.14
395.243	4.05
395.45	4.02
395.657	3.89
395.864	3.83
396.072	3.83
396.279	3.96
396.486	3.9
396.693	3.96
396.9	3.93
397.107	3.89
397.314	3.93
397.521	3.93
397.728	3.94
397.935	3.98
398.142	3.92
398.349	3.88
398.556	3.8
398.763	3.78
398.97	3.7
399.177	3.79
399.383	3.79
399.59	3.77
399.797	3.7
400.004	3.67
400.211	3.68
400.418	3.72
400.625	3.77
400.831	3.77
401.038	3.81
401.245	3.7
401.452	3.51
401.658	3.47
401.865	3.57
402.072	3.65
402.279	3.7
402.485	3.7
402.692	3.7
402.899	3.62
403.105	3.67
403.312	3.66
403.519	3.72
403.725	3.81
403.932	3.87
404.138	3.84
404.345	3.84
404.552	3.78
404.758	3.86
404.965	3.84
405.171	3.8
405.378	3.73
405.584	3.7
405.791	3.64
405.997	3.66
406.204	3.68
406.41	3.58
406.617	3.55
406.823	3.56
407.029	3.52
407.236	3.51
407.442	3.55
407.649	3.7
407.855	3.73
408.061	3.77
408.268	3.74
408.474	3.63
408.68	3.72
408.887	3.7
409.093	3.73
409.299	3.68
409.505	3.73
409.712	3.73
409.918	3.61
410.124	3.57
410.33	3.63
410.537	3.64
410.743	3.59
410.949	3.61
411.155	3.68
411.361	3.72
411.567	3.69
411.773	3.54
411.98	3.55
412.186	3.55
412.392	3.52
412.598	3.48
412.804	3.45
413.01	3.56
413.216	3.47
413.422	3.44
413.628	3.44
413.834	3.43
414.04	3.56
414.246	3.56
414.452	3.54
414.658	3.59
414.864	3.58
415.07	3.56
415.275	3.57
415.481	3.54
415.687	3.5
415.893	3.43
416.099	3.43
416.305	3.44
416.511	3.43
416.716	3.43
416.922	3.42
417.128	3.46
417.334	3.49
417.539	3.46
417.745	3.46
417.951	3.5
418.157	3.57
418.362	3.57
418.568	3.54
418.774	3.51
418.979	3.48
419.185	3.49
419.391	3.46
419.596	3.39
419.802	3.36
420.008	3.36
420.213	3.68
420.419	3.64
420.624	3.67
420.83	3.66
421.035	3.68
421.241	3.71
421.446	3.73
421.652	3.71
421.857	3.72
422.063	3.73
422.268	3.73
422.474	3.42
422.679	3.39
422.885	3.37
423.09	3.38
423.295	3.38
423.501	3.34
423.706	3.29
423.911	3.28
424.117	3.29
424.322	3.27
424.527	3.3
424.733	3.25
424.938	3.31
425.143	3.3
425.349	3.27
425.554	3.28
425.759	3.28
425.964	3.27
426.169	3.29
426.375	3.33
426.58	3.31
426.785	3.27
426.99	3.29
427.195	3.27
427.4	3.26
427.605	3.3
427.811	3.28
428.016	3.28
428.221	3.34
428.426	3.35
428.631	3.29
428.836	3.3
429.041	3.24
429.246	3.19
429.451	3.17
429.656	3.17
429.861	3.17
430.066	3.17
430.271	3.23
430.476	3.21
430.681	3.2
430.886	3.24
431.09	3.32
431.295	3.35
431.5	3.35
431.705	3.36
431.91	3.36
432.115	3.3
432.32	3.27
432.524	3.24
432.729	3.2
432.934	3.19
433.139	3.23
433.343	3.24
433.548	3.28
433.753	3.37
433.958	3.35
434.162	3.38
434.367	3.43
434.572	3.42
434.776	3.47
434.981	3.48
435.186	3.46
435.39	3.46
435.595	3.42
435.799	3.39
436.004	3.32
436.209	3.29
436.413	3.25
436.618	3.23
436.822	3.25
437.027	3.16
437.231	3.15
437.436	3.15
437.64	3.1
437.845	3.09
438.049	3.11
438.253	3.05
438.458	3.07
438.662	3.11
438.867	3.1
439.071	3.11
439.275	3.19
439.48	3.21
439.684	3.2
439.888	3.18
440.093	3.17
440.297	3.16
440.501	3.22
440.706	3.24
440.91	3.22
441.114	3.25
441.318	3.24
441.523	3.22
441.727	3.23
441.931	3.3
442.135	3.3
442.339	3.31
442.543	3.3
442.748	3.26
442.952	3.21
443.156	3.19
443.36	3.21
443.564	3.2
443.768	3.17
443.972	3.14
444.176	3.08
444.38	3.09
444.584	3.09
444.788	3.12
444.992	3.17
445.196	3.17
445.4	3.17
445.604	3.13
445.808	3.13
446.012	3.11
446.216	3.11
446.42	3.1
446.624	3.08
446.828	3.08
447.032	3.07
447.235	3.06
447.439	3.08
447.643	3.09
447.847	3.09
448.051	3.06
448.254	3.1
448.458	3.09
448.662	3.17
448.866	3.18
449.069	3.18
449.273	3.16
449.477	3.18
449.681	3.2
449.884	3.2
450.088	3.2
450.292	3.26
450.495	3.24
450.699	3.28
450.902	3.25
451.106	3.24
451.31	3.25
451.513	3.27
451.717	3.2
451.92	3.15
452.124	3.1
452.327	3.13
452.531	3.07
452.734	3.09
452.938	3.06
453.141	3.02
453.345	3.05
453.548	3.03
453.752	3.02
453.955	3.07
454.158	3.08
454.362	3.11
454.565	3.05
454.769	3.07
454.972	3.04
455.175	3.01
455.379	3
455.582	2.99
455.785	3
455.988	2.96
456.192	2.92
456.395	2.89
456.598	2.88
456.801	2.93
457.005	2.97
457.208	3.01
457.411	3.04
457.614	3.04
457.817	3.05
458.021	3.03
458.224	3.04
458.427	3.1
458.63	3.11
458.833	3.12
459.036	3.1
459.239	3.06
459.442	3.01
459.645	3.03
459.848	3.07
460.051	3.04
460.254	3.07
460.457	3.08
460.66	3.04
460.863	3.05
461.066	3.05
461.269	3.08
461.472	3.15
461.675	3.19
461.878	3.18
462.081	3.12
462.284	3.14
462.486	3.11
462.689	3.11
462.892	3.14
463.095	3.11
463.298	3.12
463.5	3.12
463.703	3.05
463.906	3.02
464.109	3.02
464.311	3.07
464.514	3.1
464.717	3.09
464.92	3.11
465.122	3.09
465.325	3.15
465.528	3.16
465.73	3.13
465.933	3.13
466.135	3.16
466.338	3.18
466.541	3.15
466.743	3.16
466.946	3.16
467.148	3.18
467.351	3.18
467.553	3.14
467.756	3.18
467.958	3.19
468.161	3.21
468.363	3.15
468.566	3.13
468.768	3.11
468.971	3.09
469.173	3.11
469.375	3.03
469.578	3.08
469.78	3.07
469.983	2.99
470.185	3.01
470.387	3.01
470.59	3.05
470.792	3.04
470.994	3.04
471.196	3.07
471.399	3.05
471.601	3.1
471.803	3.02
472.005	3.04
472.208	3.06
472.41	3.03
472.612	3.01
472.814	3.04
473.016	3.1
473.218	3.12
473.421	3.07
473.623	3.07
473.825	3.06
474.027	3.1
474.229	3.1
474.431	3.11
474.633	3.09
474.835	3.1
475.037	3.03
475.239	3
475.441	3.03
475.643	3.05
475.845	3.07
476.047	3.1
476.249	3.05
476.451	3.06
476.653	3.07
476.855	3.07
477.057	3.08
477.258	3.12
477.46	3.13
477.662	3.09
477.864	3.1
478.066	3.1
478.268	3.07
478.469	3.1
478.671	3.08
478.873	3.02
479.075	3.04
479.276	3.03
479.478	3.01
479.68	2.97
479.882	3.01
480.083	3.04
480.285	3.05
480.487	3.04
480.688	3.04
480.89	3.08
481.091	3.11
481.293	3.14
481.495	3.13
481.696	3.12
481.898	3.12
482.099	3.09
482.301	3.08
482.502	3.07
482.704	3.07
482.905	3.08
483.107	3.05
483.308	3.05
483.51	3.05
483.711	3.05
483.913	3.05
484.114	3.05
484.315	3.06
484.517	3.06
484.718	3.06
484.92	3.06
485.121	3.04
485.322	3.06
485.524	3.06
485.725	3.06
485.926	3.07
486.127	3.07
486.329	3.06
486.53	3.07
486.731	3.05
486.932	3.05
487.134	3.04
487.335	3.05
487.536	3.03
487.737	3.03
487.938	3.02
488.139	3.01
488.341	3.02
488.542	3.04
488.743	3.04
488.944	3.04
489.145	3.05
489.346	3.05
489.547	3.06
489.748	3.06
489.949	3.06
490.15	3.06
490.351	3.06
490.552	3.06
490.753	3.05
490.954	3.03
491.155	3.03
491.356	3.02
491.557	3.03
491.758	3.04
491.959	3.04
492.159	3.04
492.36	3.05
492.561	3.05
492.762	3.06
492.963	3.07
493.164	3.09
493.364	3.07
493.565	3.11
493.766	3.12
493.967	3.1
494.167	3.11
494.368	3.11
494.569	3.12
494.769	3.09
494.97	3.06
495.171	3.05
495.371	3.06
495.572	3.09
495.773	3.1
495.973	3.09
496.174	3.12
496.375	3.15
496.575	3.16
496.776	3.17
496.976	3.22
497.177	3.29
497.377	3.29
497.578	3.3
497.778	3.29
497.979	3.28
498.179	3.32
498.38	3.32
498.58	3.32
498.78	3.32
498.981	3.33
499.181	3.32
499.382	3.3
499.582	3.35
499.782	3.39
499.983	3.42
500.183	3.43
500.383	3.44
500.584	3.43
500.784	3.43
500.984	3.43
501.184	3.42
501.385	3.4
501.585	3.4
501.785	3.38
501.985	3.35
502.185	3.33
502.386	3.32
502.586	3.31
502.786	3.34
502.986	3.35
503.186	3.35
503.386	3.4
503.586	3.45
503.786	3.43
503.987	3.47
504.187	3.51
504.387	3.59
504.587	3.61
504.787	3.62
504.987	3.65
505.187	3.65
505.387	3.67
505.587	3.67
505.786	3.69
505.986	3.69
506.186	3.65
506.386	3.69
506.586	3.69
506.786	3.69
506.986	3.7
507.186	3.67
507.386	3.7
507.585	3.73
507.785	3.72
507.985	3.73
508.185	3.79
508.384	3.83
508.584	3.79
508.784	3.8
508.984	3.82
509.183	3.83
509.383	3.88
509.583	3.87
509.782	3.91
509.982	3.95
510.182	3.95
510.381	3.96
510.581	4.01
510.781	4.03
510.98	4.05
511.18	4.09
511.379	4.16
511.579	4.17
511.778	4.21
511.978	4.19
512.177	4.21
512.377	4.23
512.576	4.26
512.776	4.27
512.975	4.31
513.175	4.34
513.374	4.34
513.573	4.32
513.773	4.38
513.972	4.39
514.172	4.42
514.371	4.43
514.57	4.42
514.77	4.47
514.969	4.43
515.168	4.43
515.367	4.47
515.567	4.52
515.766	4.55
515.965	4.51
516.164	4.53
516.364	4.58
516.563	4.64
516.762	4.69
516.961	4.68
517.16	4.76
517.359	4.78
517.559	4.77
517.758	4.79
517.957	4.82
518.156	4.88
518.355	4.89
518.554	4.9
518.753	4.88
518.952	4.92
519.151	4.96
519.35	4.96
519.549	4.97
519.748	4.98
519.947	5.02
520.146	5.05
520.345	5.03
520.544	5.07
520.743	5.11
520.942	5.13
521.141	5.14
521.339	5.12
521.538	5.12
521.737	5.19
521.936	5.25
522.135	5.25
522.333	5.26
522.532	5.27
522.731	5.31
522.93	5.32
523.129	5.34
523.327	5.35
523.526	5.37
523.725	5.39
523.923	5.39
524.122	5.38
524.321	5.39
524.519	5.37
524.718	5.37
524.917	5.36
525.115	5.37
525.314	5.41
525.512	5.44
525.711	5.48
525.909	5.5
526.108	5.52
526.306	5.55
526.505	5.55
526.703	5.59
526.902	5.62
527.1	5.62
527.299	5.65
527.497	5.66
527.696	5.69
527.894	5.69
528.092	5.69
528.291	5.7
528.489	5.7
528.688	5.73
528.886	5.75
529.084	5.77
529.283	5.8
529.481	5.83
529.679	5.84
529.877	5.84
530.076	5.86
530.274	5.91
530.472	5.96
530.67	5.99
530.869	6.01
531.067	6.02
531.265	6.05
531.463	6.08
531.661	6.08
531.859	6.11
532.057	6.13
532.255	6.17
532.454	6.16
532.652	6.17
532.85	6.18
533.048	6.19
533.246	6.2
533.444	6.21
533.642	6.23
533.84	6.25
534.038	6.27
534.236	6.33
534.434	6.34
534.632	6.39
534.83	6.4
535.027	6.42
535.225	6.47
535.423	6.52
535.621	6.55
535.819	6.57
536.017	6.59
536.215	6.59
536.412	6.59
536.61	6.61
536.808	6.61
537.006	6.64
537.203	6.69
537.401	6.68
537.599	6.7
537.797	6.72
537.994	6.76
538.192	6.8
538.39	6.86
538.587	6.85
538.785	6.87
538.983	6.9
539.18	6.92
539.378	6.94
539.575	6.97
539.773	6.99
539.97	7.02
540.168	7.02
540.366	7.04
540.563	7.06
540.761	7.1
540.958	7.14
541.155	7.18
541.353	7.21
541.55	7.24
541.748	7.25
541.945	7.28
542.143	7.3
542.34	7.33
542.537	7.34
542.735	7.39
542.932	7.43
543.129	7.42
543.327	7.48
543.524	7.51
543.721	7.52
543.919	7.58
544.116	7.63
544.313	7.68
544.51	7.72
544.708	7.77
544.905	7.74
545.102	7.7
545.299	7.73
545.496	7.71
545.693	7.74
545.891	7.77
546.088	7.76
546.285	7.72
546.482	7.73
546.679	7.74
546.876	7.76
547.073	7.77
547.27	7.86
547.467	7.88
547.664	7.88
547.861	7.92
548.058	7.92
548.255	7.95
548.452	7.99
548.649	8.01
548.846	8.06
549.043	8.04
549.24	8.12
549.437	8.09
549.633	8.13
549.83	8.18
550.027	8.16
550.224	8.25
550.421	8.25
550.618	8.26
550.814	8.29
551.011	8.32
551.208	8.4
551.405	8.38
551.601	8.43
551.798	8.43
551.995	8.46
552.191	8.49
552.388	8.47
552.585	8.52
552.781	8.6
552.978	8.64
553.175	8.67
553.371	8.64
553.568	8.64
553.764	8.7
553.961	8.78
554.157	8.83
554.354	8.85
554.55	8.91
554.747	8.91
554.943	8.9
555.14	8.91
555.336	8.93
555.533	8.99
555.729	9.05
555.926	9.05
556.122	9.06
556.318	9.05
556.515	9.09
556.711	9.07
556.907	9.11
557.104	9.15
557.3	9.17
557.496	9.2
557.693	9.24
557.889	9.25
558.085	9.3
558.281	9.32
558.478	9.29
558.674	9.35
558.87	9.37
559.066	9.39
559.262	9.33
559.459	9.32
559.655	9.26
559.851	9.25
560.047	9.25
560.243	9.21
560.439	9.18
560.635	9.21
560.831	9.19
561.027	9.19
561.223	9.21
561.419	9.29
561.615	9.27
561.811	9.36
562.007	9.42
562.203	9.39
562.399	9.44
562.595	9.52
562.791	9.51
562.987	9.53
563.183	9.56
563.379	9.62
563.575	9.64
563.771	9.68
563.966	9.69
564.162	9.66
564.358	9.74
564.554	9.72
564.75	9.73
564.945	9.78
565.141	9.78
565.337	9.79
565.533	9.78
565.728	9.8
565.924	9.8
566.12	9.83
566.315	9.82
566.511	9.81
566.707	9.84
566.902	9.79
567.098	9.78
567.293	9.82
567.489	9.83
567.684	9.87
567.88	9.84
568.076	9.87
568.271	9.87
568.467	9.89
568.662	9.91
568.858	9.91
569.053	9.98
569.248	10.02
569.444	10.03
569.639	10.04
569.835	10.04
570.03	10.09
570.225	10.07
570.421	10.11
570.616	10.11
570.812	10.12
571.007	10.14
571.202	10.14
571.397	10.14
571.593	10.12
571.788	10.17
571.983	10.18
572.178	10.17
572.374	10.17
572.569	10.19
572.764	10.21
572.959	10.24
573.154	10.22
573.35	10.25
573.545	10.22
573.74	10.23
573.935	10.21
574.13	10.21
574.325	10.19
574.52	10.21
574.715	10.15
574.91	10.18
575.105	10.21
575.3	10.28
575.495	10.26
575.69	10.33
575.885	10.34
576.08	10.31
576.275	10.31
576.47	10.32
576.665	10.37
576.86	10.42
577.055	10.43
577.25	10.43
577.444	10.45
577.639	10.47
577.834	10.47
578.029	10.5
578.224	10.53
578.418	10.53
578.613	10.56
578.808	10.51
579.003	10.53
579.197	10.52
579.392	10.44
579.587	10.45
579.781	10.45
579.976	10.42
580.171	10.43
580.365	10.5
580.56	10.5
580.755	10.49
580.949	10.6
581.144	10.59
581.338	10.58
581.533	10.6
581.727	10.53
581.922	10.49
582.116	10.51
582.311	10.48
582.505	10.4
582.7	10.44
582.894	10.49
583.089	10.41
583.283	10.36
583.478	10.38
583.672	10.44
583.866	10.44
584.061	10.48
584.255	10.5
584.449	10.59
584.644	10.65
584.838	10.67
585.032	10.68
585.226	10.71
585.421	10.79
585.615	10.74
585.809	10.73
586.003	10.76
586.198	10.76
586.392	10.79
586.586	10.72
586.78	10.69
586.974	10.76
587.168	10.81
587.363	10.77
587.557	10.79
587.751	10.84
587.945	10.86
588.139	10.88
588.333	10.84
588.527	10.84
588.721	10.88
588.915	10.91
589.109	10.85
589.303	10.75
589.497	10.77
589.691	10.73
589.885	10.75
590.079	10.73
590.273	10.7
590.466	10.72
590.66	10.7
590.854	10.73
591.048	10.69
591.242	10.68
591.436	10.73
591.629	10.72
591.823	10.75
592.017	10.78
592.211	10.78
592.404	10.83
592.598	10.85
592.792	10.92
592.986	10.85
593.179	10.91
593.373	10.91
593.567	10.92
593.76	10.98
593.954	10.97
594.147	11.05
594.341	11.11
594.535	11.15
594.728	11.17
594.922	11.12
595.115	11.12
595.309	11.15
595.502	11.2
595.696	11.14
595.889	11.16
596.083	11.19
596.276	11.09
596.47	11.07
596.663	11.03
596.856	11.03
597.05	11.04
597.243	11.05
597.437	11.06
597.63	11.04
597.823	11.11
598.017	11.08
598.21	11
598.403	11.01
598.596	11.01
598.79	11.01
598.983	11.04
599.176	10.99
599.369	10.98
599.563	10.91
599.756	10.92
599.949	10.91
600.142	10.94
600.335	11.02
600.528	11.06
600.722	11.04
600.915	11.05
601.108	11.02
601.301	11.12
601.494	11.15
601.687	11.18
601.88	11.15
602.073	11.15
602.266	11.09
602.459	11.11
602.652	11.09
602.845	11.09
603.038	11.16
603.231	11.17
603.424	11.13
603.617	11.08
603.809	11.06
604.002	11.12
604.195	11.13
604.388	11.17
604.581	11.12
604.774	11.14
604.966	11.19
605.159	11.14
605.352	11.16
605.545	11.21
605.737	11.26
605.93	11.24
606.123	11.18
606.316	11.17
606.508	11.15
606.701	11.23
606.894	11.26
607.086	11.23
607.279	11.18
607.471	11.22
607.664	11.16
607.857	11.23
608.049	11.32
608.242	11.37
608.434	11.42
608.627	11.52
608.819	11.49
609.012	11.5
609.204	11.44
609.397	11.52
609.589	11.48
609.782	11.52
609.974	11.49
610.166	11.49
610.359	11.47
610.551	11.46
610.743	11.38
610.936	11.42
611.128	11.36
611.32	11.42
611.513	11.4
611.705	11.47
611.897	11.48
612.09	11.46
612.282	11.5
612.474	11.43
612.666	11.54
612.858	11.52
613.051	11.53
613.243	11.57
613.435	11.63
613.627	11.68
613.819	11.65
614.011	11.69
614.203	11.73
614.395	11.61
614.588	11.69
614.78	11.56
614.972	11.61
615.164	11.49
615.356	11.41
615.548	11.37
615.74	11.37
615.932	11.3
616.124	11.26
616.315	11.22
616.507	11.21
616.699	11.17
616.891	11.23
617.083	11.21
617.275	11.33
617.467	11.32
617.659	11.31
617.85	11.24
618.042	11.28
618.234	11.27
618.426	11.27
618.618	11.33
618.809	11.39
619.001	11.33
619.193	11.42
619.384	11.39
619.576	11.51
619.768	11.59
619.959	11.56
620.151	11.65
620.343	11.63
620.534	11.57
620.726	11.56
620.917	11.56
621.109	11.6
621.301	11.49
621.492	11.42
621.684	11.3
621.875	11.26
622.067	11.32
622.258	11.25
622.45	11.34
622.641	11.45
622.832	11.5
623.024	11.59
623.215	11.6
623.407	11.66
623.598	11.72
623.789	11.83
623.981	11.81
624.172	11.91
624.363	11.9
624.555	11.85
624.746	11.85
624.937	11.84
625.129	11.68
625.32	11.67
625.511	11.65
625.702	11.63
625.893	11.62
626.085	11.65
626.276	11.61
626.467	11.61
626.658	11.6
626.849	11.58
627.04	11.62
627.231	11.69
627.422	11.74
627.614	11.79
627.805	11.86
627.996	11.89
628.187	11.93
628.378	11.95
628.569	12
628.76	11.95
628.951	11.97
629.142	11.96
629.332	11.94
629.523	11.88
629.714	11.85
629.905	11.82
630.096	11.73
630.287	11.74
630.478	11.75
630.669	11.79
630.859	11.82
631.05	11.83
631.241	11.78
631.432	11.78
631.623	11.85
631.813	11.84
632.004	11.74
632.195	11.86
632.385	11.77
632.576	11.71
632.767	11.64
632.957	11.73
633.148	11.71
633.339	11.74
633.529	11.77
633.72	11.75
633.91	11.76
634.101	11.85
634.292	11.8
634.482	11.77
634.673	11.74
634.863	11.7
635.054	11.68
635.244	11.66
635.435	11.71
635.625	11.72
635.815	11.69
636.006	11.72
636.196	11.76
636.387	11.72
636.577	11.77
636.767	11.8
636.958	11.88
637.148	11.86
637.338	11.92
637.529	11.88
637.719	11.88
637.909	11.95
638.099	11.9
638.29	11.84
638.48	11.92
638.67	11.88
638.86	11.94
639.05	11.98
639.241	11.98
639.431	11.98
639.621	11.94
639.811	11.98
640.001	11.84
640.191	11.86
640.381	11.78
640.571	11.7
640.761	11.74
640.951	11.69
641.141	11.66
641.331	11.69
641.521	11.68
641.711	11.69
641.901	11.65
642.091	11.74
642.281	11.78
642.471	11.85
642.661	11.93
642.851	11.95
643.041	11.98
643.231	11.98
643.42	11.96
643.61	11.9
643.8	11.8
643.99	11.86
644.18	11.89
644.369	11.81
644.559	11.89
644.749	11.81
644.939	11.79
645.128	11.61
645.318	11.55
645.508	11.62
645.697	11.66
645.887	11.74
646.076	11.82
646.266	11.89
646.456	11.96
646.645	11.87
646.835	11.9
647.024	11.94
647.214	12.05
647.403	12.09
647.593	12.18
647.782	12.2
647.972	12.21
648.161	12.02
648.351	11.91
648.54	11.87
648.73	11.9
648.919	11.98
649.108	12.06
649.298	12.1
649.487	12.11
649.677	11.98
649.866	11.98
650.055	12.05
650.244	12.14
650.434	12.17
650.623	12.26
650.812	12.25
651.002	12.17
651.191	12.09
651.38	12.09
651.569	12.05
651.758	12.07
651.947	12.01
652.137	11.99
652.326	12.01
652.515	11.98
652.704	12
652.893	11.97
653.082	12.03
653.271	12.09
653.46	12.07
653.649	12.09
653.838	12.04
654.027	12.13
654.216	12.07
654.405	12.02
654.594	12.04
654.783	11.9
654.972	11.92
655.161	11.92
655.35	11.93
655.539	11.99
655.728	12.02
655.916	12
656.105	11.99
656.294	12.05
656.483	12.03
656.672	12.05
656.86	12.12
657.049	12.14
657.238	12.11
657.427	12.01
657.615	11.98
657.804	11.91
657.993	11.97
658.181	11.89
658.37	11.9
658.559	11.87
658.747	11.87
658.936	11.92
659.125	12
659.313	12.03
659.502	12.04
659.69	12.04
659.879	12.06
660.067	12.06
660.256	12.15
660.444	12.2
660.633	12.26
660.821	12.31
661.01	12.31
661.198	12.25
661.387	12.23
661.575	12.24
661.763	12.26
661.952	12.33
662.14	12.3
662.328	12.29
662.517	12.22
662.705	12.15
662.893	12.17
663.082	12.17
663.27	12.08
663.458	12.11
663.646	12.16
663.834	12.15
664.023	12.08
664.211	12.22
664.399	12.13
664.587	12.24
664.775	12.27
664.963	12.23
665.152	12.18
665.34	12.23
665.528	12.22
665.716	12.11
665.904	12.07
666.092	12.14
666.28	12.07
666.468	12.17
666.656	12.09
666.844	12.16
667.032	12.21
667.22	12.23
667.408	12.16
667.596	12.15
667.784	12.26
667.971	12.34
668.159	12.3
668.347	12.32
668.535	12.33
668.723	12.31
668.911	12.27
669.098	12.13
669.286	12.14
669.474	12.26
669.662	12.22
669.849	12.21
670.037	12.12
670.225	12.11
670.413	12.07
670.6	12.06
670.788	12.13
670.976	12.22
671.163	12.33
671.351	12.3
671.538	12.27
671.726	12.34
671.913	12.31
672.101	12.35
672.289	12.44
672.476	12.49
672.664	12.45
672.851	12.34
673.039	12.22
673.226	12.24
673.413	12.21
673.601	12.21
673.788	12.16
673.976	12.14
674.163	12.13
674.35	12.07
674.538	12.13
674.725	12.14
674.912	12.16
675.1	12.3
675.287	12.21
675.474	12.26
675.662	12.36
675.849	12.36
676.036	12.43
676.223	12.57
676.411	12.6
676.598	12.52
676.785	12.58
676.972	12.61
677.159	12.53
677.346	12.58
677.533	12.59
677.721	12.59
677.908	12.58
678.095	12.55
678.282	12.51
678.469	12.47
678.656	12.51
678.843	12.53
679.03	12.52
679.217	12.52
679.404	12.48
679.591	12.48
679.778	12.42
679.964	12.43
680.151	12.47
680.338	12.46
680.525	12.49
680.712	12.46
680.899	12.41
681.086	12.39
681.272	12.37
681.459	12.48
681.646	12.5
681.833	12.51
682.02	12.48
682.206	12.48
682.393	12.37
682.58	12.33
682.766	12.33
682.953	12.25
683.14	12.31
683.326	12.49
683.513	12.49
683.7	12.38
683.886	12.47
684.073	12.46
684.259	12.48
684.446	12.59
684.632	12.63
684.819	12.69
685.005	12.82
685.192	12.95
685.378	12.67
685.565	12.68
685.751	12.81
685.938	12.59
686.124	12.51
686.31	12.45
686.497	12.52
686.683	12.62
686.87	12.63
687.056	12.58
687.242	12.43
687.429	12.6
687.615	12.46
687.801	12.45
687.987	12.52
688.174	12.63
688.36	12.63
688.546	12.68
688.732	12.67
688.918	12.59
689.105	12.58
689.291	12.55
689.477	12.54
689.663	12.65
689.849	12.61
690.035	12.7
690.221	12.67
690.407	12.67
690.593	12.59
690.779	12.56
690.965	12.6
691.151	12.56
691.337	12.63
691.523	12.62
691.709	12.57
691.895	12.56
692.081	12.36
692.267	12.43
692.453	12.5
692.639	12.45
692.825	12.5
693.011	12.42
693.196	12.45
693.382	12.45
693.568	12.29
693.754	12.31
693.94	12.31
694.125	12.59
694.311	12.57
694.497	12.75
694.682	12.7
694.868	12.76
695.054	12.86
695.239	12.95
695.425	12.98
695.611	13.19
695.796	13.21
695.982	13.21
696.168	13.17
696.353	13.15
696.539	12.96
696.724	13.02
696.91	12.88
697.095	12.81
697.281	12.82
697.466	12.79
697.652	12.66
697.837	12.65
698.023	12.67
698.208	12.74
698.393	12.85
698.579	12.87
698.764	12.87
698.949	12.85
699.135	12.93
699.32	12.92
699.505	12.98
699.691	13.03
699.876	13.05
700.061	13.04
700.246	12.95
700.432	12.85
700.617	12.92
700.802	12.88
700.987	12.95
701.172	12.95
701.358	12.84
701.543	12.94
701.728	13.06
701.913	13.12
702.098	13.14
702.283	13.14
702.468	13.11
702.653	13.05
702.838	13.2
703.023	13.32
703.208	13.27
703.393	13.43
703.578	13.28
703.763	13.19
703.948	13.06
704.133	13.22
704.318	13.17
704.503	13.41
704.688	13.37
704.873	13.19
705.057	13.15
705.242	13.11
705.427	13.13
705.612	13.11
705.797	13.16
705.981	13.27
706.166	13.16
706.351	13.19
706.536	13.02
706.72	12.95
706.905	13.03
707.09	12.98
707.274	12.98
707.459	12.75
707.644	12.88
707.828	12.77
708.013	12.74
708.197	12.81
708.382	12.81
708.567	12.84
708.751	12.96
708.936	12.92
709.12	12.87
709.305	12.85
709.489	12.97
709.673	12.89
709.858	12.95
710.042	12.93
710.227	12.79
710.411	12.72
710.596	12.78
710.78	12.73
710.964	12.82
711.149	12.8
711.333	12.93
711.517	13.04
711.702	13.12
711.886	13.26
712.07	13.24
712.254	13.37
712.438	13.48
712.623	13.39
712.807	13.48
712.991	13.37
713.175	13.5
713.359	13.57
713.544	13.49
713.728	13.4
713.912	13.15
714.096	13.23
714.28	13.12
714.464	13.15
714.648	13.07
714.832	13
715.016	13.07
715.2	12.92
715.384	12.89
715.568	12.89
715.752	12.8
715.936	12.91
716.12	12.81
716.304	12.91
716.488	12.84
716.671	12.84
716.855	12.87
717.039	12.95
717.223	13
717.407	12.67
717.59	12.6
717.774	12.56
717.958	12.57
718.142	12.59
718.325	12.41
718.509	12.48
718.693	12.58
718.877	12.38
719.06	12.22
719.244	11.98
719.428	12.24
719.611	12.31
719.795	12.4
719.978	12.42
720.162	12.44
720.345	12.46
720.529	12.34
720.713	12.39
720.896	12.42
721.08	12.46
721.263	12.72
721.446	12.58
721.63	12.47
721.813	12.42
721.997	12.47
722.18	12.6
722.364	12.77
722.547	12.84
722.73	12.55
722.914	12.73
723.097	12.76
723.28	12.7
723.464	12.88
723.647	13.1
723.83	13.1
724.013	13.05
724.197	13.08
724.38	12.86
724.563	12.82
724.746	12.99
724.929	13.05
725.112	12.95
725.296	13.04
725.479	12.87
725.662	12.69
725.845	12.81
726.028	12.71
726.211	12.58
726.394	12.76
726.577	12.68
726.76	12.63
726.943	12.57
727.126	12.68
727.309	12.73
727.492	12.88
727.675	12.86
727.858	12.88
728.041	12.92
728.224	12.79
728.407	12.84
728.589	12.97
728.772	13.15
728.955	13.22
729.138	13.14
729.321	13.09
729.503	13.13
729.686	13.37
729.869	13.35
730.052	13.36
730.234	13.36
730.417	13.28
730.6	13.21
730.782	13.14
730.965	13.1
731.148	13.13
731.33	13.2
731.513	13.13
731.695	12.98
731.878	12.94
732.061	13.08
732.243	13.14
732.426	13.09
732.608	13.18
732.791	13.03
732.973	12.93
733.156	13.06
733.338	13
733.52	12.93
733.703	12.83
733.885	12.86
734.068	12.63
734.25	12.52
734.432	12.67
734.615	12.78
734.797	12.86
734.979	12.83
735.162	12.54
735.344	12.43
735.526	12.64
735.708	12.72
735.891	12.78
736.073	12.92
736.255	13.09
736.437	12.99
736.619	12.58
736.802	12.5
736.984	12.6
737.166	12.79
737.348	12.81
737.53	12.75
737.712	12.77
737.894	12.73
738.076	12.67
738.258	12.64
738.44	12.63
738.622	12.97
738.804	13.04
738.986	13
739.168	12.89
739.35	12.9
739.532	12.79
739.714	12.63
739.896	12.66
740.078	12.7
740.259	12.8
740.441	12.88
740.623	12.92
740.805	12.89
740.987	13.01
741.168	12.88
741.35	13.04
741.532	13.07
741.714	13.27
741.895	13.18
742.077	13.33
742.259	13.37
742.44	13.41
742.622	13.18
742.804	13.28
742.985	13.34
743.167	13.69
743.348	13.32
743.53	13.46
743.711	13.46
743.893	13.37
744.075	13.11
744.256	13.01
744.438	12.62
744.619	12.9
744.8	12.67
744.982	12.69
745.163	12.65
745.345	12.91
745.526	12.99
745.707	13.09
745.889	13.26
746.07	13.4
746.252	13.14
746.433	13.31
746.614	13.23
746.795	13.65
746.977	13.64
747.158	13.66
747.339	13.55
747.52	13.43
747.702	13.31
747.883	13.26
748.064	13.04
748.245	13.41
748.426	13.26
748.607	13.27
748.788	13.08
748.97	12.75
749.151	12.97
749.332	13.04
749.513	13.23
749.694	13.12
749.875	13.17
750.056	13.47
750.237	13.25
750.418	13.41
750.599	13.05
750.78	13.05
750.96	13.16
751.141	13.08
751.322	13.26
751.503	12.94
751.684	12.78
751.865	12.98
752.046	12.95
752.226	13.01
752.407	13.12
752.588	13.56
752.769	13.61
752.949	13.56
753.13	13.54
753.311	13.36
753.492	13.14
753.672	13.46
753.853	13
754.034	13.1
754.214	13.4
754.395	13.31
754.575	13.15
754.756	12.77
754.937	12.74
755.117	12.73
755.298	12.83
755.478	13.27
755.659	13.47
755.839	13.76
756.02	13.83
756.2	13.4
756.381	13.23
756.561	13.07
756.741	13.54
756.922	13.41
757.102	13.44
757.283	13.38
757.463	13.2
757.643	12.81
757.823	12.45
758.004	12.27
758.184	12.53
758.364	12.99
758.545	13.11
758.725	13.2
758.905	13.46
759.085	13.36
759.265	13.32
759.446	13.2
759.626	13.43
759.806	13.76
759.986	13.92
760.166	13.69
760.346	13.18
760.526	13.03
760.706	12.85
760.886	12.89
761.066	12.78
761.246	12.9
761.426	13.11
761.606	12.74
761.786	12.52
761.966	12.69
762.146	12.93
762.326	13.2
762.506	13.4
762.686	13.58
762.866	13.47
763.046	13.52
763.225	13.63
763.405	13.54
763.585	13.92
763.765	14.16
763.945	13.79
764.124	13.66
764.304	13.69
764.484	13.63
764.664	13.56
764.843	13.8
765.023	13.77
765.203	13.61
765.382	13.88
765.562	13.73
765.741	13.78
765.921	13.99
766.101	14.09
766.28	13.83
766.46	13.66
766.639	13.55
766.819	13.28
766.998	13.28
767.178	13.44
767.357	13.14
767.537	13.01
767.716	12.77
767.896	12.59
768.075	12.42
768.254	12.57
768.434	12.84
768.613	12.67
768.792	12.48
768.972	12.63
769.151	12.27
769.33	12.13
769.51	12.31
769.689	12.24
769.868	12.45
770.047	12.75
770.226	12.81
770.406	12.84
770.585	12.93
770.764	13.31
770.943	13.28
771.122	13.51
771.301	13.93
771.48	13.96
771.66	14.34
771.839	14.49
772.018	14.39
772.197	14.34
772.376	14.17
772.555	14.18
772.734	14.24
772.913	13.98
773.092	13.67
773.271	13.51
773.449	13.3
773.628	13.04
773.807	12.91
773.986	12.8
774.165	13.06
774.344	12.99
774.523	12.9
774.701	12.4
774.88	12.48
775.059	12.94
775.238	12.81
775.417	12.67
775.595	12.67
775.774	12.89
775.953	12.7
776.131	12.33
776.31	12.38
776.489	12.34
776.667	12.67
776.846	12.98
777.025	12.64
777.203	12.7
777.382	12.97
777.56	12.91
777.739	12.63
777.917	12.69
778.096	12.99
778.274	13.12
778.453	13.64
778.631	13.44
778.81	12.97
778.988	12.79
779.166	12.99
779.345	12.44
779.523	12.34
779.702	12.26
779.88	12.61
780.058	12.49
780.237	12.38
780.415	12.39
780.593	12.88
780.771	13.05
780.95	13.43
781.128	13.36
781.306	13.95
781.484	14.26
781.662	14.42
781.841	14.35
782.019	14.23
782.197	14.39
782.375	14.11
782.553	14.24
782.731	14.81
782.909	14.81
783.087	14.41
783.265	14.52
783.443	14.48
783.621	14.38
783.799	14.45
783.977	14.52
784.155	14.3
784.333	14.13
784.511	13.66
784.689	13.16
784.867	13.58
785.045	13.28
785.223	12.77
785.4	12.38
785.578	12.24
785.756	12.17
785.934	12.07
786.112	11.86
786.289	12.19
786.467	11.97
786.645	12.27
786.823	11.53
787	12.18
787.178	12.65
787.356	13.05
787.533	13.49
787.711	13.43
787.889	13.88
788.066	14.42
788.244	13.73
788.421	13.87
788.599	13.51
788.776	13.7
788.954	13.33
789.131	12.85
789.309	12.8
789.486	12.27
789.664	12.29
789.841	11.83
790.019	11.43
790.196	11.83
790.373	11.58
790.551	11.68
790.728	12.05
790.906	12.28
791.083	11.89
791.26	11.47
791.437	11.37
791.615	11.81
791.792	12.16
791.969	11.99
792.146	11.85
792.324	12.3
792.501	13.05
792.678	12.8
792.855	12.68
793.032	13.63
793.209	14.43
793.387	14.86
793.564	14.21
793.741	14.08
793.918	14.09
794.095	14.66
794.272	15.12
794.449	13.98
794.626	14.59
794.803	14.47
794.98	14.06
795.157	13.29
795.334	13.55
795.511	13.15
795.688	12.99
795.864	13.02
796.041	12.91
796.218	12.5
796.395	13.08
796.572	12.22
796.749	12.14
796.925	12.43
797.102	12.93
797.279	12.69
797.456	13.59
797.632	13.55
797.809	13.45
797.986	12.86
798.162	13.42
798.339	13.34
798.516	13.51
798.692	14.34
798.869	14.25
799.046	13.86
799.222	14.11
799.399	13.86
799.575	14.58
799.752	14.49
799.928	14.82
800.105	13.61
800.281	13.24
800.458	13.51
800.634	12.81
800.811	13.09
800.987	13.56
801.163	13.33
801.34	12.98
801.516	12.64
801.692	13
801.869	12.96
802.045	14.01
802.221	14.22
802.398	14.03
802.574	13.89
802.75	13.39
802.926	12.84
803.103	11.9
803.279	12.45
803.455	12.27
803.631	13.06
803.807	12.71
803.983	12.54
804.16	12.3
804.336	11.66
804.512	12.01
804.688	13.1
804.864	13.41
805.04	14.47
805.216	14.04
805.392	13.59
805.568	13.22
805.744	14.51
805.92	13.82
806.096	13.47
806.272	14.23
806.448	14.14
806.623	12.79
806.799	12.8
806.975	12.68
807.151	12.93
807.327	12.9
807.503	13.14
807.678	12.25
807.854	12.24
808.03	12.96
808.206	12.64
808.381	13.25
808.557	13.85
808.733	13.73
808.908	13.48
809.084	13.4
809.26	13.58
809.435	12.66
809.611	13
809.787	13.17
809.962	12.66
810.138	12.72
810.313	12.58
810.489	12.28
810.664	12.29
810.84	12.25
811.015	12.27
811.191	12.17
811.366	12.73
811.542	12.24
811.717	12.84
811.892	13.23
812.068	13.46
812.243	13.32
812.419	13.36
812.594	13.96
812.769	14.49
812.944	14.51
813.12	14.61
813.295	14.45
813.47	14.67
813.645	13.72
813.821	13.74
813.996	13.69
814.171	13.8
814.346	14.81
814.521	13.81
814.697	13.35
814.872	13.75
815.047	13.85
815.222	13.55
815.397	13.55
815.572	14.18
815.747	14.44
815.922	14.89
816.097	14.67
816.272	13.49
816.447	13.31
816.622	13.36
816.797	12.26
816.972	12.63
817.147	13
817.322	12.88
817.496	12.64
817.671	12.54
817.846	12.07
818.021	11.36
818.196	11.79
818.371	12.6
818.545	12.97
818.72	13.53
818.895	13.32
819.069	13.46
819.244	14.09
819.419	14.26
819.594	14.35
819.768	14.33
819.943	14.68
820.117	14.61
820.292	14.73
820.467	15.02
820.641	15.11
820.816	15.23
820.99	15.31
821.165	15.18
821.339	15.21
821.514	15.19
821.688	15.17
821.863	15.08
822.037	15.13
822.212	15.04
822.386	14.83
822.56	14.68
822.735	14.64
822.909	14.59
823.084	14.45
823.258	14.36
823.432	14.46
823.606	14.37
823.781	14.5
823.955	14.4
824.129	14.25
824.303	14.21
824.478	14.38
824.652	14.17
824.826	14.03
825	14.21
825.174	14
825.348	13.63
825.523	13.67
825.697	13.4
825.871	13.49
826.045	13.78
826.219	13.9
826.393	13.77
826.567	13.92
826.741	13.98
826.915	14.01
827.089	14.08
827.263	14.19
827.437	14.47
827.611	14.74
827.784	14.65
827.958	14.42
828.132	14.38
828.306	14.62
828.48	14.48
828.654	14.42
828.827	14.2
829.001	14.07
829.175	13.6
829.349	13.01
829.522	12.69
829.696	12.93
829.87	12.91
830.044	12.72
830.217	12.11
830.391	12.06
830.565	12.44
830.738	12.25
830.912	12.33
831.085	12.93
831.259	13.66
831.432	13.83
831.606	13.51
831.779	14.02
831.953	13.96
832.126	14.26
832.3	14.73
832.473	14.41
832.647	14.59
832.82	14.82
832.994	14.62
833.167	14.32
833.34	14.23
833.514	14.27
833.687	13.93
833.86	13.77
834.034	13.8
834.207	13.41
834.38	13.06
834.553	13.14
834.727	13.07
834.9	12.95
835.073	12.78
835.246	12.32
835.419	11.99
835.593	12.32
835.766	12.53
835.939	12.16
836.112	12.08
836.285	12.27
836.458	11.99
836.631	11.92
836.804	11.48
836.977	11.06
837.15	11.65
837.323	12.08
837.496	10.95
837.669	10.85
837.842	10.94
838.015	11.74
838.188	11.5
838.361	12.47
838.533	13.11
838.706	13.14
838.879	14.19
839.052	14.59
839.225	14.72
839.398	15.14
839.57	14.82
839.743	13.99
839.916	13.67
840.088	13.56
840.261	12.7
840.434	11.71
840.607	11.64
840.779	11.43
840.952	10.91
841.124	10.68
841.297	11.75
841.47	11.84
841.642	12.02
841.815	10.77
841.987	11.32
842.16	10.61
842.332	10.33
842.505	9.87
842.677	9.38
842.85	9.25
843.022	9.45
843.194	7.41
843.367	8.53
843.539	8.36
843.712	9.81
843.884	8.86
844.056	9.38
844.229	9.59
844.401	11.05
844.573	13.07
844.745	14.1
844.918	13.37
845.09	14.05
845.262	12.95
845.434	14.37
845.606	13.41
845.779	14.47
845.951	15.84
846.123	16.88
846.295	16.98
846.467	14.65
846.639	14.42
846.811	14.43
846.983	14.15
847.155	15.42
847.327	14.18
847.499	13.05
847.671	10.99
847.843	9.34
848.015	8.04
848.187	7.73
848.359	6.48
848.531	6.66
848.703	7.66
848.875	9.79
849.047	7.92
849.218	7.77
849.39	9.43
849.562	12.64
849.734	11.38
849.905	13.33
850.077	15.32
850.249	15.92
850.421	14.43
850.592	13.59
850.764	11.08
850.936	12.95
851.107	12.49
851.279	13.02
851.451	10.83
851.622	12.13
851.794	12.23
851.965	11.07
852.137	11.49
852.308	11.42
852.48	10.74
852.651	10.23
852.823	9.09
852.994	9.91
853.166	8.69
853.337	11.22
853.509	10.73
853.68	10.41
853.851	12.13
854.023	13.12
854.194	14.82
854.365	15.36
854.537	17.2
854.708	17.87
854.879	16.01
855.05	17
855.222	15.49
855.393	14.35
855.564	13.17
855.735	8.59
855.906	9.08
856.078	7.07
856.249	9.36
856.42	5.6
856.591	4.62
856.762	9.34
856.933	8.29
857.104	8.51
857.275	9.53
857.446	8.32
857.617	8.62
857.788	6.89
857.959	7.32
858.13	4.25
858.301	9.15
858.472	8.44
858.643	6.21
858.814	6.88
858.985	6.2
859.155	7.55
859.326	9.56
859.497	12.37
859.668	10.36
859.839	13.2
860.009	15.18
860.18	12.08
860.351	15.53
860.522	15.24
860.692	16.07
860.863	16.62
861.034	17.34
861.204	16.5
861.375	15.08
861.546	16.54
861.716	14.06
861.887	13.38
862.057	15.11
862.228	12.43
862.398	13.39
862.569	14.09
862.739	15.71
862.91	14.87
863.08	16.86
863.251	17.56
863.421	16.34
863.592	16.28
863.762	16.12
863.932	13.59
864.103	13.64
864.273	11.75
864.443	10.89
864.614	8.72
864.784	9.48
864.954	5.99
865.125	6.71
865.295	10.51
865.465	9.37
865.635	8.13
865.805	10.68
865.976	9.5
866.146	10.74
866.316	9.95
866.486	10.02
866.656	9.72
866.826	9.12
866.996	9.76
867.166	8.33
867.336	6.76
867.506	7.17
867.676	5.37
867.846	5.62
868.016	5.02
868.186	4.47
868.356	3.17
868.526	0.83
868.696	2.37
868.866	0.41
869.036	-4.04
869.206	-0.56
869.376	1.51
869.545	0.77
869.715	1.26
869.885	1.71
870.055	3.07
870.224	4.44
870.394	7.88
870.564	10.78
870.734	11.61
870.903	16.52
871.073	15.4
871.243	15.58
871.412	16.07
871.582	18.72
871.751	18.85
871.921	16.81
872.091	14.29
872.26	11.78
872.43	9.04
872.599	6.92
872.769	6.68
872.938	6.85
873.108	6.14
873.277	7.1
873.446	8.58
873.616	6.85
873.785	10.16
873.955	14.97
874.124	15.45
874.293	16.43
874.463	17.86
874.632	16.86
874.801	16.83
874.971	15.78
875.14	16.35
875.309	11.26
875.478	12.37
875.647	11.74
875.817	9.08
875.986	8.33
876.155	7
876.324	7.51
876.493	8.92
876.662	11.07
876.831	12.02
877	9.06
877.17	12.19
877.339	14.71
877.508	16.5
877.677	18.48
877.846	20.19
878.015	20.21
878.184	19.77
878.352	19.09
878.521	18.99
878.69	17.5
878.859	18.79
879.028	17.94
879.197	16.37
879.366	14.06
879.534	13.35
879.703	12.76
879.872	13.95
880.041	14.44
880.21	14.5
880.378	14.1
880.547	14.94
880.716	15.28
880.884	14.92
881.053	14.93
881.222	14.85
881.39	14.73
881.559	15.2
881.727	15.06
881.896	15.06
882.065	14.87
882.233	15.23
882.402	15.01
882.57	14.75
882.739	14.88
882.907	14.94
883.076	15.2
883.244	15.51
883.412	14.85
883.581	14.68
883.749	14.32
883.918	14.93
884.086	14.75
884.254	14.49
884.423	14.83
884.591	14.84
884.759	13.98
884.927	13.94
885.096	12.29
885.264	12.77
885.432	13.07
885.6	11.68
885.769	10.3
885.937	9.79
886.105	9.48
886.273	8.57
886.441	7.27
886.609	9.42
886.777	6.79
886.945	7.86
887.113	7.72
887.281	5.82
887.449	10.43
887.617	11.35
887.785	11.35
887.953	10.54
888.121	8.65
888.289	9.93
888.457	10.04
888.625	12.51
888.793	13.79
888.961	12.97
889.129	12.57
889.296	7.68
889.464	6.05
889.632	3.77
889.8	4.36
889.967	5.69
890.135	5.9
