Data from JASIL_3002_Reflection_01.txt Node
Date: Mon Nov 09 10:08:48 EST 2015
User: Geneva
Spectrometer: USB4E03002
Autoset integration time: false
Trigger mode: 4
Integration Time (sec): 1.000000E-1
Scans to average: 10
Electric dark correction enabled: false
Nonlinearity correction enabled: false
Boxcar width: 5
Stray light correction enabled: false
XAxis mode: Wavelengths
Stop averaging: false
Number of Pixels in Spectrum: 3648
>>>>>Begin Spectral Data<<<<<
177.575	-45.45
177.794	2071.43
178.014	-316.67
178.233	1805.26
178.452	320.87
178.672	1240.91
178.891	-1304.35
179.11	-238.68
179.33	2041.67
179.549	-196.97
179.768	109.09
179.987	82.21
180.207	58.96
180.426	50.95
180.645	-108.21
180.864	-193.62
181.084	-296.3
181.303	-293.22
181.522	-99.64
181.741	-4400
181.96	-343.16
182.179	675.81
182.398	-14450
182.618	489.52
182.837	240.55
183.056	218.3
183.275	197.71
183.494	86.48
183.713	119.01
183.932	64.11
184.151	184.15
184.37	8.46
184.589	-246.24
184.808	40.45
185.027	-2.82
185.246	-195.05
185.465	1884.21
185.684	-176.15
185.903	114.35
186.122	158.43
186.341	67.94
186.56	-441.38
186.779	65.15
186.998	-351.95
187.216	-74.1
187.435	-142.86
187.654	-116.03
187.873	-114.29
188.092	49.09
188.311	-87.1
188.53	694.12
188.748	-190
188.967	16.02
189.186	307.69
189.405	109.65
189.623	55.74
189.842	158.02
190.061	158.24
190.28	66.19
190.498	39.74
190.717	41.95
190.936	18.77
191.154	17.74
191.373	18.2
191.592	33.88
191.81	-6.06
192.029	20.7
192.248	-0
192.466	-62.22
192.685	-19.46
192.904	-47.75
193.122	-56.25
193.341	-47.85
193.559	24.53
193.778	162.5
193.996	-134.15
194.215	-226.19
194.433	-201.38
194.652	-1255.26
194.87	-1646.88
195.089	-233.54
195.307	-253.69
195.526	-2856.25
195.744	339.75
195.963	467.07
196.181	256.94
196.399	130.05
196.618	51.56
196.836	240
197.055	226.67
197.273	149.35
197.491	-127.91
197.71	-161.11
197.928	-225
198.146	477.78
198.365	58.26
198.583	41.94
198.801	196.36
199.019	-473.91
199.238	17.07
199.456	-47.7
199.674	-104.55
199.892	-148.39
200.111	1.46
200.329	-37.89
200.547	345
200.765	116.97
200.983	-48
201.202	-11.36
201.42	87.24
201.638	-102.04
201.856	357.5
202.074	-3200
202.292	1050
202.51	-154.55
202.728	-71.96
202.946	-202.86
203.165	-369.81
203.383	-82.3
203.601	19.51
203.819	90.93
204.037	104.43
204.255	119.88
204.473	145.88
204.691	475.58
204.909	1825
205.127	-1707.69
205.345	-1075.68
205.562	-3464.29
205.78	-1748.48
205.998	433.04
206.216	190.09
206.434	406.67
206.652	166.34
206.87	245.5
207.088	244.22
207.306	895
207.523	-660
207.741	-182.4
207.959	-124.57
208.177	-59.34
208.395	-46.81
208.612	-31.31
208.83	-21.87
209.048	-25.5
209.266	-63.08
209.483	-60.85
209.701	-56.67
209.919	-80.1
210.136	-141.4
210.354	-420.29
210.572	252.38
210.79	313.29
211.007	172.8
211.225	160.59
211.442	143.86
211.66	197.39
211.878	116.84
212.095	-71.08
212.313	-40.56
212.53	-35.71
212.748	-128.15
212.966	-153.56
213.183	-399.49
213.401	-1016
213.618	1355
213.836	565.97
214.053	-1117.24
214.271	-556.44
214.488	425.4
214.705	-175.38
214.923	723.26
215.14	389.32
215.358	-439.02
215.575	1057.89
215.793	533.33
216.01	576
216.227	650
216.445	-21.49
216.662	19.77
216.879	-12.8
217.097	-32.87
217.314	30.47
217.531	17.9
217.749	19.89
217.966	17.2
218.183	16.64
218.4	0
218.618	-25.16
218.835	-33.08
219.052	-102.34
219.269	-143.59
219.487	63.22
219.704	39.69
219.921	35.81
220.138	53.47
220.355	35.43
220.572	39.07
220.79	11.27
221.007	27.37
221.224	38.93
221.441	45.69
221.658	40.81
221.875	28.39
222.092	12.82
222.309	-85.06
222.526	-83.88
222.743	-16.18
222.96	-89.04
223.177	-1116.67
223.394	66.1
223.611	86.44
223.828	63.73
224.045	32.28
224.262	90.57
224.479	107.43
224.696	103.35
224.913	135
225.13	121.77
225.347	96.77
225.564	82.45
225.781	45.05
225.997	37.51
226.214	13.65
226.431	23.01
226.648	6.53
226.865	1.98
227.082	5.43
227.298	1.71
227.515	1.52
227.732	-2.93
227.949	9.46
228.165	15.23
228.382	13.18
228.599	18.67
228.816	15.21
229.032	13.54
229.249	9.26
229.466	4.67
229.682	8.52
229.899	7.42
230.116	11.89
230.332	6.58
230.549	2.96
230.765	-10.99
230.982	-16.97
231.199	-6.46
231.415	8.24
231.632	18.66
231.848	13.27
232.065	10.24
232.281	15.88
232.498	12.18
232.714	5.81
232.931	7.17
233.147	14.63
233.364	10.25
233.58	-7.87
233.797	-28.56
234.013	-31.81
234.23	-20.03
234.446	-38.53
234.662	-30.96
234.879	-35.64
235.095	-38.42
235.312	-38.6
235.528	-16.53
235.744	-15.3
235.961	-9.89
236.177	0.9
236.393	6.25
236.61	4.71
236.826	21.33
237.042	21.7
237.258	21.02
237.475	18.93
237.691	10.75
237.907	-2.06
238.123	-1.66
238.339	6.9
238.556	6.3
238.772	-2.73
238.988	-11.96
239.204	-17
239.42	-22.95
239.636	-19.53
239.853	-9.68
240.069	-7.6
240.285	-4.54
240.501	-1.78
240.717	-2.07
240.933	0.3
241.149	5.35
241.365	7.83
241.581	6.89
241.797	7.98
242.013	9.78
242.229	4.38
242.445	4.32
242.661	5.92
242.877	5.95
243.093	5.28
243.309	-1.82
243.525	-6.85
243.741	-9.24
243.957	-3.01
244.173	-0.52
244.388	-1.35
244.604	3.21
244.82	1.35
245.036	-0.52
245.252	-2.64
245.468	-2.94
245.683	-1.27
245.899	-1.33
246.115	0.21
246.331	-0.1
246.547	-0.78
246.762	1.19
246.978	0.28
247.194	1.82
247.409	4.03
247.625	7.33
247.841	7.99
248.057	10.77
248.272	10.53
248.488	11.74
248.703	10.8
248.919	12.91
249.135	8.48
249.35	8.54
249.566	6.82
249.782	-1.03
249.997	-1.33
250.213	-0.52
250.428	1.16
250.644	1.08
250.859	-2.6
251.075	-4.82
251.29	-8.86
251.506	-8.52
251.721	-4.18
251.937	-6.95
252.152	-2.4
252.368	-5.05
252.583	-2.58
252.798	-9.99
253.014	-7.6
253.229	-0.68
253.445	2.13
253.66	5.64
253.875	6.18
254.091	-7.21
254.306	3.08
254.521	4.72
254.737	10.21
254.952	9.79
255.167	4.94
255.383	1.19
255.598	-7.03
255.813	-2.78
256.028	-3.4
256.244	-2.38
256.459	-3.39
256.674	-2.56
256.889	-3.91
257.104	-1.77
257.32	-5.07
257.535	-1.03
257.75	-0.82
257.965	0.37
258.18	-0.32
258.395	-0.34
258.61	-0.5
258.826	2.41
259.041	0.26
259.256	1.49
259.471	1.44
259.686	2.99
259.901	4.41
260.116	4.52
260.331	5.39
260.546	5.71
260.761	6.14
260.976	7.88
261.191	3.78
261.406	5.76
261.621	7.25
261.836	6.42
262.05	6.46
262.265	6.78
262.48	5.12
262.695	7.63
262.91	6.42
263.125	8.83
263.34	10.52
263.555	11.51
263.769	12.33
263.984	10.85
264.199	8.87
264.414	11.25
264.629	8.97
264.843	13.23
265.058	10.52
265.273	12.65
265.488	8.27
265.702	6.18
265.917	6.14
266.132	4.55
266.346	2.43
266.561	1.86
266.776	0.27
266.99	-4.51
267.205	-7.95
267.42	-9.8
267.634	-11.25
267.849	-10.13
268.063	-9.17
268.278	-6.45
268.492	-5.32
268.707	-4.04
268.922	-1.97
269.136	-3.5
269.351	-3.28
269.565	-4.18
269.78	-1.05
269.994	-2.53
270.209	-2.87
270.423	-2.2
270.637	-3.02
270.852	-2.45
271.066	-4.36
271.281	-7.55
271.495	-7.69
271.709	-7.81
271.924	-7.4
272.138	-8.65
272.353	-7.78
272.567	-5.47
272.781	-8.41
272.996	-10.32
273.21	-7.93
273.424	-7.08
273.638	-5.31
273.853	-6.27
274.067	-6.87
274.281	-5.49
274.495	-7.11
274.71	-7.77
274.924	-6.02
275.138	-5.33
275.352	-3.4
275.566	-5.75
275.781	-7.23
275.995	-6.29
276.209	-5.15
276.423	-1.92
276.637	-3.81
276.851	0.27
277.065	1.3
277.279	-0
277.493	0.31
277.707	2.18
277.921	0.83
278.135	1.89
278.349	4.9
278.563	3.43
278.777	4.16
278.991	5.55
279.205	6.62
279.419	5.75
279.633	4.56
279.847	4.59
280.061	3.81
280.275	3.65
280.489	5.19
280.703	1.44
280.917	1.1
281.131	1.93
281.344	0.65
281.558	-2.18
281.772	-0.89
281.986	-1.37
282.2	-1.31
282.414	-2.41
282.627	-2.2
282.841	-2.23
283.055	-1.32
283.269	-0.78
283.482	-0.9
283.696	1.06
283.91	2.41
284.123	-0.24
284.337	1.53
284.551	1.85
284.764	3.56
284.978	3.72
285.192	3.28
285.405	3.39
285.619	2.99
285.833	2.64
286.046	1.55
286.26	-0.63
286.473	2.47
286.687	-0.72
286.9	-1.27
287.114	-2.78
287.327	-4.41
287.541	-5
287.754	-4.64
287.968	-3.15
288.181	-3.75
288.395	-2.12
288.608	0.18
288.822	-0.5
289.035	0.43
289.248	0.84
289.462	1.55
289.675	6.34
289.889	7.01
290.102	5.74
290.315	6.11
290.529	4.87
290.742	3.19
290.955	3.38
291.169	1.9
291.382	0.89
291.595	1.65
291.808	0.8
292.022	-0.83
292.235	-2.64
292.448	-0.08
292.661	-2.1
292.875	1.98
293.088	2.71
293.301	1.45
293.514	2.99
293.727	5.26
293.94	4.49
294.153	2.18
294.367	1.15
294.58	2.96
294.793	1.98
295.006	3.75
295.219	2.49
295.432	3.18
295.645	3.86
295.858	2.49
296.071	0.74
296.284	0.29
296.497	2.92
296.71	3.42
296.923	3.28
297.136	3.87
297.349	3.72
297.562	1.72
297.775	1.74
297.988	0.39
298.201	0.19
298.414	2.4
298.626	3.16
298.839	2.7
299.052	2.02
299.265	3.3
299.478	2.24
299.691	1.41
299.903	3.51
300.116	3.48
300.329	5.2
300.542	7.36
300.755	4.05
300.967	4.68
301.18	4.48
301.393	3.6
301.605	3.27
301.818	1.98
302.031	1.33
302.243	1.39
302.456	0.31
302.669	-0.52
302.881	-0.78
303.094	-0.91
303.307	-5.21
303.519	-7.12
303.732	-9.42
303.944	-10.82
304.157	-10.31
304.37	-10.73
304.582	-9.11
304.795	-8.51
305.007	-11.56
305.22	-12.2
305.432	-8.61
305.645	-3.56
305.857	-0.27
306.069	1.63
306.282	1.82
306.494	1.48
306.707	3.09
306.919	4.11
307.132	4.05
307.344	8.03
307.556	5.16
307.769	3.74
307.981	3.38
308.193	0.61
308.406	2.27
308.618	1.89
308.83	3.6
309.043	4.45
309.255	1.49
309.467	-0.33
309.679	-1.52
309.892	1.08
310.104	1.21
310.316	0.09
310.528	0.96
310.74	-0.52
310.953	0.36
311.165	0.29
311.377	-2.88
311.589	-4.09
311.801	-3.23
312.013	-2.78
312.225	-1.09
312.437	-1.07
312.649	-1.24
312.862	-0.52
313.074	2.13
313.286	-0.34
313.498	0.93
313.71	4.54
313.922	5.16
314.134	4.02
314.346	4
314.558	1.39
314.77	3.45
314.982	5.44
315.193	6.02
315.405	1.42
315.617	3.96
315.829	-0.45
316.041	-0.41
316.253	0.94
316.465	4.36
316.677	2.18
316.888	1.24
317.1	-1.41
317.312	-3.1
317.524	-3.81
317.736	-2.08
317.947	-0.85
318.159	3.79
318.371	-0.28
318.583	2.23
318.794	-0.32
319.006	-0.41
319.218	1.09
319.43	1.22
319.641	2.08
319.853	2.54
320.064	5.43
320.276	6.9
320.488	5.68
320.699	8.93
320.911	8.1
321.123	12.3
321.334	14.54
321.546	13.43
321.757	13.14
321.969	11.7
322.18	13.05
322.392	10.17
322.603	7.31
322.815	5.29
323.026	2.88
323.238	3.4
323.449	-0.28
323.661	1.36
323.872	2.53
324.083	3.31
324.295	2.99
324.506	1.18
324.718	4.96
324.929	4.73
325.14	8.51
325.352	11.38
325.563	11.14
325.774	11.61
325.986	10.42
326.197	11.3
326.408	11.06
326.62	12.88
326.831	11.33
327.042	7.94
327.253	10.55
327.464	7.39
327.676	7.07
327.887	5.14
328.098	6.49
328.309	6.15
328.52	6.1
328.732	8.16
328.943	5.15
329.154	7.88
329.365	11.11
329.576	8.7
329.787	10.05
329.998	7.74
330.209	10.2
330.42	11.02
330.631	11.1
330.842	8.37
331.053	5.23
331.264	5.28
331.475	1.79
331.686	0.05
331.897	-0.31
332.108	-0.44
332.319	-0.24
332.53	-0.59
332.741	-1.87
332.952	-3.42
333.163	-3.09
333.374	-1.43
333.585	1.63
333.795	4.12
334.006	-0.59
334.217	-1.42
334.428	-0.66
334.639	1.81
334.849	-0.81
335.06	1.33
335.271	2.19
335.482	5.14
335.692	4.87
335.903	5.11
336.114	3.54
336.325	6.05
336.535	9.23
336.746	6.39
336.957	6.3
337.167	9.69
337.378	7.88
337.589	5.65
337.799	4.69
338.01	2.86
338.22	4.55
338.431	7.48
338.642	10.61
338.852	9.69
339.063	13.46
339.273	12.15
339.484	12.17
339.694	11.82
339.905	13.71
340.115	16.02
340.326	17.31
340.536	15.77
340.746	15.94
340.957	14.99
341.167	14.96
341.378	15.55
341.588	15.61
341.799	13.96
342.009	14.13
342.219	13.39
342.43	11.93
342.64	10.75
342.85	11.96
343.061	12.66
343.271	13.23
343.481	10.53
343.691	7.51
343.902	8.22
344.112	4.34
344.322	3.84
344.532	4.21
344.743	3.95
344.953	5.47
345.163	2.71
345.373	1.17
345.583	-0.09
345.793	1.14
346.004	0.89
346.214	1.11
346.424	3.68
346.634	5.13
346.844	5.94
347.054	6.97
347.264	6.33
347.474	6.44
347.684	5.71
347.894	5.39
348.104	4.91
348.314	5.37
348.524	2.2
348.734	2.78
348.944	2.3
349.154	0.9
349.364	-0.3
349.574	-2.42
349.784	-3.36
349.994	-2.87
350.204	-3.11
350.413	-3.13
350.623	-2.35
350.833	-0.95
351.043	0.92
351.253	1.49
351.463	2.42
351.672	1.36
351.882	3.64
352.092	3.83
352.302	3.35
352.511	2.48
352.721	3.61
352.931	5.16
353.141	5.18
353.35	3.49
353.56	2.31
353.77	2.48
353.979	3.35
354.189	2.37
354.399	1.68
354.608	2.09
354.818	3.83
355.027	3.48
355.237	1.69
355.447	3.22
355.656	4.22
355.866	3.8
356.075	3.4
356.285	3.07
356.494	4.14
356.704	6.64
356.913	5.77
357.123	5.62
357.332	5.46
357.542	5.08
357.751	4.07
357.96	2.93
358.17	4.12
358.379	4.08
358.589	4.41
358.798	4.27
359.007	3.63
359.217	3.61
359.426	3.97
359.635	3.57
359.845	5.72
360.054	5.48
360.263	6.78
360.472	6.78
360.682	7.22
360.891	7.06
361.1	6.78
361.309	6.98
361.519	7.77
361.728	7.57
361.937	6.77
362.146	6.09
362.355	6.15
362.564	5.88
362.774	5.18
362.983	4.58
363.192	4.73
363.401	5.48
363.61	4.92
363.819	4.34
364.028	2.98
364.237	5.04
364.446	4.68
364.655	4.04
364.864	4.35
365.073	3.2
365.282	4.21
365.491	4.4
365.7	2.54
365.909	2.84
366.118	3.94
366.327	3.38
366.536	2.68
366.745	3.27
366.954	4.14
367.162	4.6
367.371	5.62
367.58	5.37
367.789	5.48
367.998	7.05
368.207	5.63
368.415	5.47
368.624	6.8
368.833	7.66
369.042	8.84
369.25	9.21
369.459	8.83
369.668	9.25
369.877	9.05
370.085	8.89
370.294	9.17
370.503	10.4
370.711	9.44
370.92	10.7
371.129	8.91
371.337	5.89
371.546	4.88
371.754	4.44
371.963	4.45
372.171	4.16
372.38	4.04
372.589	1.98
372.797	2.32
373.006	2.01
373.214	1.56
373.423	3.3
373.631	5.1
373.84	6.26
374.048	4.5
374.256	4.13
374.465	5.27
374.673	6.06
374.882	7.05
375.09	7.92
375.298	7.19
375.507	7.47
375.715	6.79
375.923	6.79
376.132	6.67
376.34	8.12
376.548	7.04
376.757	6.19
376.965	6.17
377.173	7.23
377.381	5.86
377.59	6.06
377.798	4.95
378.006	5.04
378.214	3.59
378.423	2.32
378.631	1.12
378.839	1.99
379.047	2.94
379.255	1.38
379.463	0.42
379.671	0
379.879	1.62
380.088	1.52
380.296	-0.34
380.504	0.44
380.712	1.72
380.92	1.42
381.128	2.07
381.336	1.64
381.544	2.86
381.752	3.29
381.96	4.15
382.168	3.37
382.376	4.03
382.584	6.19
382.791	6.82
382.999	7.18
383.207	7.63
383.415	7.03
383.623	7.22
383.831	7.29
384.039	7.16
384.247	6.3
384.454	6.86
384.662	6.37
384.87	6.15
385.078	5.68
385.285	6.02
385.493	6.98
385.701	6.85
385.909	6.22
386.116	5.69
386.324	6.09
386.532	5.96
386.739	4.86
386.947	4.25
387.155	4.47
387.362	3.44
387.57	1.82
387.778	0.21
387.985	0.92
388.193	1.68
388.4	1.78
388.608	1.83
388.816	2.14
389.023	3.8
389.231	4.07
389.438	4.18
389.646	4.72
389.853	4.88
390.061	6.56
390.268	6.34
390.475	7.13
390.683	7.07
390.89	7.02
391.098	7.69
391.305	6.82
391.512	7.85
391.72	7.7
391.927	8.3
392.135	8.55
392.342	8.45
392.549	9.4
392.756	8.64
392.964	7.89
393.171	7.76
393.378	6.11
393.586	6.32
393.793	5.61
394	5.57
394.207	5.19
394.414	5.31
394.622	4.08
394.829	3.9
395.036	3.69
395.243	4.67
395.45	4.18
395.657	4.86
395.864	4.1
396.072	5.57
396.279	4.92
396.486	5.87
396.693	7.09
396.9	8.39
397.107	8.43
397.314	7.51
397.521	7.84
397.728	7.27
397.935	8.69
398.142	8.23
398.349	6.12
398.556	6.43
398.763	4.06
398.97	3.56
399.177	2.17
399.383	0.89
399.59	1.92
399.797	1.27
400.004	2.56
400.211	1.32
400.418	2.96
400.625	4.45
400.831	4.83
401.038	6.33
401.245	6.4
401.452	7.01
401.658	6.67
401.865	6.36
402.072	6.23
402.279	5.72
402.485	5.91
402.692	5.35
402.899	5.48
403.105	5.39
403.312	5.38
403.519	5.94
403.725	6.3
403.932	7.51
404.138	8.11
404.345	8.74
404.552	9
404.758	8.7
404.965	9.42
405.171	8.25
405.378	7.69
405.584	7.71
405.791	7.68
405.997	8.26
406.204	7.34
406.41	7.36
406.617	6.76
406.823	6.96
407.029	6.52
407.236	5.59
407.442	6.15
407.649	7.53
407.855	7.18
408.061	6.24
408.268	5.65
408.474	5.53
408.68	4.42
408.887	3.73
409.093	2.6
409.299	3.59
409.505	3.69
409.712	4.74
409.918	3.19
410.124	3.56
410.33	3.14
410.537	2.01
410.743	3.28
410.949	2.77
411.155	3.87
411.361	4.71
411.567	4.58
411.773	4.42
411.98	4.1
412.186	4.74
412.392	5.17
412.598	5.59
412.804	5.96
413.01	5.05
413.216	6.01
413.422	6.25
413.628	6.05
413.834	6.49
414.04	7.07
414.246	6.32
414.452	5.69
414.658	5.24
414.864	4.86
415.07	5.02
415.275	4.88
415.481	4.46
415.687	4.42
415.893	4.62
416.099	3.73
416.305	3.56
416.511	3.56
416.716	4.45
416.922	4.88
417.128	4.89
417.334	5.08
417.539	4.75
417.745	4.72
417.951	5.17
418.157	5.15
418.362	5.49
418.568	6.04
418.774	6.66
418.979	6.3
419.185	6.01
419.391	6.3
419.596	6.23
419.802	6.76
420.008	7.19
420.213	6.78
420.419	7.06
420.624	7.05
420.83	6.21
421.035	5.94
421.241	6.17
421.446	6.53
421.652	6.52
421.857	6.81
422.063	6.86
422.268	6.46
422.474	6.56
422.679	6.6
422.885	6.99
423.09	7.49
423.295	8.02
423.501	8.12
423.706	7.57
423.911	7.25
424.117	7.04
424.322	6.61
424.527	7.09
424.733	6.88
424.938	6.66
425.143	6.69
425.349	6.73
425.554	6
425.759	5.83
425.964	6.7
426.169	7.36
426.375	7.9
426.58	8.09
426.785	7.61
426.99	7.85
427.195	8.05
427.4	6.94
427.605	7.34
427.811	7.36
428.016	7.81
428.221	6.28
428.426	6.07
428.631	5.34
428.836	5.13
429.041	5.1
429.246	4.94
429.451	4.97
429.656	5.81
429.861	5.28
430.066	4.72
430.271	4.37
430.476	5.11
430.681	4.94
430.886	5.59
431.09	6.02
431.295	6.29
431.5	6.4
431.705	6.89
431.91	6.63
432.115	6.62
432.32	7.04
432.524	6.9
432.729	6.92
432.934	6.79
433.139	6.44
433.343	6.58
433.548	6.56
433.753	6.59
433.958	5.8
434.162	6.2
434.367	6.04
434.572	6.2
434.776	5.79
434.981	6.46
435.186	6.54
435.39	6.51
435.595	5.75
435.799	5.56
436.004	5.03
436.209	5.2
436.413	4.37
436.618	4.77
436.822	4.93
437.027	5.41
437.231	4.74
437.436	5.12
437.64	5.41
437.845	5.82
438.049	5.7
438.253	6.41
438.458	6.73
438.662	7.45
438.867	7.09
439.071	7.23
439.275	7.33
439.48	7.6
439.684	7.39
439.888	7.74
440.093	7.35
440.297	7.84
440.501	7.63
440.706	7.64
440.91	7.3
441.114	7.71
441.318	7.29
441.523	7.34
441.727	7.24
441.931	6.91
442.135	6.13
442.339	6.73
442.543	6
442.748	6
442.952	5.87
443.156	5.82
443.36	5.44
443.564	5.38
443.768	4.78
443.972	4.54
444.176	4.58
444.38	4.47
444.584	4.02
444.788	4.51
444.992	4.23
445.196	4.23
445.4	4.96
445.604	5.13
445.808	5.27
446.012	5.59
446.216	5.99
446.42	6.28
446.624	6.46
446.828	6.51
447.032	6.68
447.235	6.74
447.439	6.74
447.643	5.51
447.847	5.84
448.051	5.58
448.254	5.87
448.458	5.44
448.662	5.12
448.866	4.96
449.069	5.9
449.273	5.44
449.477	5.61
449.681	5.48
449.884	6.3
450.088	6.06
450.292	6.46
450.495	6.19
450.699	6.62
450.902	6.88
451.106	6.9
451.31	6.46
451.513	6.83
451.717	6.8
451.92	6.99
452.124	6.29
452.327	6.24
452.531	5.37
452.734	5.38
452.938	5.6
453.141	5.25
453.345	5.19
453.548	5.17
453.752	5.11
453.955	5.08
454.158	4.85
454.362	5.64
454.565	4.63
454.769	5.08
454.972	5.15
455.175	4.58
455.379	4.94
455.582	4.45
455.785	4.16
455.988	3.85
456.192	3.67
456.395	3.39
456.598	3.21
456.801	4.31
457.005	4.13
457.208	3.65
457.411	3.67
457.614	3.81
457.817	4.42
458.021	4.58
458.224	4.78
458.427	5.35
458.63	5.28
458.833	5.25
459.036	4.98
459.239	5.44
459.442	5.74
459.645	5.75
459.848	5.74
460.051	5.58
460.254	5.91
460.457	5.83
460.66	5.52
460.863	6.14
461.066	6.29
461.269	6.13
461.472	5.41
461.675	5.14
461.878	5.11
462.081	4.98
462.284	5.2
462.486	5.07
462.689	4.62
462.892	5.14
463.095	4.83
463.298	5.29
463.5	5.18
463.703	5.35
463.906	5.69
464.109	5.67
464.311	5.96
464.514	6.55
464.717	6.11
464.92	6.52
465.122	6.07
465.325	5.69
465.528	5.8
465.73	5.75
465.933	6.21
466.135	6.13
466.338	6.35
466.541	6.02
466.743	5.34
466.946	5.45
467.148	5.29
467.351	5.55
467.553	5.53
467.756	5.26
467.958	5.16
468.161	5.25
468.363	5.51
468.566	5.07
468.768	5.46
468.971	5.58
469.173	6.26
469.375	6.08
469.578	5.43
469.78	5.68
469.983	5.26
470.185	6.5
470.387	5.89
470.59	5.69
470.792	6.47
470.994	6.22
471.196	6.48
471.399	6.08
471.601	6.39
471.803	6.96
472.005	7.04
472.208	6.74
472.41	6.55
472.612	7.04
472.814	7.17
473.016	6.69
473.218	6.43
473.421	6.17
473.623	5.93
473.825	5.9
474.027	5.68
474.229	5.58
474.431	5.92
474.633	5.36
474.835	5.43
475.037	5.39
475.239	5.8
475.441	5.97
475.643	5.91
475.845	5.77
476.047	6.06
476.249	6.42
476.451	6.73
476.653	6.22
476.855	6.11
477.057	5.55
477.258	5.71
477.46	5.8
477.662	6.13
477.864	6.22
478.066	6.33
478.268	6.15
478.469	5.64
478.671	5.26
478.873	5.72
479.075	6.25
479.276	7.15
479.478	6.94
479.68	6.66
479.882	6.46
480.083	6.84
480.285	7.25
480.487	6.92
480.688	7.46
480.89	7.71
481.091	7.66
481.293	7.4
481.495	6.81
481.696	6.83
481.898	6.73
482.099	6.79
482.301	6.67
482.502	6.34
482.704	6.38
482.905	6.24
483.107	6.15
483.308	6.1
483.51	5.99
483.711	6.12
483.913	6.06
484.114	6.05
484.315	6.16
484.517	6.09
484.718	6.31
484.92	6.62
485.121	6.89
485.322	6.84
485.524	6.95
485.725	7.15
485.926	7.15
486.127	7.21
486.329	7.29
486.53	7.02
486.731	6.95
486.932	6.74
487.134	6.53
487.335	6.35
487.536	6.25
487.737	6.27
487.938	6.16
488.139	6.35
488.341	6.26
488.542	6.06
488.743	5.93
488.944	5.57
489.145	5.81
489.346	6.12
489.547	5.96
489.748	6.07
489.949	6.27
490.15	6.38
490.351	6.27
490.552	6.36
490.753	6.48
490.954	6.53
491.155	6.91
491.356	6.77
491.557	6.52
491.758	6.5
491.959	6.31
492.159	5.62
492.36	5.58
492.561	5.22
492.762	4.88
492.963	4.52
493.164	4.41
493.364	4.3
493.565	4.59
493.766	4.35
493.967	4.4
494.167	4.99
494.368	5.11
494.569	5
494.769	5.27
494.97	5.14
495.171	5.72
495.371	5.66
495.572	5.66
495.773	5.39
495.973	5.76
496.174	5.71
496.375	5.37
496.575	5.82
496.776	6.23
496.976	6.54
497.177	7.02
497.377	6.94
497.578	7.14
497.778	7.04
497.979	6.84
498.179	6.99
498.38	7.19
498.58	7.7
498.78	7.82
498.981	7.22
499.181	7.21
499.382	7
499.582	6.85
499.782	7.08
499.983	7.23
500.183	7.53
500.383	7.69
500.584	7.66
500.784	7.01
500.984	7.22
501.184	7.5
501.385	7.16
501.585	6.62
501.785	6.61
501.985	6.57
502.185	6.49
502.386	6.64
502.586	6.09
502.786	6.18
502.986	6.84
503.186	6.54
503.386	6.64
503.586	6.38
503.786	6.82
503.987	6.6
504.187	6.82
504.387	7.13
504.587	7.43
504.787	7.65
504.987	7.99
505.187	8.14
505.387	7.97
505.587	7.98
505.786	8.78
505.986	9.24
506.186	8.95
506.386	8.72
506.586	8.23
506.786	7.86
506.986	7.79
507.186	7.12
507.386	6.3
507.585	6.24
507.785	6.41
507.985	5.89
508.185	5.97
508.384	6.37
508.584	6.32
508.784	6.96
508.984	7.12
509.183	7.13
509.383	7.32
509.583	7.79
509.782	8.33
509.982	8.28
510.182	8.02
510.381	7.86
510.581	7.83
510.781	7.77
510.98	7.37
511.18	7.29
511.379	6.74
511.579	6.78
511.778	6.86
511.978	6.28
512.177	5.89
512.377	6.56
512.576	6.35
512.776	6.68
512.975	6.71
513.175	6.29
513.374	5.85
513.573	6.57
513.773	6.27
513.972	6.12
514.172	6.66
514.371	6.48
514.57	6.02
514.77	6.25
514.969	6.32
515.168	6.31
515.367	6.84
515.567	7.18
515.766	7.16
515.965	7.53
516.164	7.54
516.364	7.19
516.563	7.85
516.762	8.27
516.961	8.13
517.16	8.14
517.359	8.23
517.559	8.42
517.758	9.07
517.957	9.37
518.156	9.42
518.355	9.28
518.554	9.69
518.753	9.81
518.952	9.52
519.151	9.86
519.35	9.99
519.549	9.85
519.748	9.69
519.947	9.24
520.146	9.25
520.345	9.54
520.544	9.76
520.743	9.57
520.942	9.54
521.141	9.82
521.339	10.09
521.538	10
521.737	10.17
521.936	10.42
522.135	10.43
522.333	10.58
522.532	10.16
522.731	10.51
522.93	10.06
523.129	9.9
523.327	9.87
523.526	9.57
523.725	9.25
523.923	9.37
524.122	9.46
524.321	9.49
524.519	9.09
524.718	9.42
524.917	9.18
525.115	9.41
525.314	9.35
525.512	9.7
525.711	9.61
525.909	10.14
526.108	10.2
526.306	10.11
526.505	10.11
526.703	10.2
526.902	10.19
527.1	10.36
527.299	10.5
527.497	10.51
527.696	10.41
527.894	10.51
528.092	10.4
528.291	10.51
528.489	10.55
528.688	10.63
528.886	10.8
529.084	11.06
529.283	10.86
529.481	11.1
529.679	11.26
529.877	11.38
530.076	11.38
530.274	11.42
530.472	11.49
530.67	11.66
530.869	11.82
531.067	11.74
531.265	11.68
531.463	11.96
531.661	11.77
531.859	11.92
532.057	11.9
532.255	12.12
532.454	12.35
532.652	12.16
532.85	12.15
533.048	12.18
533.246	12.53
533.444	12.23
533.642	12.14
533.84	12.27
534.038	12.09
534.236	12.08
534.434	11.65
534.632	11.48
534.83	11.51
535.027	11.86
535.225	11.96
535.423	11.56
535.621	11.79
535.819	11.94
536.017	12.21
536.215	12.54
536.412	12.59
536.61	12.92
536.808	13.17
537.006	13.38
537.203	13.06
537.401	12.78
537.599	12.72
537.797	12.92
537.994	12.98
538.192	12.8
538.39	12.81
538.587	12.97
538.785	13.09
538.983	13.12
539.18	13.29
539.378	13.63
539.575	14.08
539.773	14.23
539.97	14.06
540.168	13.97
540.366	14.22
540.563	14.11
540.761	14.16
540.958	14.25
541.155	14.4
541.353	14.58
541.55	14.32
541.748	13.95
541.945	13.94
542.143	13.92
542.34	14.04
542.537	13.96
542.735	13.91
542.932	13.76
543.129	13.71
543.327	13.51
543.524	13.86
543.721	14.37
543.919	14.96
544.116	15.23
544.313	15.64
544.51	15.98
544.708	16.01
544.905	16.19
545.102	16.44
545.299	16.54
545.496	17.12
545.693	16.6
545.891	16.68
546.088	16.82
546.285	17.27
546.482	16.99
546.679	17.18
546.876	16.95
547.073	17.51
547.27	17.53
547.467	18
547.664	17.48
547.861	17.6
548.058	17.72
548.255	17.84
548.452	17.15
548.649	17.38
548.846	17.1
549.043	17.38
549.24	17.03
549.437	17.38
549.633	16.78
549.83	17.26
550.027	17.31
550.224	16.86
550.421	16.31
550.618	16.45
550.814	16.36
551.011	16.44
551.208	17.16
551.405	17.07
551.601	17.16
551.798	18.27
551.995	18.07
552.191	18.67
552.388	19.07
552.585	19.55
552.781	20.16
552.978	20.81
553.175	21.6
553.371	21.47
553.568	22.02
553.764	22.01
553.961	22.11
554.157	22.52
554.354	22.16
554.55	22.52
554.747	22.38
554.943	22.59
555.14	22.48
555.336	22.19
555.533	21.45
555.729	20.65
555.926	21.05
556.122	20.39
556.318	20.09
556.515	20.39
556.711	19.99
556.907	19.72
557.104	19.85
557.3	19.66
557.496	19.71
557.693	20.74
557.889	21.4
558.085	21.29
558.281	20.82
558.478	21.18
558.674	21.33
558.87	21.19
559.066	21.75
559.262	21.55
559.459	21.93
559.655	21.79
559.851	21.7
560.047	22.18
560.243	21.84
560.439	22.68
560.635	22.96
560.831	22.14
561.027	22.58
561.223	23.01
561.419	22.61
561.615	23.24
561.811	23.8
562.007	23.41
562.203	23.29
562.399	23.96
562.595	23.72
562.791	23.15
562.987	23.5
563.183	23.68
563.379	23.37
563.575	24.32
563.771	24.26
563.966	23.97
564.162	24.36
564.358	24.37
564.554	24.29
564.75	24.64
564.945	25.14
565.141	25.5
565.337	25.23
565.533	25.46
565.728	24.78
565.924	24.8
566.12	24.86
566.315	25.02
566.511	24.27
566.707	24.11
566.902	24.3
567.098	24.4
567.293	24.9
567.489	25.25
567.684	24.86
567.88	25.58
568.076	25.38
568.271	25.6
568.467	26.16
568.662	26.86
568.858	27.9
569.053	28.06
569.248	27.62
569.444	26.95
569.639	26.93
569.835	26.78
570.03	26.27
570.225	26.76
570.421	26.69
570.616	26.56
570.812	27
571.007	26.09
571.202	25.28
571.397	25.49
571.593	26.03
571.788	26.02
571.983	26.76
572.178	27.71
572.374	27.38
572.569	27.3
572.764	27.12
572.959	27.2
573.154	27.64
573.35	27.91
573.545	28.19
573.74	28.17
573.935	27.88
574.13	27.62
574.325	27.3
574.52	27.44
574.715	27.84
574.91	28.23
575.105	28.13
575.3	28.5
575.495	28.91
575.69	29.17
575.885	29.83
576.08	30.25
576.275	30.7
576.47	30.65
576.665	30.83
576.86	31.14
577.055	30.95
577.25	31.21
577.444	31.31
577.639	30.95
577.834	31.58
578.029	31.16
578.224	31.99
578.418	32.2
578.613	31.97
578.808	32.22
579.003	32.34
579.197	32.25
579.392	32.13
579.587	31.59
579.781	32.32
579.976	31.4
580.171	31.48
580.365	30.75
580.56	30.61
580.755	31.38
580.949	31.84
581.144	32.07
581.338	32.12
581.533	32.43
581.727	32.81
581.922	32.91
582.116	33.2
582.311	32.89
582.505	33.67
582.7	33.86
582.894	33.21
583.089	32.5
583.283	32.09
583.478	32.52
583.672	32.5
583.866	32.62
584.061	32.49
584.255	32.26
584.449	32.56
584.644	31.63
584.838	31.77
585.032	31.93
585.226	32.21
585.421	32.72
585.615	32.63
585.809	32.61
586.003	32.86
586.198	33.41
586.392	33.73
586.586	33.7
586.78	33.77
586.974	33.33
587.168	33.34
587.363	33.91
587.557	32.93
587.751	32.87
587.945	32.7
588.139	32.69
588.333	32.04
588.527	32.32
588.721	31.91
588.915	32.35
589.109	32.26
589.303	32.84
589.497	32.3
589.691	32.64
589.885	33.12
590.079	33.29
590.273	33
590.466	32.81
590.66	32.44
590.854	33.38
591.048	33.23
591.242	33.28
591.436	32.9
591.629	32.89
591.823	33.55
592.017	33.67
592.211	33.63
592.404	33.97
592.598	34.41
592.792	34.82
592.986	34.55
593.179	33.95
593.373	34.53
593.567	34.76
593.76	34.52
593.954	34.83
594.147	34.43
594.341	34.82
594.535	34.51
594.728	34.36
594.922	34.37
595.115	34.66
595.309	35.89
595.502	36.34
595.696	36.42
595.889	36.43
596.083	35.8
596.276	35.54
596.47	35.97
596.663	36.2
596.856	36.77
597.05	36.69
597.243	36.42
597.437	36.41
597.63	35.9
597.823	36.21
598.017	37.2
598.21	37.21
598.403	37.62
598.596	36.55
598.79	36.34
598.983	36.11
599.176	36.46
599.369	36.51
599.563	36.13
599.756	36.14
599.949	36.17
600.142	35.62
600.335	35.73
600.528	36.37
600.722	37.43
600.915	37.59
601.108	37.15
601.301	36.95
601.494	36.98
601.687	36.82
601.88	36.85
602.073	36.82
602.266	37.16
602.459	37.38
602.652	36.49
602.845	35.45
603.038	35.59
603.231	35.86
603.424	36.04
603.617	35.89
603.809	36.36
604.002	36.08
604.195	35.94
604.388	36.03
604.581	35.97
604.774	36.37
604.966	36.64
605.159	36.63
605.352	36.43
605.545	36.52
605.737	37.2
605.93	36.82
606.123	37.27
606.316	37.16
606.508	37.7
606.701	37.97
606.894	38.07
607.086	38.33
607.279	38.86
607.471	39.49
607.664	38.85
607.857	39.1
608.049	38.69
608.242	38.92
608.434	39.07
608.627	38.51
608.819	38.46
609.012	39.23
609.204	39.81
609.397	39.98
609.589	40.18
609.782	40.26
609.974	39.81
610.166	40.13
610.359	39.97
610.551	40.13
610.743	40.16
610.936	40.8
611.128	40.21
611.32	39.78
611.513	39.25
611.705	38.48
611.897	39.01
612.09	39.63
612.282	40.61
612.474	40.93
612.666	39.97
612.858	39.28
613.051	38.03
613.243	38.54
613.435	39.13
613.627	39.64
613.819	39.98
614.011	40.32
614.203	40.48
614.395	39.35
614.588	38.4
614.78	39.29
614.972	40.1
615.164	40.67
615.356	39.5
615.548	39.23
615.74	38.75
615.932	39.13
616.124	38.84
616.315	39.41
616.507	40.25
616.699	40.65
616.891	41.15
617.083	41
617.275	41.58
617.467	41.99
617.659	42.45
617.85	42.53
618.042	41.74
618.234	41.64
618.426	40.44
618.618	40.05
618.809	39.78
619.001	39.54
619.193	39.36
619.384	39.27
619.576	39.38
619.768	38.36
619.959	38.71
620.151	39.14
620.343	39.95
620.534	40.28
620.726	40.81
620.917	40.77
621.109	41.26
621.301	41.89
621.492	42.14
621.684	42.06
621.875	42.73
622.067	42.88
622.258	43.14
622.45	43.17
622.641	43.45
622.832	43.46
623.024	44.46
623.215	43.7
623.407	43.34
623.598	43.21
623.789	43.03
623.981	42.93
624.172	42.48
624.363	43.38
624.555	43.87
624.746	44.12
624.937	45
625.129	44.58
625.32	44.91
625.511	45.27
625.702	45.27
625.893	46.1
626.085	46.05
626.276	45.71
626.467	45.11
626.658	44.7
626.849	44.64
627.04	43.5
627.231	44.01
627.422	43.94
627.614	43.16
627.805	42.76
627.996	42.38
628.187	42.96
628.378	43.33
628.569	43.4
628.76	43.52
628.951	43.61
629.142	43.73
629.332	44.18
629.523	43.67
629.714	44.34
629.905	45.33
630.096	45.44
630.287	45.43
630.478	46.6
630.669	47.72
630.859	47.2
631.05	46.92
631.241	47.39
631.432	46.49
631.623	47.87
631.813	48.66
632.004	48.09
632.195	47.83
632.385	47.27
632.576	45.92
632.767	44.77
632.957	45.31
633.148	45.54
633.339	45.5
633.529	45.8
633.72	45.11
633.91	45.03
634.101	44.12
634.292	44.53
634.482	44.75
634.673	46.02
634.863	46.19
635.054	45.59
635.244	45.85
635.435	45.16
635.625	45.48
635.815	45.26
636.006	45.02
636.196	47.01
636.387	46.95
636.577	47.17
636.767	45.92
636.958	46.01
637.148	45.77
637.338	45.67
637.529	46.88
637.719	46.73
637.909	47.16
638.099	46.6
638.29	45.15
638.48	45.77
638.67	45.67
638.86	46.82
639.05	46.66
639.241	47.65
639.431	47.24
639.621	46.17
639.811	45.98
640.001	46.33
640.191	47.24
640.381	48.01
640.571	46.55
640.761	46.64
640.951	47.82
641.141	48.87
641.331	49.38
641.521	49.65
641.711	50.41
641.901	49.8
642.091	49.71
642.281	48.81
642.471	48.19
642.661	48.44
642.851	49.07
643.041	47.49
643.231	45.34
643.42	44.62
643.61	44.55
643.8	45.5
643.99	46.4
644.18	46.01
644.369	45.83
644.559	45.5
644.749	45.51
644.939	45.11
645.128	44.6
645.318	45.94
645.508	44.44
645.697	43.8
645.887	42.83
646.076	43.01
646.266	43.15
646.456	44.26
646.645	44.11
646.835	44.37
647.024	44.29
647.214	44.95
647.403	44.99
647.593	47.5
647.782	48.11
647.972	48.3
648.161	48.57
648.351	48.23
648.54	47.99
648.73	49
648.919	49.23
649.108	49.95
649.298	49.53
649.487	49.42
649.677	47.94
649.866	47.91
650.055	48
650.244	47.22
650.434	48.03
650.623	48.22
650.812	49.02
651.002	49.95
651.191	49.6
651.38	50.13
651.569	50.64
651.758	50.02
651.947	50.43
652.137	50.13
652.326	49.98
652.515	49.55
652.704	49.27
652.893	47.77
653.082	47.31
653.271	46.09
653.46	45.67
653.649	44.62
653.838	45.45
654.027	44.99
654.216	44.36
654.405	44.69
654.594	45.71
654.783	44.92
654.972	45.36
655.161	44.92
655.35	45.68
655.539	45.64
655.728	45.43
655.916	46.02
656.105	45.79
656.294	47.37
656.483	46.77
656.672	44.44
656.86	44.79
657.049	44.15
657.238	44.32
657.427	44.34
657.615	45.62
657.804	45.72
657.993	46.2
658.181	46.38
658.37	45.91
658.559	46.75
658.747	48.41
658.936	49.92
659.125	49.45
659.313	50.21
659.502	50.61
659.69	49.37
659.879	50.74
660.067	49.53
660.256	50.63
660.444	50.57
660.633	49.65
660.821	48.84
661.01	47.01
661.198	49.82
661.387	49.48
661.575	48.58
661.763	48.52
661.952	47.85
662.14	48.34
662.328	46.76
662.517	47.26
662.705	48.62
662.893	49.66
663.082	50.9
663.27	49.69
663.458	48.99
663.646	50.23
663.834	50.11
664.023	50.47
664.211	50.92
664.399	52.37
664.587	51.31
664.775	50.11
664.963	48.97
665.152	47.78
665.34	47.57
665.528	47.48
665.716	47.72
665.904	47.75
666.092	47.17
666.28	47.64
666.468	46.42
666.656	48.02
666.844	48.53
667.032	50.03
667.22	50.26
667.408	50.81
667.596	51.35
667.784	51.43
667.971	51.42
668.159	52.36
668.347	51.4
668.535	52.48
668.723	50.85
668.911	52.1
669.098	51.08
669.286	51.94
669.474	51.04
669.662	51.18
669.849	50.23
670.037	50.69
670.225	50.8
670.413	51.87
670.6	51.61
670.788	52.7
670.976	51.71
671.163	52.26
671.351	51.81
671.538	52.6
671.726	52.95
671.913	52.92
672.101	52.05
672.289	51.55
672.476	51.21
672.664	52.36
672.851	52.75
673.039	53.19
673.226	52.97
673.413	53.6
673.601	53.21
673.788	53.23
673.976	55.06
674.163	54.3
674.35	54.83
674.538	54.24
674.725	52.78
674.912	51.16
675.1	48.98
675.287	49.61
675.474	49.93
675.662	50.56
675.849	50.05
676.036	47.88
676.223	50.15
676.411	49.58
676.598	49.7
676.785	50.16
676.972	51.7
677.159	53.93
677.346	52.94
677.533	52.52
677.721	53.07
677.908	52.28
678.095	52.15
678.282	51.39
678.469	51.43
678.656	51.48
678.843	50.77
679.03	50.45
679.217	49.73
679.404	50.16
679.591	49.94
679.778	49.01
679.964	49.33
680.151	49.92
680.338	49.92
680.525	50.87
680.712	51.74
680.899	52.51
681.086	52.58
681.272	53.53
681.459	53.92
681.646	54.89
681.833	55.53
682.02	56.26
682.206	56.99
682.393	56.76
682.58	53.99
682.766	54.92
682.953	55.37
683.14	54.39
683.326	54.07
683.513	53.28
683.7	52.41
683.886	51.19
684.073	50.15
684.259	50.13
684.446	51.26
684.632	52.82
684.819	49.65
685.005	48.62
685.192	47.54
685.378	46.69
685.565	46.79
685.751	47.08
685.938	48.35
686.124	48.61
686.31	47.56
686.497	46.33
686.683	46.64
686.87	47.41
687.056	48.99
687.242	50.19
687.429	50.12
687.615	50.71
687.801	47.88
687.987	47.58
688.174	47.78
688.36	48.87
688.546	50.46
688.732	49.92
688.918	49.72
689.105	48.73
689.291	49.6
689.477	50.55
689.663	49.45
689.849	51.09
690.035	51.08
690.221	51.07
690.407	50.58
690.593	48.65
690.779	48.96
690.965	49.49
691.151	50.02
691.337	49.31
691.523	47.74
691.709	48.55
691.895	48.57
692.081	48.13
692.267	49.5
692.453	48.89
692.639	48.26
692.825	49.51
693.011	49.72
693.196	49.27
693.382	49.81
693.568	50.36
693.754	50.43
693.94	51.27
694.125	53.11
694.311	51.87
694.497	53.68
694.682	54.34
694.868	52.62
695.054	51.99
695.239	51.49
695.425	52.62
695.611	52.35
695.796	51.32
695.982	50.67
696.168	49.36
696.353	49.23
696.539	47.6
696.724	49.46
696.91	49.9
697.095	49.79
697.281	50.23
697.466	48.07
697.652	48.59
697.837	49.42
698.023	50.43
698.208	50.35
698.393	50.81
698.579	51.19
698.764	50.41
698.949	49.7
699.135	49.58
699.32	49.22
699.505	51
699.691	51.29
699.876	51.19
700.061	49.78
700.246	48.98
700.432	49.49
700.617	49.61
700.802	49.26
700.987	50.15
701.172	51.25
701.358	52.1
701.543	53.19
701.728	51.49
701.913	54.45
702.098	55.96
702.283	58.37
702.468	57.95
702.653	56.89
702.838	56.93
703.023	57.92
703.208	58.26
703.393	58.8
703.578	61.14
703.763	64.02
703.948	61.02
704.133	62.35
704.318	61.37
704.503	62.08
704.688	62.12
704.873	62.07
705.057	61.05
705.242	59.96
705.427	58.53
705.612	54.78
705.797	52.92
705.981	54.88
706.166	53.2
706.351	52.96
706.536	53.45
706.72	53.65
706.905	52.95
707.09	52.01
707.274	50.72
707.459	51
707.644	50.86
707.828	51.48
708.013	48.57
708.197	48.79
708.382	48.29
708.567	47.5
708.751	50.29
708.936	50.76
709.12	52.56
709.305	54.33
709.489	54.13
709.673	53.11
709.858	52.51
710.042	53.98
710.227	54.77
710.411	57.66
710.596	56.51
710.78	57.21
710.964	58.38
711.149	57.03
711.333	58.79
711.517	59.29
711.702	60.96
711.886	61.32
712.07	60.43
712.254	59.59
712.438	55.48
712.623	56.01
712.807	54.49
712.991	54.07
713.175	55.02
713.359	52.26
713.544	51.56
713.728	50.37
713.912	49.15
714.096	48.74
714.28	48.34
714.464	49.43
714.648	51.48
714.832	50.48
715.016	50.17
715.2	50.13
715.384	50.08
715.568	50.23
715.752	51.65
715.936	53.02
716.12	54.43
716.304	56.16
716.488	56.01
716.671	54.36
716.855	53.71
717.039	56.17
717.223	55.98
717.407	57.06
717.59	55.72
717.774	53.99
717.958	52.01
718.142	50.59
718.325	48.94
718.509	49.66
718.693	49.5
718.877	48.05
719.06	44.3
719.244	45.3
719.428	41.84
719.611	42.57
719.795	45.11
719.978	47.02
720.162	47.62
720.345	48.75
720.529	49.57
720.713	48.18
720.896	48.35
721.08	48.31
721.263	48.09
721.446	51.93
721.63	53.82
721.813	56.24
721.997	55.14
722.18	55.37
722.364	54.95
722.547	51.32
722.73	54.51
722.914	56.13
723.097	56.6
723.28	54.63
723.464	53.08
723.647	52.36
723.83	49.75
724.013	51.61
724.197	52.19
724.38	53.19
724.563	54.18
724.746	54.34
724.929	55.54
725.112	57.18
725.296	59.71
725.479	61.51
725.662	60.8
725.845	59.62
726.028	58.49
726.211	57.83
726.394	56.83
726.577	58.38
726.76	57.06
726.943	55.76
727.126	53.49
727.309	52.76
727.492	50.64
727.675	51.41
727.858	51.55
728.041	52.58
728.224	51.51
728.407	51.13
728.589	50.15
728.772	47.4
728.955	49.56
729.138	51
729.321	51.41
729.503	50.21
729.686	51.31
729.869	51.65
730.052	48.99
730.234	50.13
730.417	49.59
730.6	50.58
730.782	53.74
730.965	54.49
731.148	55.55
731.33	56.23
731.513	58.37
731.695	55.51
731.878	56.09
732.061	59.36
732.243	60.04
732.426	63.85
732.608	62.71
732.791	63.35
732.973	61.7
733.156	60.28
733.338	59.25
733.52	59.87
733.703	63.08
733.885	61.9
734.068	60.64
734.25	60.11
734.432	57.96
734.615	60.63
734.797	61.92
734.979	62.56
735.162	63.77
735.344	63.44
735.526	65.84
735.708	65.36
735.891	68.13
736.073	67.15
736.255	66.5
736.437	64.94
736.619	61.37
736.802	57.28
736.984	55.38
737.166	54.02
737.348	54.08
737.53	51.61
737.712	48.41
737.894	50.24
738.076	56.16
738.258	58.86
738.44	59.13
738.622	60.6
738.804	61.68
738.986	63.43
739.168	66.66
739.35	66.39
739.532	68.4
739.714	71.4
739.896	67.04
740.078	61.49
740.259	61.64
740.441	63.07
740.623	62.8
740.805	61.92
740.987	60.27
741.168	58.9
741.35	62.17
741.532	62.29
741.714	65.15
741.895	66.46
742.077	68.32
742.259	65.76
742.44	65.11
742.622	64.97
742.804	69.39
742.985	71.2
743.167	70.76
743.348	68.25
743.53	66.86
743.711	64.02
743.893	68.55
744.075	66.7
744.256	71.72
744.438	73.46
744.619	75.14
744.8	71.88
744.982	71.52
745.163	75.61
745.345	77.64
745.526	81.21
745.707	85.02
745.889	85.93
746.07	88.2
746.252	82.27
746.433	81.46
746.614	81.77
746.795	83.35
746.977	84.93
747.158	83.69
747.339	84.28
747.52	78.05
747.702	75.31
747.883	71.92
748.064	73.36
748.245	77.07
748.426	73.38
748.607	71.52
748.788	74.81
748.97	74.48
749.151	74.11
749.332	74.48
749.513	77.3
749.694	78.1
749.875	76.33
750.056	71.77
750.237	65.59
750.418	67.19
750.599	73.76
750.78	71.26
750.96	72.77
751.141	71.28
751.322	69.56
751.503	68.75
751.684	65.86
751.865	67.65
752.046	71.45
752.226	78.76
752.407	84.67
752.588	76.81
752.769	73.69
752.949	70.56
753.13	73.77
753.311	83.05
753.492	81.31
753.672	84.62
753.853	80.06
754.034	81.06
754.214	78.23
754.395	73.34
754.575	78.32
754.756	80.41
754.937	80.92
755.117	77.95
755.298	68.83
755.478	69.68
755.659	66.2
755.839	68.96
756.02	67.42
756.2	65.13
756.381	65.45
756.561	62.37
756.741	61.99
756.922	59.52
757.102	58.12
757.283	59.36
757.463	60.29
757.643	62.24
757.823	61.87
758.004	56.06
758.184	57.39
758.364	57.36
758.545	54.46
758.725	51.79
758.905	52.42
759.085	51.56
759.265	49.43
759.446	47.44
759.626	43.22
759.806	39.63
759.986	44.12
760.166	44.79
760.346	45.64
760.526	46.72
760.706	51.69
760.886	51.33
761.066	49.07
761.246	49.78
761.426	50.74
761.606	51.22
761.786	52.45
761.966	53.35
762.146	53.12
762.326	54.71
762.506	54.37
762.686	52.73
762.866	54.29
763.046	55.01
763.225	53.56
763.405	51.88
763.585	53.11
763.765	54.64
763.945	56.02
764.124	59.33
764.304	59.12
764.484	60.66
764.664	58.44
764.843	58.58
765.023	61.16
765.203	64.42
765.382	67.52
765.562	69.7
765.741	68.69
765.921	68.59
766.101	68.09
766.28	66.51
766.46	66.62
766.639	70.04
766.819	71.46
766.998	72.77
767.178	69.15
767.357	69.17
767.537	69.44
767.716	69.41
767.896	68.54
768.075	67.69
768.254	68.92
768.434	69.99
768.613	71.65
768.792	69.51
768.972	71.92
769.151	77.34
769.33	76.3
769.51	78.97
769.689	85.04
769.868	87.66
770.047	88.75
770.226	84.98
770.406	86.97
770.585	87.59
770.764	88.74
770.943	84.54
771.122	83.28
771.301	89.25
771.48	90.74
771.66	84.25
771.839	82.51
772.018	77.1
772.197	78.14
772.376	78.66
772.555	77.93
772.734	74.68
772.913	73.54
773.092	75.85
773.271	77.09
773.449	68.97
773.628	66.82
773.807	68.64
773.986	73.53
774.165	70.62
774.344	70.88
774.523	72.77
774.701	82.1
774.88	83.95
775.059	80.84
775.238	79.71
775.417	82.76
775.595	86.26
775.774	80.8
775.953	80.23
776.131	84.64
776.31	79.56
776.489	77.89
776.667	74.34
776.846	78.07
777.025	77.01
777.203	70.99
777.382	77.55
777.56	74.94
777.739	77.64
777.917	76.49
778.096	71.42
778.274	71.92
778.453	70.43
778.631	77.76
778.81	70.77
778.988	73.07
779.166	76.82
779.345	72.44
779.523	72.81
779.702	79.11
779.88	85.45
780.058	85.71
780.237	80.32
780.415	85.76
780.593	76.4
780.771	78.85
780.95	77.96
781.128	78.52
781.306	78.17
781.484	80.44
781.662	72.29
781.841	69.59
782.019	76.55
782.197	83.29
782.375	78.09
782.553	75.58
782.731	81.33
782.909	79.38
783.087	79.38
783.265	81.89
783.443	79.52
783.621	78.9
783.799	76.73
783.977	72.69
784.155	76.66
784.333	83.95
784.511	86.59
784.689	86.03
784.867	86.06
785.045	83.69
785.223	84.24
785.4	86.66
785.578	91.19
785.756	85.6
785.934	81
786.112	76.76
786.289	76.89
786.467	76.18
786.645	71.67
786.823	75.65
787	71.41
787.178	68.03
787.356	64.93
787.533	61.89
787.711	64.53
787.889	65.74
788.066	64.8
788.244	57.2
788.421	58.12
788.599	53.85
788.776	53.65
788.954	58.88
789.131	62.21
789.309	61.1
789.486	69.39
789.664	67.42
789.841	63.13
790.019	62.43
790.196	63.51
790.373	59.39
790.551	62.03
790.728	62.83
790.906	63.58
791.083	62.11
791.26	61.19
791.437	53.1
791.615	53.14
791.792	60.18
791.969	65.71
792.146	57.14
792.324	71.18
792.501	75.5
792.678	74.65
792.855	73.63
793.032	65.99
793.209	67.37
793.387	70.83
793.564	76.94
793.741	75.09
793.918	66.72
794.095	72.74
794.272	66.54
794.449	61.4
794.626	54.91
794.803	50.74
794.98	62.75
795.157	65.69
795.334	64.3
795.511	56.13
795.688	52.96
795.864	57.62
796.041	61.91
796.218	56.44
796.395	52.43
796.572	52.05
796.749	61.93
796.925	58.43
797.102	57.39
797.279	49.45
797.456	53.49
797.632	50.97
797.809	50.27
797.986	45.92
798.162	47.61
798.339	46.13
798.516	45.04
798.692	39.59
798.869	35.26
799.046	33.46
799.222	43.83
799.399	43.75
799.575	55.03
799.752	55.87
799.928	72.46
800.105	77.29
800.281	76.97
800.458	85.58
800.634	83.28
800.811	86.6
800.987	96.81
801.163	89.72
801.34	98.01
801.516	83.54
801.692	76.01
801.869	56.98
802.045	55.17
802.221	62.44
802.398	51.71
802.574	56.35
802.75	61.83
802.926	57.64
803.103	56.65
803.279	47.59
803.455	48.29
803.631	57.27
803.807	70.74
803.983	71.83
804.16	68.63
804.336	66.17
804.512	62.24
804.688	58.06
804.864	53.53
805.04	46.3
805.216	38.98
805.392	37.42
805.568	22.02
805.744	13.44
805.92	-8.81
806.096	1.65
806.272	8.35
806.448	6.18
806.623	-5.51
806.799	8.9
806.975	19.81
807.151	29.03
807.327	33.07
807.503	37.06
807.678	42.97
807.854	60.32
808.03	60.86
808.206	63.91
808.381	54.33
808.557	56.92
808.733	56.09
808.908	50.51
809.084	48.58
809.26	51.79
809.435	47.05
809.611	34.57
809.787	26.71
809.962	14.92
810.138	23.57
810.313	32.88
810.489	31.36
810.664	28.98
810.84	20.35
811.015	29.25
811.191	29.45
811.366	38.4
811.542	52.92
811.717	59.5
811.892	51.19
812.068	45.22
812.243	52.61
812.419	60.92
812.594	61.57
812.769	68.85
812.944	63.65
813.12	50.13
813.295	52.49
813.47	38.76
813.645	23.29
813.821	39.91
813.996	47.81
814.171	32.26
814.346	28.88
814.521	34.76
814.697	35.35
814.872	40.57
815.047	50
815.222	50.24
815.397	52.65
815.572	57.82
815.747	56.45
815.922	48.55
816.097	58.82
816.272	59.67
816.447	58.19
816.622	57.94
816.797	49.71
816.972	51.91
817.147	44.75
817.322	57.24
817.496	60.43
817.671	60.14
817.846	60.43
818.021	51.93
818.196	53.13
818.371	51.71
818.545	56.76
818.72	62.96
818.895	63.8
819.069	71.57
819.244	66.43
819.419	64.86
819.594	57.65
819.768	57.95
819.943	60.48
820.117	57.43
820.292	55.5
820.467	51.25
820.641	49.07
820.816	47.08
820.99	44.15
821.165	40.69
821.339	41.38
821.514	42.45
821.688	42.23
821.863	39.78
822.037	40.24
822.212	37.81
822.386	38.03
822.56	37.96
822.735	38.28
822.909	39.56
823.084	43.12
823.258	39.75
823.432	40.23
823.606	37.15
823.781	39.93
823.955	40.27
824.129	45.97
824.303	47.13
824.478	46.02
824.652	46
824.826	48.4
825	44.77
825.174	47.39
825.348	44
825.523	46.3
825.697	48.55
825.871	46.94
826.045	44.61
826.219	45.25
826.393	43.82
826.567	44.21
826.741	43.41
826.915	47.07
827.089	48.27
827.263	51.84
827.437	51.98
827.611	52.79
827.784	54.69
827.958	51.63
828.132	48.78
828.306	49.26
828.48	45.47
828.654	39.49
828.827	34.1
829.001	28.36
829.175	31.25
829.349	23.23
829.522	13.53
829.696	7.19
829.87	16.55
830.044	11.76
830.217	21.42
830.391	28.26
830.565	27
830.738	21.46
830.912	27.08
831.085	29.58
831.259	46.03
831.432	49.72
831.606	55.65
831.779	49.49
831.953	56.89
832.126	44.04
832.3	39.51
832.473	40.51
832.647	42.23
832.82	43.4
832.994	39.63
833.167	32.18
833.34	34.8
833.514	31.72
833.687	33.29
833.86	33.13
834.034	37.51
834.207	29.45
834.38	29.68
834.553	39.42
834.727	35.92
834.9	34.01
835.073	40.31
835.246	29.7
835.419	37.62
835.593	45.39
835.766	41.11
835.939	31.82
836.112	39.68
836.285	34.88
836.458	32.62
836.631	30.71
836.804	41.84
836.977	38.24
837.15	38.49
837.323	34.94
837.496	37.04
837.669	37.87
837.842	52.58
838.015	83.14
838.188	86.52
838.361	63.27
838.533	70.22
838.706	53.29
838.879	55.8
839.052	61.91
839.225	47.64
839.398	17.06
839.57	18.79
839.743	29.25
839.916	23.24
840.088	25.51
840.261	41.74
840.434	54.8
840.607	74.63
840.779	62.37
840.952	44.4
841.124	72.66
841.297	73.89
841.47	82.57
841.642	89.74
841.815	89
841.987	116.05
842.16	94.29
842.332	53.66
842.505	24.38
842.677	34.45
842.85	69.69
843.022	47.14
843.194	80.07
843.367	87.79
843.539	88.86
843.712	60.9
843.884	56.19
844.056	79.18
844.229	81.59
844.401	103.89
844.573	217.77
844.745	123.49
844.918	157.74
845.09	27.21
845.262	16.27
845.434	-4.09
845.606	52.67
845.779	55.41
845.951	58.03
846.123	107.74
846.295	62.46
846.467	50.99
846.639	69.01
846.811	104.59
846.983	115.27
847.155	93.52
847.327	93.87
847.499	83.9
847.671	74.21
847.843	56.19
848.015	27.03
848.187	83.21
848.359	94.27
848.531	82.25
848.703	49.3
848.875	51.96
849.047	76.2
849.218	89.52
849.39	86.42
849.562	94.47
849.734	75.84
849.905	70.32
850.077	42.78
850.249	38.49
850.421	30.48
850.592	34.6
850.764	28.81
850.936	-3.48
851.107	-10.23
851.279	-13.89
851.451	7.87
851.622	-7.28
851.794	-10.4
851.965	4.56
852.137	0.49
852.308	1.19
852.48	-6.47
852.651	-6.9
852.823	52.66
852.994	60.2
853.166	90.46
853.337	79.59
853.509	75.47
853.68	130.86
853.851	345.71
854.023	353.03
854.194	264.97
854.365	145.28
854.537	256.52
854.708	148.21
854.879	264.15
855.05	125.57
855.222	91.08
855.393	165.17
855.564	175.37
855.735	159.15
855.906	147.25
856.078	131.03
856.249	144.86
856.42	104.32
856.591	110.56
856.762	120.85
856.933	116.75
857.104	109.92
857.275	115.36
857.446	106.65
857.617	113.12
857.788	108.74
857.959	112.17
858.13	113.35
858.301	123.36
858.472	147.58
858.643	117.46
858.814	93.03
858.985	112.3
859.155	80.48
859.326	72.96
859.497	60.77
859.668	35.66
859.839	43.54
860.009	48.3
860.18	37.75
860.351	21.47
860.522	9.2
860.692	28.77
860.863	29.6
861.034	78.03
861.204	127.35
861.375	232.54
861.546	1991.3
861.716	437.5
861.887	237.99
862.057	200
862.228	190.18
862.398	122.45
862.569	96.07
862.739	141.38
862.91	116.09
863.08	170.09
863.251	153
863.421	123.06
863.592	129.51
863.762	108.41
863.932	127.63
864.103	128.85
864.273	168.13
864.443	330.23
864.614	138.37
864.784	135.95
864.954	82.17
865.125	64.04
865.295	57.28
865.465	95.83
865.635	143.32
865.805	96.76
865.976	93.08
866.146	95.63
866.316	71.72
866.486	72.33
866.656	92.43
866.826	211.11
866.996	112.12
867.166	101.29
867.336	158
867.506	198.09
867.676	249.35
867.846	348.05
868.016	850
868.186	476.36
868.356	461.11
868.526	269.05
868.696	-207.69
868.866	-198.69
869.036	-1080.95
869.206	-79.22
869.376	44.52
869.545	-14.29
869.715	53.64
869.885	0.96
870.055	-14.11
870.224	-38.97
870.394	-12.52
870.564	-15.79
870.734	-5.92
870.903	26.02
871.073	34.23
871.243	35.16
871.412	29.05
871.582	22.14
871.751	36.78
871.921	39.81
872.091	67.28
872.26	110.57
872.43	99.34
872.599	97.86
872.769	108.86
872.938	84.73
873.108	125.86
873.277	98.99
873.446	109.96
873.616	106.67
873.785	79.68
873.955	76.16
874.124	31.98
874.293	21.81
874.463	27.7
874.632	27.48
874.801	27.56
874.971	7.43
875.14	18.2
875.309	37.2
875.478	36.8
875.647	35.66
875.817	25.09
875.986	80.29
876.155	92.92
876.324	143.01
876.493	123.7
876.662	151.38
876.831	84.31
877	75.15
877.17	65.66
877.339	50.92
877.508	51.81
877.677	38.77
877.846	28.21
878.015	17.23
878.184	5.52
878.352	-0.99
878.521	7.32
878.69	14.4
878.859	22.84
879.028	7.26
879.197	-6.43
879.366	-3.11
879.534	22.13
879.703	36.51
879.872	51.99
880.041	56.66
880.21	52.14
880.378	53.7
880.547	49.73
880.716	55.54
880.884	54.31
881.053	58.52
881.222	58.45
881.39	51.2
881.559	51.68
881.727	45.88
881.896	51.93
882.065	57.02
882.233	49.49
882.402	50.04
882.57	43.99
882.739	48.95
882.907	38.07
883.076	37.19
883.244	44.75
883.412	43.94
883.581	38.28
883.749	31.75
883.918	32.83
884.086	43.51
884.254	40.27
884.423	27.92
884.591	16.81
884.759	46.11
884.927	39.18
885.096	59.46
885.264	53.12
885.432	54.03
885.6	28.86
885.769	29.41
885.937	25.48
886.105	31.97
886.273	33.44
886.441	37.11
886.609	22.14
886.777	38.13
886.945	-0.87
887.113	-84.95
887.281	-1.61
887.449	44.62
887.617	29.05
887.785	56.77
887.953	88.68
888.121	27.13
888.289	19.57
888.457	32.25
888.625	79.27
888.793	49.77
888.961	109.26
889.129	-20.97
889.296	1800
889.464	-217.95
889.632	866.67
889.8	145.95
889.967	111.86
890.135	90.66
