Data from JASIL_3016_Reflection_01.txt Node
Date: Mon Nov 09 10:39:18 EST 2015
User: Geneva
Spectrometer: USB4E03002
Autoset integration time: false
Trigger mode: 4
Integration Time (sec): 1.000000E-1
Scans to average: 10
Electric dark correction enabled: false
Nonlinearity correction enabled: false
Boxcar width: 5
Stray light correction enabled: false
XAxis mode: Wavelengths
Stop averaging: false
Number of Pixels in Spectrum: 3648
>>>>>Begin Spectral Data<<<<<
177.575	70.08
177.794	55.56
178.014	69.46
178.233	28.14
178.452	46.86
178.672	1.75
178.891	-21.74
179.11	270.73
179.33	1545.45
179.549	251.28
179.768	128.11
179.987	266.67
180.207	-108.33
180.426	-268.66
180.645	8.3
180.864	-24.94
181.084	-14.83
181.303	-39.81
181.522	-76.52
181.741	-114.24
181.96	-219.15
182.179	-108.36
182.398	-113.58
182.618	-167.68
182.837	-268.45
183.056	-621.05
183.275	392.59
183.494	-525.56
183.713	-1482.5
183.932	-408.51
184.151	-612.12
184.37	16.75
184.589	-1616.67
184.808	186.87
185.027	104.55
185.246	24.38
185.465	17.65
185.684	34.68
185.903	1.69
186.122	-43.1
186.341	-20.4
186.56	-65.68
186.779	-363.27
186.998	198.9
187.216	102.4
187.435	68.75
187.654	65.4
187.873	59.38
188.092	106.54
188.311	62.41
188.53	68.97
188.748	67.42
188.967	0.68
189.186	141.94
189.405	-9.55
189.623	-23.36
189.842	134.92
190.061	-1940
190.28	-98.94
190.498	-266.67
190.717	-110.95
190.936	-113.79
191.154	-37.76
191.373	-49.25
191.592	-86.01
191.81	-102.18
192.029	-158.2
192.248	-190.04
192.466	-120.35
192.685	-162.07
192.904	-678.26
193.122	488.41
193.341	-7520
193.559	3175
193.778	357.95
193.996	435.71
194.215	173.4
194.433	112.84
194.652	-98.73
194.87	49.22
195.089	42.51
195.307	120.67
195.526	64.2
195.744	75.12
195.963	133.09
196.181	-470.21
196.399	-118.67
196.618	-121.9
196.836	-117.81
197.055	-202.8
197.273	-153.4
197.491	-201
197.71	-168.68
197.928	-140.55
198.146	-208.16
198.365	-276.06
198.583	-7600
198.801	312.83
199.019	272.97
199.238	158.91
199.456	162.45
199.674	172.99
199.892	137.04
200.111	116
200.329	-141.07
200.547	1325
200.765	-176.62
200.983	200.66
201.202	149.4
201.42	70.54
201.638	90.61
201.856	83.7
202.074	-127.27
202.292	-125.4
202.51	-69.44
202.728	-3550
202.946	196.97
203.165	-1094.74
203.383	686.54
203.601	1259.09
203.819	-74.42
204.037	6.25
204.255	68
204.473	266.92
204.691	207.84
204.909	-1014.29
205.127	533.33
205.345	450.98
205.562	-366.67
205.78	612
205.998	362.32
206.216	211.32
206.434	14.61
206.652	-1771.43
206.87	747.46
207.088	344.24
207.306	311.46
207.523	305.3
207.741	392.31
207.959	181.08
208.177	121.85
208.395	167.57
208.612	104.14
208.83	95.11
209.048	56.38
209.266	4.41
209.483	-200
209.701	-13.79
209.919	4050
210.136	156.36
210.354	666.67
210.572	-217.02
210.79	-358.33
211.007	291.97
211.225	197.08
211.442	960.53
211.66	-105.74
211.878	-111.84
212.095	-81.13
212.313	-166.67
212.53	-45.08
212.748	9
212.966	-151.22
213.183	-3850
213.401	2.65
213.618	52.75
213.836	96.41
214.053	75.12
214.271	28.19
214.488	34.65
214.705	21.05
214.923	101.03
215.14	51.97
215.358	56.98
215.575	51.06
215.793	119.7
216.01	-91.67
216.227	-168.52
216.445	136.49
216.662	259.18
216.879	142.26
217.097	173.24
217.314	237.1
217.531	353.45
217.749	-78.14
217.966	-66.15
218.183	18.77
218.4	19.11
218.618	37.85
218.835	30.89
219.052	38.82
219.269	31.58
219.487	56.13
219.704	42.82
219.921	52.07
220.138	152.47
220.355	126.9
220.572	1966.67
220.79	3.7
221.007	-44.85
221.224	-77.08
221.441	-41.61
221.658	130.81
221.875	82.84
222.092	67.16
222.309	48.93
222.526	3.32
222.743	-6.85
222.96	21.51
223.177	23.27
223.394	15.24
223.611	21.33
223.828	25.36
224.045	13.24
224.262	4.84
224.479	-5.71
224.696	11.14
224.913	24.68
225.13	33.91
225.347	29.98
225.564	26.17
225.781	32.57
225.997	33.59
226.214	32.1
226.431	37.1
226.648	32.41
226.865	31.11
227.082	26.31
227.298	25.17
227.515	21.03
227.732	16.43
227.949	16.44
228.165	8.46
228.382	6.85
228.599	4.06
228.816	0.17
229.032	-1.36
229.249	-9.6
229.466	-13.41
229.682	-14.86
229.899	-12.9
230.116	-4.71
230.332	-0.68
230.549	-1.65
230.765	-6.98
230.982	-6.97
231.199	-2.02
231.415	-5.05
231.632	0.38
231.848	4.57
232.065	-0.27
232.281	-8.6
232.498	-19.21
232.714	-19.29
232.931	0.17
233.147	-2.1
233.364	5.5
233.58	5.5
233.797	8.92
234.013	9.06
234.23	2.1
234.446	3.5
234.662	6.28
234.879	15.98
235.095	19.03
235.312	8.09
235.528	8.44
235.744	2.37
235.961	-1.97
236.177	-10.16
236.393	-4.78
236.61	-5.25
236.826	-3.63
237.042	4.6
237.258	-2.16
237.475	-9.34
237.691	-9.1
237.907	-6.01
238.123	-7.65
238.339	3.41
238.556	12.59
238.772	7.15
238.988	3.66
239.204	2.18
239.42	-2.42
239.636	-6.5
239.853	-4.67
240.069	-5.06
240.285	-6.59
240.501	-1.64
240.717	-1.92
240.933	-4.86
241.149	-0.54
241.365	-3.5
241.581	0.12
241.797	2.87
242.013	5.51
242.229	4.81
242.445	5.33
242.661	5.59
242.877	2.72
243.093	-1.61
243.309	-3.26
243.525	-14.25
243.741	1.05
243.957	-2.88
244.173	-3.67
244.388	-2.92
244.604	-1.19
244.82	1.11
245.036	3.12
245.252	2.82
245.468	2.54
245.683	3.27
245.899	4.65
246.115	2.16
246.331	3.73
246.547	3.59
246.762	3.77
246.978	3.49
247.194	1.97
247.409	1.26
247.625	1.3
247.841	2.04
248.057	4.44
248.272	5.92
248.488	5.4
248.703	4.15
248.919	5.57
249.135	4.82
249.35	4.19
249.566	4.33
249.782	-2.22
249.997	-2
250.213	2.72
250.428	1.37
250.644	4.3
250.859	6.87
251.075	7.15
251.29	4.94
251.506	5.57
251.721	4.14
251.937	3.4
252.152	9.1
252.368	10.01
252.583	5.27
252.798	5.34
253.014	2.68
253.229	4.25
253.445	-0.38
253.66	-3.07
253.875	-7.01
254.091	-7.03
254.306	-3.07
254.521	1.33
254.737	-4.43
254.952	0.15
255.167	0.15
255.383	-5.1
255.598	-8.22
255.813	-6.09
256.028	-4.99
256.244	0.46
256.459	2.01
256.674	3.79
256.889	-1.33
257.104	3.59
257.32	2.02
257.535	0.05
257.75	4.46
257.965	6.19
258.18	7.66
258.395	6.91
258.61	5.67
258.826	5.89
259.041	4.59
259.256	3.79
259.471	2.7
259.686	2.95
259.901	4.51
260.116	3.06
260.331	3.5
260.546	1.52
260.761	1.5
260.976	3.15
261.191	3.16
261.406	3.12
261.621	4.7
261.836	1.52
262.05	2.08
262.265	0.51
262.48	-2.88
262.695	-7.67
262.91	-5.24
263.125	-6.97
263.34	-9.66
263.555	-9.48
263.769	-10.14
263.984	-7.49
264.199	-1.1
264.414	-5.7
264.629	-8.83
264.843	-6.56
265.058	-4.41
265.273	-5.59
265.488	-5.82
265.702	-8.47
265.917	-7.01
266.132	-2.89
266.346	-0.85
266.561	-1.26
266.776	-0.58
266.99	-0.39
267.205	1.93
267.42	-1
267.634	1.13
267.849	3.1
268.063	2.56
268.278	1.12
268.492	-1.08
268.707	-4.31
268.922	-3.64
269.136	0.18
269.351	2.42
269.565	0.56
269.78	1.4
269.994	-1.83
270.209	-0.44
270.423	5.59
270.637	6.97
270.852	9.74
271.066	11.42
271.281	10.9
271.495	9.98
271.709	8.65
271.924	9.3
272.138	9.82
272.353	11.49
272.567	9.98
272.781	5.78
272.996	2.93
273.21	-0.71
273.424	-2.15
273.638	-2.53
273.853	-4.93
274.067	-4.07
274.281	-6.22
274.495	-3.29
274.71	-4.18
274.924	-1.86
275.138	0.79
275.352	-0.32
275.566	1.72
275.781	3.28
275.995	2.8
276.209	2.53
276.423	3.51
276.637	3.81
276.851	1.46
277.065	3.79
277.279	0.31
277.493	-3.44
277.707	-0.68
277.921	-1.13
278.135	-0.63
278.349	-1.36
278.563	-1.59
278.777	-1.79
278.991	-1.57
279.205	0.34
279.419	-2.47
279.633	-0.45
279.847	1.2
280.061	-0.39
280.275	-3.14
280.489	-3.46
280.703	-3.07
280.917	-0.18
281.131	-1.53
281.344	-4.53
281.558	-4.84
281.772	-5.07
281.986	-5.03
282.2	-5.64
282.414	-2.5
282.627	-0.64
282.841	-3
283.055	-1.83
283.269	-4.44
283.482	-5.49
283.696	-2.34
283.91	-2.32
284.123	-1.35
284.337	-2.34
284.551	-2.72
284.764	-4.84
284.978	-3.42
285.192	-1.11
285.405	-1.44
285.619	0.86
285.833	1.84
286.046	0.94
286.26	-2.19
286.473	-2.62
286.687	-1.4
286.9	0.06
287.114	-0.37
287.327	-2.51
287.541	-4.4
287.754	-5.8
287.968	-5.92
288.181	-5.15
288.395	-3.4
288.608	-2.1
288.822	-1.69
289.035	-2.34
289.248	-2.13
289.462	-1.31
289.675	-0.82
289.889	-2.27
290.102	-1.62
290.315	-2.52
290.529	-3.2
290.742	-2.25
290.955	-1.51
291.169	-2.05
291.382	-0.85
291.595	-0.08
291.808	1.39
292.022	0.14
292.235	0.69
292.448	0.68
292.661	0.58
292.875	1.72
293.088	-1.86
293.301	0.06
293.514	1.2
293.727	1.32
293.94	-0.08
294.153	-1.53
294.367	1
294.58	0.62
294.793	1.91
295.006	2.41
295.219	1.41
295.432	2.34
295.645	1
295.858	1.08
296.071	1.04
296.284	1.15
296.497	3.43
296.71	1.15
296.923	1.96
297.136	-0.14
297.349	-2.77
297.562	-4.35
297.775	-4.15
297.988	-3.13
298.201	-5.17
298.414	-7.3
298.626	-7.31
298.839	-9.22
299.052	-7.33
299.265	-7.59
299.478	-7.26
299.691	-3.6
299.903	0.94
300.116	-0.39
300.329	-1.86
300.542	1.68
300.755	1.53
300.967	1.39
301.18	1.06
301.393	0.4
301.605	-0.03
301.818	1.32
302.031	0.18
302.243	-2.48
302.456	-0.27
302.669	0.48
302.881	-1.18
303.094	-0.75
303.307	-0.69
303.519	-2.83
303.732	-5.8
303.944	-6.04
304.157	-4.49
304.37	-4.07
304.582	-4.46
304.795	-6.74
305.007	-4.88
305.22	-5.58
305.432	-5.99
305.645	-4.89
305.857	-3.28
306.069	-2.91
306.282	-0.65
306.494	-1.46
306.707	-2.66
306.919	-0.7
307.132	0.43
307.344	-3.29
307.556	-1.57
307.769	-1.76
307.981	-2.26
308.193	-1.33
308.406	-0.29
308.618	-1.56
308.83	-2.7
309.043	-2.05
309.255	-1.46
309.467	-2.14
309.679	0.84
309.892	0.09
310.104	1.42
310.316	2.83
310.528	0.94
310.74	2.63
310.953	3.26
311.165	2.57
311.377	4.29
311.589	3.49
311.801	5.06
312.013	4.69
312.225	5
312.437	4.19
312.649	0.13
312.862	2.07
313.074	0.49
313.286	1.45
313.498	4.11
313.71	3.42
313.922	3.56
314.134	1.87
314.346	0.17
314.558	-0.54
314.77	-1.24
314.982	2.18
315.193	3.9
315.405	6.62
315.617	4.18
315.829	6.28
316.041	7.35
316.253	7.5
316.465	7.09
316.677	8.98
316.888	7.83
317.1	8.36
317.312	4.9
317.524	3.94
317.736	2.12
317.947	3.01
318.159	2.92
318.371	3.73
318.583	5.17
318.794	8.77
319.006	6.11
319.218	7.24
319.43	6.62
319.641	10.39
319.853	8.02
320.064	7.53
320.276	7.47
320.488	5.09
320.699	4.37
320.911	3.01
321.123	0.9
321.334	2.8
321.546	4.56
321.757	7.46
321.969	8.27
322.18	11.1
322.392	13.31
322.603	13.22
322.815	12.03
323.026	9.28
323.238	10.2
323.449	8.64
323.661	10.89
323.872	8.18
324.083	8.6
324.295	7.76
324.506	5.6
324.718	5.83
324.929	5.39
325.14	5.51
325.352	5.09
325.563	2.85
325.774	2.02
325.986	1.87
326.197	3.35
326.408	3.25
326.62	2.13
326.831	2.48
327.042	3
327.253	6.2
327.464	7.58
327.676	9.98
327.887	9.94
328.098	13.03
328.309	8.74
328.52	11.88
328.732	11.6
328.943	13.28
329.154	13.66
329.365	11.03
329.576	8.86
329.787	9.22
329.998	6.5
330.209	6.73
330.42	7.71
330.631	9.89
330.842	6.92
331.053	6.43
331.264	7.58
331.475	9.65
331.686	11.03
331.897	11.21
332.108	9.56
332.319	13.27
332.53	15.32
332.741	14.89
332.952	16.08
333.163	14.14
333.374	15.67
333.585	15.52
333.795	17.55
334.006	18.02
334.217	16.18
334.428	16.16
334.639	12.91
334.849	10.42
335.06	7.08
335.271	7.83
335.482	10.57
335.692	9.65
335.903	9.02
336.114	5.47
336.325	4.23
336.535	7.76
336.746	8.24
336.957	8.1
337.167	9.15
337.378	10.02
337.589	8.17
337.799	6.67
338.01	7.3
338.22	7.37
338.431	6.96
338.642	5.76
338.852	1.2
339.063	1.01
339.273	3
339.484	2.58
339.694	3.04
339.905	3.16
340.115	2.62
340.326	2.37
340.536	0.92
340.746	2.99
340.957	3.19
341.167	6.52
341.378	6.34
341.588	6.31
341.799	6.21
342.009	9.15
342.219	9.16
342.43	10.65
342.64	10.78
342.85	11.52
343.061	9.76
343.271	9.35
343.481	8.19
343.691	7.38
343.902	6.32
344.112	7.96
344.322	6.78
344.532	8.6
344.743	8.03
344.953	8.79
345.163	9.69
345.373	11.61
345.583	11.65
345.793	12.71
346.004	14.13
346.214	16.7
346.424	15.07
346.634	14.63
346.844	13.98
347.054	12.95
347.264	11.32
347.474	10.1
347.684	7.35
347.894	7.35
348.104	7.14
348.314	5.26
348.524	3.92
348.734	5.79
348.944	5.24
349.154	5.5
349.364	8.34
349.574	10.33
349.784	9.66
349.994	10.38
350.204	13.06
350.413	11.37
350.623	11.74
350.833	10.14
351.043	8.01
351.253	7.51
351.463	5.88
351.672	5.23
351.882	3.2
352.092	4.74
352.302	4.21
352.511	3.45
352.721	5.23
352.931	6.77
353.141	7.48
353.35	9.27
353.56	12.4
353.77	13.39
353.979	11.01
354.189	10.78
354.399	12.13
354.608	14.91
354.818	12.03
355.027	9.93
355.237	9.56
355.447	11.63
355.656	10.1
355.866	7.14
356.075	6.09
356.285	7.35
356.494	9.26
356.704	8.66
356.913	6.98
357.123	8.73
357.332	9.92
357.542	10.42
357.751	7.51
357.96	8.48
358.17	9.1
358.379	10.08
358.589	11.08
358.798	9.01
359.007	9.14
359.217	9.11
359.426	10.51
359.635	9.66
359.845	9.84
360.054	10.41
360.263	9.74
360.472	10.1
360.682	9.39
360.891	8.53
361.1	9.04
361.309	7.58
361.519	6.77
361.728	6.02
361.937	6.6
362.146	5.55
362.355	7.03
362.564	7.75
362.774	7.69
362.983	7.34
363.192	8.52
363.401	7.36
363.61	8.41
363.819	9.22
364.028	8.22
364.237	9.32
364.446	10.51
364.655	8.25
364.864	10.26
365.073	10.25
365.282	10.69
365.491	10.26
365.7	12.75
365.909	13.16
366.118	14.15
366.327	15.42
366.536	16.1
366.745	16.51
366.954	18.32
367.162	16.43
367.371	16.79
367.58	16.85
367.789	15.61
367.998	15.02
368.207	15.26
368.415	14.17
368.624	12.49
368.833	11.12
369.042	9.84
369.25	8.65
369.459	9.32
369.668	7.85
369.877	6.94
370.085	8.35
370.294	8.64
370.503	6.36
370.711	6.77
370.92	7.35
371.129	6.64
371.337	7.34
371.546	9.29
371.754	8.22
371.963	10.07
372.171	11.8
372.38	12.15
372.589	11.28
372.797	13.17
373.006	13.27
373.214	12.92
373.423	13.48
373.631	13.26
373.84	11.21
374.048	11.38
374.256	10
374.465	10.22
374.673	8.23
374.882	8.88
375.09	8.43
375.298	7.5
375.507	8.77
375.715	8.47
375.923	9.32
376.132	9.84
376.34	9.53
376.548	9.91
376.757	9.67
376.965	10.96
377.173	10.14
377.381	10.18
377.59	11.21
377.798	10.91
378.006	10.67
378.214	9.87
378.423	9.59
378.631	10.18
378.839	8.94
379.047	8.49
379.255	8.42
379.463	7.52
379.671	7.37
379.879	7.33
380.088	6.53
380.296	7.36
380.504	6.07
380.712	5.47
380.92	5.27
381.128	7.39
381.336	7.28
381.544	6.85
381.752	7.2
381.96	8.21
382.168	7.54
382.376	8.9
382.584	7.65
382.791	9.77
382.999	10.41
383.207	10.58
383.415	9.89
383.623	9.29
383.831	7.91
384.039	9.48
384.247	10.08
384.454	8.83
384.662	7.44
384.87	9.32
385.078	8.35
385.285	8.31
385.493	8
385.701	7.96
385.909	8.7
386.116	9.82
386.324	8.95
386.532	6.62
386.739	7.71
386.947	8.69
387.155	7.68
387.362	7.78
387.57	7.5
387.778	6.69
387.985	6.29
388.193	5.98
388.4	6.42
388.608	6.32
388.816	6.5
389.023	6.79
389.231	6.94
389.438	6.92
389.646	5.29
389.853	5.09
390.061	5.14
390.268	6.52
390.475	6.94
390.683	6.38
390.89	5.73
391.098	7.24
391.305	7.84
391.512	8.07
391.72	8.11
391.927	8.75
392.135	8.75
392.342	9.72
392.549	8.19
392.756	8.5
392.964	10.45
393.171	10.1
393.378	9.58
393.586	9.42
393.793	8.7
394	9.97
394.207	11.2
394.414	12.06
394.622	12.12
394.829	12.42
395.036	12.59
395.243	11.53
395.45	12.19
395.657	12.64
395.864	11.75
396.072	11.87
396.279	10.74
396.486	10.3
396.693	9.72
396.9	9.33
397.107	10.06
397.314	8.72
397.521	8.31
397.728	9.42
397.935	8.39
398.142	8.15
398.349	7.7
398.556	6.4
398.763	5.16
398.97	5.65
399.177	6.63
399.383	7.78
399.59	7.76
399.797	8.78
400.004	8.6
400.211	10.02
400.418	11.2
400.625	11.17
400.831	12.05
401.038	13.36
401.245	13.37
401.452	12.87
401.658	10.62
401.865	10.96
402.072	9.92
402.279	9.77
402.485	8.12
402.692	8.73
402.899	8.62
403.105	8.5
403.312	8.36
403.519	8.51
403.725	7.29
403.932	7.55
404.138	8.26
404.345	8.01
404.552	7.82
404.758	8.47
404.965	6.98
405.171	8.04
405.378	7.37
405.584	7.14
405.791	6.83
405.997	7.9
406.204	8.6
406.41	8.94
406.617	8.88
406.823	8.75
407.029	9.11
407.236	9.87
407.442	9.6
407.649	10.19
407.855	9.32
408.061	9.46
408.268	9.21
408.474	8.17
408.68	7.11
408.887	8.34
409.093	8.77
409.299	8.07
409.505	8.26
409.712	7.97
409.918	9.35
410.124	10.97
410.33	9.75
410.537	9.96
410.743	10.51
410.949	10.67
411.155	9.72
411.361	8.21
411.567	8.64
411.773	8.64
411.98	8
412.186	6.71
412.392	6.06
412.598	6.23
412.804	6.9
413.01	7.14
413.216	6.82
413.422	6.58
413.628	6.77
413.834	6.3
414.04	6.3
414.246	5.7
414.452	6.27
414.658	6.35
414.864	7.3
415.07	6.79
415.275	5.27
415.481	5.46
415.687	5.56
415.893	5.68
416.099	5.49
416.305	5.44
416.511	6.36
416.716	6.08
416.922	5.21
417.128	4.89
417.334	5.37
417.539	6.05
417.745	5.67
417.951	6.05
418.157	6.69
418.362	7.1
418.568	7
418.774	6.82
418.979	6.43
419.185	7.38
419.391	7.31
419.596	7.23
419.802	7.22
420.008	7.59
420.213	3.16
420.419	3.11
420.624	2.94
420.83	2.81
421.035	2.55
421.241	3.01
421.446	2.45
421.652	2.52
421.857	1.98
422.063	2.43
422.268	2.53
422.474	6.11
422.679	5.46
422.885	5.2
423.09	5.06
423.295	5.11
423.501	4.97
423.706	4.72
423.911	4.64
424.117	4.65
424.322	4.33
424.527	3.94
424.733	5.06
424.938	5.63
425.143	6.03
425.349	5.94
425.554	6.1
425.759	6.19
425.964	6.83
426.169	6.89
426.375	7.02
426.58	7.27
426.785	7.3
426.99	6.6
427.195	6.21
427.4	6.52
427.605	7.06
427.811	7.27
428.016	6.88
428.221	6.51
428.426	6.05
428.631	6.1
428.836	6.24
429.041	5.61
429.246	6.03
429.451	6.31
429.656	5.12
429.861	5.27
430.066	5.24
430.271	5.11
430.476	5.55
430.681	5.96
430.886	5.99
431.09	5.98
431.295	6.59
431.5	6.75
431.705	6.52
431.91	7.07
432.115	7.27
432.32	7.16
432.524	7.26
432.729	7.02
432.934	7.54
433.139	7.22
433.343	7.28
433.548	7.04
433.753	6.36
433.958	6.75
434.162	6.52
434.367	5.7
434.572	5.51
434.776	5.89
434.981	5.08
435.186	4.19
435.39	4.68
435.595	5.09
435.799	5.31
436.004	5.38
436.209	4.98
436.413	5.04
436.618	5
436.822	4.95
437.027	4.58
437.231	5.59
437.436	5.48
437.64	5.55
437.845	5.43
438.049	5.77
438.253	6.26
438.458	6.45
438.662	6.43
438.867	6.47
439.071	6.9
439.275	7.01
439.48	6.6
439.684	7.21
439.888	7.41
440.093	6.97
440.297	6.7
440.501	6.89
440.706	6.8
440.91	7.68
441.114	7.75
441.318	7.81
441.523	7.14
441.727	7.17
441.931	6.75
442.135	6.03
442.339	5.79
442.543	6.28
442.748	5.95
442.952	6.25
443.156	5.39
443.36	5.56
443.564	5.29
443.768	6.05
443.972	6.35
444.176	6.29
444.38	6.63
444.584	7.37
444.788	7.14
444.992	7.16
445.196	6.45
445.4	6.41
445.604	6.13
445.808	6.19
446.012	6.18
446.216	5.66
446.42	5.69
446.624	5.59
446.828	4.97
447.032	5.03
447.235	4.38
447.439	4.86
447.643	5.59
447.847	5.67
448.051	5.96
448.254	5.87
448.458	6.28
448.662	7.02
448.866	7.17
449.069	7.01
449.273	6.59
449.477	7.22
449.681	8.04
449.884	7.31
450.088	7.83
450.292	8.13
450.495	8.66
450.699	8.33
450.902	8.08
451.106	7.29
451.31	8.02
451.513	8.54
451.717	8.6
451.92	7.99
452.124	8.47
452.327	8.23
452.531	7.44
452.734	7.12
452.938	7.25
453.141	6.24
453.345	6.74
453.548	6.42
453.752	5.6
453.955	5.56
454.158	4.97
454.362	4.42
454.565	4.26
454.769	4.59
454.972	4.97
455.175	4.51
455.379	5.24
455.582	5.31
455.785	5.42
455.988	5.57
456.192	5.68
456.395	6.15
456.598	6.67
456.801	6.26
457.005	6.45
457.208	5.61
457.411	6.37
457.614	6.24
457.817	6.6
458.021	6.51
458.224	6.72
458.427	6.76
458.63	6.92
458.833	6.87
459.036	7.12
459.239	6.81
459.442	7.12
459.645	6.72
459.848	6.86
460.051	6.99
460.254	6.99
460.457	7.03
460.66	6.77
460.863	6.24
461.066	5.92
461.269	6
461.472	5.54
461.675	5.24
461.878	5.33
462.081	5.39
462.284	4.81
462.486	4.76
462.689	4.68
462.892	5.12
463.095	5.29
463.298	5.32
463.5	4.95
463.703	5.37
463.906	5.9
464.109	6.25
464.311	5.87
464.514	5.72
464.717	5.71
464.92	5.89
465.122	5.52
465.325	5.38
465.528	5.51
465.73	6
465.933	6.12
466.135	6.06
466.338	5.53
466.541	5.63
466.743	5.3
466.946	5.58
467.148	5.66
467.351	5.93
467.553	6.15
467.756	6.27
467.958	6.35
468.161	6.47
468.363	6.59
468.566	6.93
468.768	7.22
468.971	7.53
469.173	7.08
469.375	6.95
469.578	6.76
469.78	6.78
469.983	6.9
470.185	7.02
470.387	6.7
470.59	5.85
470.792	5.93
470.994	5.89
471.196	6.04
471.399	6.48
471.601	6.35
471.803	6.04
472.005	6.04
472.208	5.44
472.41	5.67
472.612	5.78
472.814	6.48
473.016	7.19
473.218	7.12
473.421	6.55
473.623	6.55
473.825	6.31
474.027	6.79
474.229	6.76
474.431	6.58
474.633	6.27
474.835	6.45
475.037	6.13
475.239	5.68
475.441	5.66
475.643	5.74
475.845	5.48
476.047	5.48
476.249	5.29
476.451	5.08
476.653	6.03
476.855	5.82
477.057	6.16
477.258	6.04
477.46	6.49
477.662	6.16
477.864	6.1
478.066	6.71
478.268	7.01
478.469	6.97
478.671	7.31
478.873	6.95
479.075	6.79
479.276	6.48
479.478	6.7
479.68	6.72
479.882	7.13
480.083	7.52
480.285	7.06
480.487	6.96
480.688	7.11
480.89	6.78
481.091	6.58
481.293	6.7
481.495	6.44
481.696	6.68
481.898	6.36
482.099	6.27
482.301	6.25
482.502	6.35
482.704	6.24
482.905	6.41
483.107	6.49
483.308	6.54
483.51	6.49
483.711	6.69
483.913	6.49
484.114	6.52
484.315	6.42
484.517	6.48
484.718	6.33
484.92	6.51
485.121	6.25
485.322	6.2
485.524	6.21
485.725	6.3
485.926	6.19
486.127	6.24
486.329	6.12
486.53	6.36
486.731	6.49
486.932	6.66
487.134	6.47
487.335	6.45
487.536	6.83
487.737	6.61
487.938	6.6
488.139	6.54
488.341	6.63
488.542	6.69
488.743	6.57
488.944	6.55
489.145	6.39
489.346	6.53
489.547	6.35
489.748	5.99
489.949	6.3
490.15	6.07
490.351	6.21
490.552	6.11
490.753	6.03
490.954	6.05
491.155	5.95
491.356	5.82
491.557	5.95
491.758	6.15
491.959	6.14
492.159	5.81
492.36	6.03
492.561	6.05
492.762	6.37
492.963	6.41
493.164	6.31
493.364	6
493.565	5.8
493.766	5.94
493.967	6.08
494.167	5.98
494.368	6.27
494.569	6.08
494.769	5.69
494.97	4.85
495.171	5.47
495.371	5.78
495.572	5.71
495.773	6.12
495.973	6.07
496.174	6.21
496.375	6.21
496.575	6.1
496.776	6.63
496.976	6.78
497.177	7.28
497.377	6.77
497.578	6.07
497.778	6.29
497.979	6.44
498.179	6.47
498.38	5.82
498.58	5.79
498.78	6.03
498.981	5.56
499.181	5.22
499.382	5.61
499.582	5.46
499.782	6.13
499.983	6.58
500.183	6.3
500.383	6.24
500.584	6.81
500.784	7.34
500.984	7.08
501.184	7.06
501.385	7.36
501.585	7.34
501.785	7.31
501.985	7.13
502.185	6.87
502.386	7.44
502.586	7.19
502.786	7.08
502.986	6.67
503.186	6.95
503.386	7.61
503.586	7.83
503.786	7.59
503.987	8.03
504.187	7.95
504.387	8.03
504.587	7.72
504.787	8.08
504.987	7.89
505.187	8.43
505.387	8
505.587	7.52
505.786	7.24
505.986	7.36
506.186	7.57
506.386	7.43
506.586	7.04
506.786	7.07
506.986	6.76
507.186	7.44
507.386	7.78
507.585	8.38
507.785	8.77
507.985	9.31
508.185	9.03
508.384	9.07
508.584	9.52
508.784	9.61
508.984	9.86
509.183	10
509.383	9.67
509.583	9.05
509.782	9.21
509.982	8.84
510.182	8.88
510.381	9.16
510.581	9.03
510.781	8.93
510.98	9.53
511.18	9.47
511.379	9.72
511.579	9.73
511.778	10.37
511.978	10.3
512.177	10.61
512.377	10.44
512.576	10.81
512.776	10.7
512.975	10.83
513.175	10.45
513.374	10.59
513.573	10.72
513.773	10.67
513.972	10.53
514.172	10.27
514.371	10.5
514.57	10.36
514.77	10.32
514.969	10.65
515.168	10.79
515.367	11.17
515.567	11.02
515.766	10.76
515.965	11.07
516.164	10.87
516.364	11.32
516.563	10.98
516.762	11.14
516.961	11.37
517.16	11.01
517.359	11
517.559	10.77
517.758	10.75
517.957	11.11
518.156	11.3
518.355	11.57
518.554	11.52
518.753	11.85
518.952	12.09
519.151	11.86
519.35	12.31
519.549	13.07
519.748	13.28
519.947	13.61
520.146	13.54
520.345	13.87
520.544	13.81
520.743	14.15
520.942	14.08
521.141	14.15
521.339	14.45
521.538	15.21
521.737	14.84
521.936	15.16
522.135	15.33
522.333	15.32
522.532	14.96
522.731	14.84
522.93	14.07
523.129	14.37
523.327	14.34
523.526	14.03
523.725	13.48
523.923	13.32
524.122	13.35
524.321	13.33
524.519	13.42
524.718	13.48
524.917	13.58
525.115	14.02
525.314	13.78
525.512	13.89
525.711	14.19
525.909	14.15
526.108	13.97
526.306	14.12
526.505	14.25
526.703	14.26
526.902	14.22
527.1	14.22
527.299	14.36
527.497	14.55
527.696	14.65
527.894	14.56
528.092	14.76
528.291	14.92
528.489	14.94
528.688	14.94
528.886	15.2
529.084	15.43
529.283	15.5
529.481	15.69
529.679	15.85
529.877	15.99
530.076	16.28
530.274	16.39
530.472	16.8
530.67	16.94
530.869	16.87
531.067	16.74
531.265	16.77
531.463	16.87
531.661	16.9
531.859	16.95
532.057	16.98
532.255	17.13
532.454	17.27
532.652	17.08
532.85	17.1
533.048	17.41
533.246	17.4
533.444	17.66
533.642	18.13
533.84	18.11
534.038	18.1
534.236	17.94
534.434	17.99
534.632	17.93
534.83	18.26
535.027	18.39
535.225	18.29
535.423	18.74
535.621	18.81
535.819	18.87
536.017	18.99
536.215	19.16
536.412	19.65
536.61	19.81
536.808	19.83
537.006	19.88
537.203	19.99
537.401	20.3
537.599	20.37
537.797	20.26
537.994	20.23
538.192	20.26
538.39	20.61
538.587	20.39
538.785	20.26
538.983	20.22
539.18	20.12
539.378	19.91
539.575	20.01
539.773	19.83
539.97	20.06
540.168	19.94
540.366	20.04
540.563	19.88
540.761	19.97
540.958	19.81
541.155	20.08
541.353	20.37
541.55	20.53
541.748	20.28
541.945	20.33
542.143	20.25
542.34	20.69
542.537	20.82
542.735	21.02
542.932	20.97
543.129	21.51
543.327	21.32
543.524	20.96
543.721	21.16
543.919	21.52
544.116	21.72
544.313	21.7
544.51	21.62
544.708	21.8
544.905	21.49
545.102	21.81
545.299	21.59
545.496	21.66
545.693	22.15
545.891	22.21
546.088	22.17
546.285	22.01
546.482	22.35
546.679	22.16
546.876	22.05
547.073	22.8
547.27	22.81
547.467	23.17
547.664	23.51
547.861	23.44
548.058	23.91
548.255	24.25
548.452	24.97
548.649	24.83
548.846	25.17
549.043	25.4
549.24	25.08
549.437	25.47
549.633	25.02
549.83	25.12
550.027	25.32
550.224	25.05
550.421	24.99
550.618	24.9
550.814	25.25
551.011	25.26
551.208	24.95
551.405	25.21
551.601	24.93
551.798	25.94
551.995	26.23
552.191	26.19
552.388	26.51
552.585	26.49
552.781	26.94
552.978	26.41
553.175	26.65
553.371	27.4
553.568	27.51
553.764	27.57
553.961	27.59
554.157	27.16
554.354	27.84
554.55	27.55
554.747	28.04
554.943	27.37
555.14	28.24
555.336	28.97
555.533	28.48
555.729	28.71
555.926	28.84
556.122	28.88
556.318	29.44
556.515	28.66
556.711	29.03
556.907	29.23
557.104	29.57
557.3	29.73
557.496	28.62
557.693	28.8
557.889	28.8
558.085	29.29
558.281	28.28
558.478	28.73
558.674	29.2
558.87	29.1
559.066	28.86
559.262	29.09
559.459	28.74
559.655	29.56
559.851	29.5
560.047	30.27
560.243	30.22
560.439	31.23
560.635	30.68
560.831	31.3
561.027	31.82
561.223	31.99
561.419	32.46
561.615	32.59
561.811	32.21
562.007	31.72
562.203	30.95
562.399	30.96
562.595	30.81
562.791	30.94
562.987	30.35
563.183	30.56
563.379	30.8
563.575	29.86
563.771	30.38
563.966	30.25
564.162	30.86
564.358	30.65
564.554	30.14
564.75	29.77
564.945	29.89
565.141	29.9
565.337	29.43
565.533	29.21
565.728	29.58
565.924	28.85
566.12	29.31
566.315	29.11
566.511	29.3
566.707	29.92
566.902	30.21
567.098	29.7
567.293	29.66
567.489	29.95
567.684	30.64
567.88	30.67
568.076	30.93
568.271	30.5
568.467	30.43
568.662	30.75
568.858	30.27
569.053	30.4
569.248	31.01
569.444	30.89
569.639	30.62
569.835	29.75
570.03	29.83
570.225	29.41
570.421	29.65
570.616	29.65
570.812	29.06
571.007	29.32
571.202	29.36
571.397	29.4
571.593	29.71
571.788	29.83
571.983	29.63
572.178	30.11
572.374	30.45
572.569	30.43
572.764	31.08
572.959	31.09
573.154	30.7
573.35	30.62
573.545	30.43
573.74	29.96
573.935	29.7
574.13	30.02
574.325	29.69
574.52	30.38
574.715	30.55
574.91	30.19
575.105	30.59
575.3	31.41
575.495	31.53
575.69	32.01
575.885	32.14
576.08	32.66
576.275	32.42
576.47	32.3
576.665	31.6
576.86	31.98
577.055	32.24
577.25	31.79
577.444	31.25
577.639	31.43
577.834	31.13
578.029	31.71
578.224	31.3
578.418	32.41
578.613	32.64
578.808	33.75
579.003	32.86
579.197	33.34
579.392	34.18
579.587	34.64
579.781	35.34
579.976	35.67
580.171	35.16
580.365	35.55
580.56	35.52
580.755	35.21
580.949	34.94
581.144	35.37
581.338	35.32
581.533	35.23
581.727	35.58
581.922	34.79
582.116	34.57
582.311	34.8
582.505	34.61
582.7	34.29
582.894	34.84
583.089	35.04
583.283	35.05
583.478	33.85
583.672	33.31
583.866	32.81
584.061	33.46
584.255	33.37
584.449	33.42
584.644	34.28
584.838	34.86
585.032	34.7
585.226	35.07
585.421	35.19
585.615	36.46
585.809	37.73
586.003	37.91
586.198	37.82
586.392	37.44
586.586	36.4
586.78	35.5
586.974	35.04
587.168	35.18
587.363	34.39
587.557	34.1
587.751	33.26
587.945	32.74
588.139	32.89
588.333	32.05
588.527	32.34
588.721	33.05
588.915	33.31
589.109	33.11
589.303	32.76
589.497	31.9
589.691	32.15
589.885	32.22
590.079	32.51
590.273	32.24
590.466	32.85
590.66	32.74
590.854	33.28
591.048	33.58
591.242	33.95
591.436	33.73
591.629	34.51
591.823	34.56
592.017	34.94
592.211	34.86
592.404	34.75
592.598	34.33
592.792	33.98
592.986	33.57
593.179	33.36
593.373	32.83
593.567	33.9
593.76	33.78
593.954	33.09
594.147	32.79
594.341	32.52
594.535	32.91
594.728	32.09
594.922	32.4
595.115	33.09
595.309	32.86
595.502	33.3
595.696	32.64
595.889	33.15
596.083	33.5
596.276	33.79
596.47	33.73
596.663	33.29
596.856	33.9
597.05	34.31
597.243	34.45
597.437	35.31
597.63	35.84
597.823	36.26
598.017	35.85
598.21	37.29
598.403	37.86
598.596	38.48
598.79	39.1
598.983	39.5
599.176	38.78
599.369	38.61
599.563	37.74
599.756	37.6
599.949	37.73
600.142	37.13
600.335	35.52
600.528	35.54
600.722	35.3
600.915	34.85
601.108	34.94
601.301	35.86
601.494	35.81
601.687	36.15
601.88	35.14
602.073	35.35
602.266	36.02
602.459	35.73
602.652	35.12
602.845	35.26
603.038	35.92
603.231	35.89
603.424	35.69
603.617	35.3
603.809	35.41
604.002	35.53
604.195	35
604.388	34.78
604.581	35.94
604.774	36.05
604.966	35.96
605.159	35.26
605.352	34.91
605.545	34.49
605.737	34.54
605.93	33.76
606.123	34.62
606.316	35.22
606.508	35.18
606.701	34.23
606.894	35.16
607.086	34.98
607.279	35.18
607.471	35.67
607.664	35.25
607.857	35.57
608.049	36.44
608.242	36.19
608.434	35.83
608.627	36.47
608.819	37.35
609.012	36.94
609.204	36.73
609.397	36.67
609.589	36.54
609.782	37.03
609.974	36.56
610.166	36.17
610.359	35.92
610.551	36.32
610.743	36.02
610.936	35.08
611.128	34.96
611.32	35.13
611.513	35.18
611.705	36.31
611.897	37.25
612.09	38.03
612.282	38.18
612.474	39.42
612.666	38.84
612.858	39.06
613.051	40.32
613.243	40.7
613.435	40.97
613.627	40.66
613.819	39.73
614.011	39.13
614.203	39.26
614.395	37.95
614.588	36.18
614.78	37.55
614.972	36.75
615.164	35.71
615.356	34.61
615.548	34.87
615.74	35.16
615.932	35.39
616.124	35.78
616.315	34.91
616.507	37.38
616.699	38.63
616.891	37.78
617.083	38.4
617.275	39.03
617.467	39.73
617.659	40.4
617.85	42
618.042	42
618.234	41.64
618.426	42.14
618.618	41.97
618.809	41.81
619.001	42.24
619.193	42.2
619.384	42.15
619.576	42.39
619.768	41.73
619.959	40.89
620.151	40.78
620.343	41.63
620.534	42.91
620.726	42.78
620.917	42.28
621.109	42.29
621.301	41.51
621.492	40.97
621.684	41.51
621.875	41.95
622.067	41.71
622.258	41.77
622.45	41.5
622.641	40.78
622.832	40.77
623.024	41.31
623.215	40.82
623.407	40.66
623.598	41.06
623.789	39.89
623.981	39.83
624.172	39.49
624.363	39.67
624.555	38.57
624.746	38.46
624.937	38.24
625.129	36.67
625.32	36.11
625.511	36.51
625.702	36.3
625.893	36.21
626.085	36.37
626.276	36.09
626.467	36.46
626.658	37.34
626.849	36.91
627.04	36.36
627.231	37.84
627.422	38.32
627.614	38.49
627.805	38.17
627.996	38.05
628.187	37.04
628.378	37.38
628.569	36.31
628.76	37.01
628.951	37.54
629.142	38.2
629.332	38.17
629.523	38.84
629.714	39.51
629.905	40.15
630.096	41.38
630.287	42.1
630.478	42.43
630.669	43.17
630.859	42.67
631.05	42.96
631.241	42.7
631.432	42.51
631.623	42.93
631.813	42.22
632.004	41.8
632.195	41.46
632.385	41.44
632.576	41.33
632.767	41.95
632.957	41.07
633.148	40.89
633.339	40.13
633.529	40.67
633.72	40.2
633.91	41.54
634.101	41.28
634.292	41.21
634.482	40.92
634.673	41.31
634.863	40.66
635.054	41.93
635.244	41.58
635.435	42.18
635.625	40.51
635.815	41.11
636.006	39.47
636.196	40.51
636.387	40.21
636.577	40.39
636.767	40.44
636.958	41.03
637.148	40.9
637.338	40.45
637.529	41.22
637.719	42.54
637.909	41.95
638.099	43.4
638.29	43.04
638.48	42.55
638.67	42.33
638.86	42.73
639.05	41.22
639.241	41.34
639.431	42.1
639.621	41.95
639.811	42.85
640.001	43.15
640.191	43.5
640.381	44.76
640.571	45.06
640.761	45.58
640.951	45.27
641.141	47.41
641.331	47.4
641.521	47.35
641.711	46.87
641.901	45.68
642.091	45.71
642.281	44.49
642.471	42.8
642.661	44.02
642.851	45.09
643.041	43.99
643.231	44.39
643.42	44.1
643.61	45.07
643.8	45.07
643.99	45.83
644.18	45.04
644.369	44.98
644.559	45.1
644.749	43.91
644.939	42.75
645.128	43.55
645.318	41.58
645.508	40.97
645.697	40.52
645.887	40.49
646.076	41.44
646.266	41.42
646.456	42.6
646.645	43.2
646.835	44.61
647.024	44.33
647.214	43.66
647.403	43.35
647.593	43.77
647.782	44.01
647.972	44.57
648.161	44.08
648.351	44.88
648.54	44.84
648.73	45.17
648.919	43.67
649.108	44.41
649.298	44.3
649.487	45.14
649.677	44.9
649.866	44.11
650.055	43.26
650.244	42.73
650.434	42.24
650.623	41.33
650.812	41.75
651.002	43.26
651.191	42.36
651.38	44.05
651.569	45.78
651.758	47.45
651.947	47.22
652.137	47.19
652.326	47.31
652.515	47.25
652.704	47.39
652.893	46.85
653.082	46.49
653.271	47.15
653.46	46.79
653.649	45.37
653.838	44.09
654.027	43.77
654.216	44.55
654.405	44.12
654.594	43.53
654.783	44.29
654.972	44.84
655.161	43.94
655.35	44.14
655.539	43.65
655.728	43.51
655.916	42.54
656.105	43.61
656.294	42.66
656.483	42.05
656.672	42.57
656.86	41.66
657.049	40.6
657.238	40.92
657.427	40.12
657.615	39.86
657.804	38.23
657.993	38.24
658.181	38.35
658.37	39.07
658.559	39.35
658.747	38.73
658.936	38.65
659.125	37.77
659.313	37.66
659.502	38.32
659.69	38.13
659.879	39.65
660.067	40.22
660.256	38.99
660.444	38.22
660.633	39.1
660.821	40.13
661.01	41.45
661.198	43.63
661.387	44.78
661.575	44.84
661.763	45.22
661.952	44.94
662.14	45.63
662.328	46.6
662.517	48.47
662.705	48.05
662.893	48.25
663.082	47.44
663.27	46.22
663.458	46.63
663.646	46.71
663.834	46.83
664.023	47.12
664.211	46.33
664.399	46.3
664.587	45.62
664.775	45.25
664.963	44.71
665.152	44.26
665.34	45.77
665.528	45.04
665.716	44.87
665.904	45.13
666.092	44.38
666.28	45.67
666.468	45.91
666.656	44.15
666.844	44.04
667.032	44.36
667.22	44.61
667.408	42.58
667.596	42.32
667.784	41.67
667.971	41.35
668.159	42.32
668.347	41.46
668.535	41.44
668.723	42.79
668.911	43.92
669.098	42.51
669.286	42
669.474	44.3
669.662	44.14
669.849	44.31
670.037	44.38
670.225	44.64
670.413	45.19
670.6	45.94
670.788	45.64
670.976	44.42
671.163	45.61
671.351	46.47
671.538	46.26
671.726	46.16
671.913	45.19
672.101	46.84
672.289	46.57
672.476	45.86
672.664	45.53
672.851	46.6
673.039	46.5
673.226	46.78
673.413	45.96
673.601	46.23
673.788	45.32
673.976	45.94
674.163	46
674.35	46.66
674.538	47.99
674.725	47.77
674.912	48.04
675.1	49.45
675.287	50.28
675.474	50.63
675.662	49.03
675.849	49.16
676.036	50.28
676.223	47.53
676.411	46.85
676.598	45.11
676.785	44.73
676.972	42.8
677.159	41.64
677.346	41.46
677.533	42.17
677.721	42.12
677.908	42.49
678.095	42.26
678.282	42.53
678.469	43.2
678.656	45.59
678.843	45.96
679.03	46.9
679.217	47.93
679.404	47.7
679.591	46.73
679.778	47.59
679.964	48.29
680.151	48.55
680.338	50.05
680.525	48.77
680.712	48.28
680.899	47.82
681.086	47.16
681.272	46.74
681.459	45.68
681.646	46.57
681.833	45.35
682.02	45.72
682.206	45.84
682.393	46.07
682.58	46.48
682.766	45.29
682.953	45.29
683.14	44.54
683.326	45.02
683.513	46.36
683.7	45.41
683.886	46.45
684.073	44.38
684.259	43.54
684.446	41.34
684.632	43.16
684.819	42.74
685.005	41.48
685.192	41.48
685.378	40.66
685.565	39.71
685.751	41.12
685.938	41.38
686.124	42.55
686.31	42.89
686.497	43.39
686.683	42.78
686.87	42
687.056	43.05
687.242	43.86
687.429	43
687.615	43.45
687.801	42.6
687.987	42.47
688.174	42.61
688.36	43.13
688.546	43.7
688.732	44.56
688.918	45.52
689.105	44.96
689.291	44.49
689.477	45.01
689.663	45.16
689.849	44.8
690.035	44.9
690.221	45.83
690.407	44.35
690.593	44.79
690.779	42.92
690.965	42.95
691.151	44.74
691.337	45.51
691.523	45.35
691.709	43.95
691.895	44.59
692.081	45.65
692.267	44.02
692.453	44.95
692.639	46.26
692.825	44.42
693.011	44.98
693.196	45.08
693.382	44.91
693.568	43.74
693.754	44.75
693.94	44.33
694.125	41.49
694.311	41.38
694.497	42.98
694.682	41.7
694.868	41.38
695.054	41.24
695.239	39.3
695.425	39.46
695.611	40.2
695.796	40.42
695.982	39.76
696.168	40.06
696.353	40.48
696.539	39.96
696.724	39.47
696.91	41.67
697.095	41.91
697.281	41.76
697.466	41.23
697.652	41.19
697.837	41.27
698.023	41.35
698.208	42.28
698.393	42.87
698.579	42.15
698.764	42.74
698.949	42.03
699.135	41.51
699.32	43.35
699.505	43.38
699.691	44.98
699.876	44.88
700.061	44.91
700.246	45.9
700.432	46.7
700.617	46.77
700.802	47.99
700.987	49.54
701.172	47.5
701.358	45.09
701.543	46.07
701.728	45.36
701.913	48.04
702.098	50.01
702.283	47.99
702.468	45.57
702.653	47.26
702.838	45.02
703.023	43.13
703.208	45.09
703.393	47.23
703.578	46.72
703.763	46.8
703.948	44.49
704.133	43.63
704.318	46.13
704.503	46.57
704.688	46.39
704.873	48.04
705.057	48.92
705.242	51.28
705.427	51.1
705.612	50.75
705.797	48.43
705.981	47.48
706.166	49.61
706.351	49.1
706.536	49.66
706.72	48.1
706.905	48.15
707.09	48.32
707.274	48.63
707.459	48.12
707.644	50.23
707.828	53.46
708.013	56.21
708.197	57.07
708.382	58.02
708.567	59.61
708.751	60.59
708.936	59.03
709.12	59.36
709.305	57.77
709.489	57.03
709.673	57.26
709.858	56.03
710.042	55.4
710.227	51.56
710.411	50.87
710.596	49.99
710.78	50.43
710.964	51.69
711.149	50.03
711.333	49.09
711.517	50.19
711.702	49.62
711.886	50.45
712.07	49.14
712.254	50.79
712.438	49.56
712.623	48.59
712.807	48.28
712.991	47.7
713.175	48.85
713.359	51.59
713.544	50.8
713.728	48.62
713.912	48.55
714.096	47.5
714.28	47.8
714.464	47.85
714.648	46.86
714.832	45.81
715.016	45.04
715.2	44.61
715.384	42.25
715.568	41.89
715.752	44.14
715.936	42.1
716.12	42.55
716.304	42.36
716.488	41.77
716.671	42.81
716.855	43.49
717.039	43.43
717.223	43.33
717.407	43.64
717.59	42.47
717.774	40.1
717.958	42.88
718.142	44.18
718.325	41.27
718.509	39.84
718.693	39.75
718.877	41.8
719.06	40.07
719.244	40.08
719.428	40.65
719.611	42.35
719.795	46.2
719.978	44.3
720.162	42.33
720.345	45.97
720.529	45
720.713	48.59
720.896	44.43
721.08	47.21
721.263	43.91
721.446	42.69
721.63	40.68
721.813	37.21
721.997	34.77
722.18	36.68
722.364	35.88
722.547	36.77
722.73	33.53
722.914	38.13
723.097	36.83
723.28	38.24
723.464	36.63
723.647	39.8
723.83	38.58
724.013	40.76
724.197	39.75
724.38	38.75
724.563	38.03
724.746	36.64
724.929	34.37
725.112	36.36
725.296	39.48
725.479	40.06
725.662	39.3
725.845	42.14
726.028	40.52
726.211	38.77
726.394	39.51
726.577	42.28
726.76	44.35
726.943	44
727.126	44.03
727.309	42.16
727.492	43.67
727.675	45.55
727.858	43.52
728.041	44.91
728.224	47.38
728.407	46.78
728.589	48.29
728.772	46.95
728.955	47.72
729.138	45.88
729.321	46.53
729.503	47.28
729.686	47.25
729.869	45.91
730.052	47.74
730.234	48.19
730.417	46.34
730.6	43.56
730.782	45.21
730.965	45.67
731.148	44.57
731.33	45.53
731.513	44.97
731.695	42.89
731.878	45.47
732.061	45.53
732.243	43.66
732.426	46.14
732.608	48.04
732.791	47.02
732.973	46.17
733.156	46.3
733.338	45.13
733.52	45.96
733.703	46.46
733.885	46.62
734.068	47.15
734.25	49.89
734.432	51.89
734.615	52.12
734.797	54.12
734.979	54.26
735.162	56.9
735.344	57.48
735.526	58.53
735.708	60.59
735.891	61.08
736.073	61.9
736.255	59.92
736.437	61.76
736.619	60.01
736.802	59.37
736.984	60.46
737.166	62.17
737.348	62.88
737.53	61
737.712	60.38
737.894	61.54
738.076	61.06
738.258	62.15
738.44	59.01
738.622	62.34
738.804	60.95
738.986	57.84
739.168	55.82
739.35	56.08
739.532	57.96
739.714	58.24
739.896	57.68
740.078	55.68
740.259	56.27
740.441	58.16
740.623	57.9
740.805	56.82
740.987	60.56
741.168	62.44
741.35	62.74
741.532	62.31
741.714	61.06
741.895	63.11
742.077	66.14
742.259	66.75
742.44	69.54
742.622	69.94
742.804	76.14
742.985	75.56
743.167	72.54
743.348	73.5
743.53	73.59
743.711	73.65
743.893	71.8
744.075	70.31
744.256	71.74
744.438	68.06
744.619	66.78
744.8	66.08
744.982	65.68
745.163	66.17
745.345	65.16
745.526	69.09
745.707	71.65
745.889	70.36
746.07	67.87
746.252	66.97
746.433	68.26
746.614	67.05
746.795	64.3
746.977	65.03
747.158	68.06
747.339	66.54
747.52	66.09
747.702	66.56
747.883	68.32
748.064	72.24
748.245	71.4
748.426	69.64
748.607	72.47
748.788	72.26
748.97	73.9
749.151	73.72
749.332	74.92
749.513	73.64
749.694	74.66
749.875	72.41
750.056	70.38
750.237	68.85
750.418	70.11
750.599	64
750.78	61.15
750.96	60.18
751.141	56.12
751.322	55.39
751.503	55.44
751.684	50.67
751.865	52.76
752.046	52.5
752.226	50.88
752.407	49.52
752.588	53.86
752.769	57.81
752.949	54.07
753.13	54.5
753.311	54.61
753.492	52.3
753.672	58.25
753.853	57.25
754.034	59.67
754.214	59.07
754.395	62.83
754.575	62.84
754.756	61.77
754.937	66.17
755.117	69.27
755.298	68.75
755.478	70.2
755.659	66
755.839	65.29
756.02	64.83
756.2	64.06
756.381	59.34
756.561	56.49
756.741	57.58
756.922	53.84
757.102	50.57
757.283	50.5
757.463	50.89
757.643	47.19
757.823	43.3
758.004	41.42
758.184	46.09
758.364	45.37
758.545	44.94
758.725	39.52
758.905	41.06
759.085	39.97
759.265	39.83
759.446	36.82
759.626	39.99
759.806	37.5
759.986	38.24
760.166	31.33
760.346	36.16
760.526	36.44
760.706	39.24
760.886	38.38
761.066	36.91
761.246	35.92
761.426	37.38
761.606	37.3
761.786	38.56
761.966	34.48
762.146	36.36
762.326	36.28
762.506	34.59
762.686	34.25
762.866	33.22
763.046	34.55
763.225	33.83
763.405	31.7
763.585	30.37
763.765	31.74
763.945	35.46
764.124	35.81
764.304	37.48
764.484	42.26
764.664	41.98
764.843	46.33
765.023	48.87
765.203	55.63
765.382	62.4
765.562	66.56
765.741	72.07
765.921	75.95
766.101	78.79
766.28	80.94
766.46	77.06
766.639	76.65
766.819	75.82
766.998	79.57
767.178	79.01
767.357	74.86
767.537	72.15
767.716	70.07
767.896	67.09
768.075	68.87
768.254	65.73
768.434	69.26
768.613	69.95
768.792	72.68
768.972	70.53
769.151	66.92
769.33	70.34
769.51	69.83
769.689	72.51
769.868	68.35
770.047	64.69
770.226	65.46
770.406	65.63
770.585	68.88
770.764	62.87
770.943	60.04
771.122	59.66
771.301	63.26
771.48	63.36
771.66	57.61
771.839	66.27
772.018	69.32
772.197	65.04
772.376	63.72
772.555	60.89
772.734	62.18
772.913	67.33
773.092	71.17
773.271	70
773.449	71.29
773.628	73.14
773.807	67.24
773.986	69.53
774.165	76.58
774.344	77.96
774.523	82.85
774.701	85.39
774.88	81.54
775.059	81.64
775.238	74.28
775.417	74.32
775.595	79.39
775.774	76.67
775.953	74.38
776.131	74.4
776.31	75.08
776.489	74.28
776.667	73.53
776.846	74.56
777.025	80.57
777.203	80.01
777.382	79.93
777.56	79.86
777.739	89.31
777.917	86.56
778.096	83.69
778.274	83.68
778.453	89.69
778.631	87.81
778.81	91.28
778.988	82.57
779.166	91.37
779.345	90.41
779.523	87.84
779.702	83.93
779.88	84.69
780.058	92.85
780.237	94.32
780.415	89.51
780.593	85.71
780.771	88.87
780.95	87.04
781.128	81.76
781.306	84.64
781.484	90.86
781.662	94.03
781.841	95.11
782.019	87.83
782.197	85.4
782.375	85.31
782.553	98.99
782.731	90.45
782.909	99.63
783.087	96.95
783.265	96.57
783.443	94.72
783.621	84.81
783.799	86.8
783.977	85.01
784.155	86.64
784.333	88.31
784.511	77.06
784.689	80.41
784.867	78.17
785.045	81.52
785.223	77.05
785.4	71
785.578	74.69
785.756	79.32
785.934	80.37
786.112	77.8
786.289	71.83
786.467	77.63
786.645	75.69
786.823	77.11
787	72.99
787.178	73.2
787.356	71.76
787.533	71.66
787.711	64.46
787.889	61.94
788.066	63.36
788.244	68.32
788.421	66.37
788.599	68.96
788.776	63.48
788.954	73.79
789.131	73.09
789.309	76.79
789.486	83.38
789.664	86.06
789.841	91.06
790.019	97.1
790.196	88.19
790.373	83.19
790.551	84.44
790.728	83.96
790.906	69.1
791.083	102.49
791.26	91.78
791.437	69.54
791.615	71.84
791.792	75.27
791.969	63.7
792.146	67.61
792.324	75.45
792.501	72.61
792.678	73.19
792.855	76.7
793.032	58.35
793.209	59.42
793.387	61.88
793.564	54.52
793.741	55.36
793.918	70.06
794.095	75.33
794.272	70.68
794.449	65.69
794.626	71.04
794.803	71.63
794.98	67.27
795.157	66.44
795.334	75.54
795.511	76.51
795.688	78.59
795.864	74.52
796.041	75.85
796.218	72.23
796.395	75.03
796.572	67.59
796.749	54.56
796.925	57.89
797.102	58.19
797.279	53.65
797.456	56.53
797.632	49.98
797.809	45.65
797.986	41.74
798.162	42.19
798.339	44.64
798.516	50
798.692	57.31
798.869	53.09
799.046	59.1
799.222	67.56
799.399	62.59
799.575	69.8
799.752	65.33
799.928	71.76
800.105	79.26
800.281	77.11
800.458	74.46
800.634	76.19
800.811	79.04
800.987	70.03
801.163	64.8
801.34	66.59
801.516	56.02
801.692	55.92
801.869	56.16
802.045	48.34
802.221	51.58
802.398	50
802.574	53.77
802.75	58.51
802.926	56.6
803.103	56.33
803.279	65.68
803.455	72.75
803.631	70.74
803.807	66.3
803.983	79.59
804.16	86.47
804.336	81.14
804.512	87.45
804.688	73.57
804.864	81.19
805.04	75.86
805.216	70.22
805.392	62.48
805.568	69.63
805.744	65.55
805.92	55.34
806.096	49.79
806.272	63.85
806.448	60.99
806.623	62.68
806.799	63.82
806.975	66.51
807.151	51.22
807.327	56.48
807.503	59.72
807.678	67.06
807.854	64.25
808.03	68.53
808.206	64.28
808.381	69.26
808.557	85.25
808.733	88.78
808.908	95.65
809.084	101.68
809.26	96.09
809.435	96.79
809.611	96.05
809.787	87.45
809.962	61.51
810.138	50.25
810.313	18.57
810.489	13.15
810.664	16.95
810.84	6.39
811.015	31.53
811.191	46.82
811.366	49.87
811.542	52.46
811.717	58.35
811.892	66.96
812.068	64.61
812.243	97.03
812.419	98.21
812.594	87.5
812.769	69
812.944	53.68
813.12	45.86
813.295	42.11
813.47	32.27
813.645	28.81
813.821	38.7
813.996	48.09
814.171	46.44
814.346	66.8
814.521	44.27
814.697	55.88
814.872	47.2
815.047	54.36
815.222	52.09
815.397	47.78
815.572	70.75
815.747	57.27
815.922	42.43
816.097	35.4
816.272	23.46
816.447	31.95
816.622	20.86
816.797	22.69
816.972	17.82
817.147	15.61
817.322	26.2
817.496	24.4
817.671	29.8
817.846	33.09
818.021	40.47
818.196	39.38
818.371	45.86
818.545	52.67
818.72	55.54
818.895	52
819.069	45.63
819.244	33.72
819.419	29.32
819.594	26.06
819.768	27.11
819.943	23.66
820.117	25.53
820.292	24.75
820.467	26.17
820.641	25.37
820.816	27.44
820.99	27.56
821.165	30.15
821.339	30.54
821.514	30.72
821.688	29.79
821.863	31.41
822.037	30.08
822.212	30.33
822.386	29.52
822.56	31.54
822.735	30.72
822.909	32.5
823.084	32.43
823.258	31.62
823.432	32.7
823.606	37.46
823.781	36.23
823.955	40.99
824.129	38.04
824.303	37.61
824.478	35.95
824.652	35.53
824.826	39.56
825	38.65
825.174	35.31
825.348	37.88
825.523	34.55
825.697	34.02
825.871	31.38
826.045	36.39
826.219	37.99
826.393	41.55
826.567	37.25
826.741	33.67
826.915	33.31
827.089	34.26
827.263	31.66
827.437	31.97
827.611	36.14
827.784	37.92
827.958	36.44
828.132	41.74
828.306	35.38
828.48	49.79
828.654	62.63
828.827	66.4
829.001	83.84
829.175	92.39
829.349	86.63
829.522	84.72
829.696	90.64
829.87	100.42
830.044	101.6
830.217	97.42
830.391	101.46
830.565	72.37
830.738	72.88
830.912	53.88
831.085	45.61
831.259	53.45
831.432	50.54
831.606	42.6
831.779	32.63
831.953	35.65
832.126	39.31
832.3	39.33
832.473	42.93
832.647	41.69
832.82	39.44
832.994	38.86
833.167	38.78
833.34	39.24
833.514	33.02
833.687	32.88
833.86	36.92
834.034	34.33
834.207	29.54
834.38	29.73
834.553	35.8
834.727	44
834.9	41.31
835.073	43.9
835.246	37.67
835.419	47.48
835.593	45.27
835.766	42.69
835.939	62.5
836.112	65.05
836.285	72.02
836.458	33.77
836.631	8.21
836.804	40.05
836.977	39.94
837.15	64.91
837.323	82.19
837.496	101.96
837.669	99.19
837.842	57.03
838.015	62.63
838.188	54.48
838.361	66.84
838.533	78.98
838.706	59.1
838.879	64.67
839.052	59.47
839.225	57.41
839.398	55.56
839.57	52.75
839.743	66.45
839.916	65.19
840.088	63.98
840.261	60.8
840.434	52.27
840.607	71.3
840.779	70.29
840.952	78.94
841.124	68.01
841.297	78.88
841.47	76.26
841.642	64.4
841.815	92.21
841.987	125.16
842.16	142.94
842.332	119.3
842.505	85.28
842.677	67.57
842.85	29.2
843.022	46.86
843.194	4.94
843.367	24.58
843.539	24.61
843.712	2.9
843.884	4.89
844.056	12.2
844.229	12.53
844.401	15.89
844.573	7.21
844.745	51.25
844.918	37.04
845.09	171.36
845.262	137.97
845.434	163.4
845.606	366.07
845.779	-552.27
845.951	6850
846.123	-676.47
846.295	742.86
846.467	-860.53
846.639	-1800
846.811	572.73
846.983	236.41
847.155	417.5
847.327	414.15
847.499	209.13
847.671	194.44
847.843	231.36
848.015	292.27
848.187	232.24
848.359	157.08
848.531	176.12
848.703	211.5
848.875	175.8
849.047	750
849.218	1656.25
849.39	-214.81
849.562	5700
849.734	-1032.14
849.905	6685.71
850.077	-487.84
850.249	-265
850.421	509.52
850.592	243.09
850.764	149.8
850.936	123.03
851.107	118.61
851.279	129.04
851.451	117.53
851.622	233.52
851.794	90.32
851.965	110.43
852.137	63.35
852.308	3111.11
852.48	-263.89
852.651	-161.78
852.823	-277.78
852.994	-1574.07
853.166	3087.5
853.337	-255.56
853.509	-10.55
853.68	-2725
853.851	-202.22
854.023	-82.52
854.194	-201.69
854.365	-69.34
854.537	-59.2
854.708	-111.11
854.879	-97.86
855.05	-104.15
855.222	-33.8
855.393	55.13
855.564	85.96
855.735	101.5
855.906	95.7
856.078	119.3
856.249	94.65
856.42	145.3
856.591	192.31
856.762	-652.63
856.933	-953.85
857.104	-334.67
857.275	4825
857.446	124.62
857.617	-2033.33
857.788	7200
857.959	159.43
858.13	516.33
858.301	158.14
858.472	180
858.643	149.64
858.814	68.4
858.985	53.52
859.155	75
859.326	44.55
859.497	64.38
859.668	58.2
859.839	15.18
860.009	-72.02
860.18	12.56
860.351	35.91
860.522	41.37
860.692	60
860.863	83.29
861.034	40.94
861.204	63.86
861.375	31.01
861.546	42.76
861.716	71.43
861.887	91.82
862.057	233.82
862.228	364.29
862.398	18.02
862.569	-196.08
862.739	97.73
862.91	223.91
863.08	2300
863.251	-1328.57
863.421	-292
863.592	-1275
863.762	-18.18
863.932	46.34
864.103	186.67
864.273	206.32
864.443	216.67
864.614	162.07
864.784	173.12
864.954	105.01
865.125	56.14
865.295	72.48
865.465	102
865.635	114.43
865.805	108.91
865.976	112.05
866.146	94.65
866.316	98.84
866.486	82.1
866.656	81.93
866.826	105.26
866.996	107.44
867.166	112.97
867.336	96.95
867.506	96.76
867.676	109.44
867.846	93.14
868.016	77.65
868.186	81.96
868.356	220.48
868.526	37.37
868.696	576.47
868.866	105.97
869.036	-44.44
869.206	332.43
869.376	-603.7
869.545	1012
869.715	2119.05
869.885	-504.41
870.055	-302.56
870.224	148.71
870.394	220.3
870.564	362.79
870.734	355.36
870.903	241.67
871.073	426.06
871.243	265.05
871.412	209.63
871.582	225
871.751	-754.55
871.921	-22.15
872.091	22.84
872.26	29.2
872.43	38.88
872.599	18.18
872.769	30.56
872.938	82.3
873.108	35.93
873.277	8.06
873.446	1476.92
873.616	-23.66
873.785	74.71
873.955	143.91
874.124	169.83
874.293	238.66
874.463	1164.86
874.632	-407.25
874.801	-220
874.971	-27.85
875.14	6.08
875.309	50.91
875.478	79.67
875.647	58.17
875.817	110.15
875.986	56.75
876.155	-5100
876.324	-66.67
876.493	-46.23
876.662	-117.01
876.831	-8.64
877	-28.62
877.17	23.15
877.339	78.13
877.508	75.68
877.677	0
877.846	395.83
878.015	91.67
878.184	5.93
878.352	-616.67
878.521	64.71
878.69	92.47
878.859	123.23
879.028	69.35
879.197	68.77
879.366	58.68
879.534	53.57
879.703	56.57
879.872	45.62
880.041	36.78
880.21	45.62
880.378	49.02
880.547	32.97
880.716	26.01
880.884	25.38
881.053	26.65
881.222	20.47
881.39	14.74
881.559	17.81
881.727	15.91
881.896	11.1
882.065	2.91
882.233	12.64
882.402	21.13
882.57	24.8
882.739	25.69
882.907	19.64
883.076	28.1
883.244	25.73
883.412	22.91
883.581	19.76
883.749	36.85
883.918	38.86
884.086	17.71
884.254	23.16
884.423	26.8
884.591	35.41
884.759	43.93
884.927	55.13
885.096	54.92
885.264	41.8
885.432	55.06
885.6	41.27
885.769	49.8
885.937	31.25
886.105	35.98
886.273	27.4
886.441	15.06
886.609	27.46
886.777	14.62
886.945	11.76
887.113	45.27
887.281	69.3
887.449	69.48
887.617	48.67
887.785	90.23
887.953	76.92
888.121	161.38
888.289	296.67
888.457	546.15
888.625	353.57
888.793	-931.58
888.961	1296.88
889.129	2408.33
889.296	562.5
889.464	853.85
889.632	624.62
889.8	393.52
889.967	173.58
890.135	144.07
