Data from JASIL_3055_Reflection_01.txt Node
Date: Mon Nov 09 11:24:53 EST 2015
User: Geneva
Spectrometer: USB4E03002
Autoset integration time: false
Trigger mode: 4
Integration Time (sec): 1.000000E-1
Scans to average: 10
Electric dark correction enabled: false
Nonlinearity correction enabled: false
Boxcar width: 5
Stray light correction enabled: false
XAxis mode: Wavelengths
Stop averaging: false
Number of Pixels in Spectrum: 3648
>>>>>Begin Spectral Data<<<<<
177.575	-301.45
177.794	-116.26
178.014	-19.41
178.233	22.12
178.452	36.93
178.672	18.92
178.891	59.31
179.11	88.25
179.33	101.91
179.549	142.19
179.768	109.07
179.987	100
180.207	89.69
180.426	176.61
180.645	-186.49
180.864	-120.69
181.084	192.03
181.303	158.79
181.522	-70.83
181.741	201.47
181.96	-140.54
182.179	690.62
182.398	124.09
182.618	303.6
182.837	1865
183.056	375.56
183.275	366.67
183.494	196.31
183.713	201.4
183.932	166.88
184.151	169.92
184.37	168.32
184.589	819.35
184.808	-84.89
185.027	-27.16
185.246	13.24
185.465	100
185.684	176.14
185.903	83.33
186.122	24.06
186.341	-21.5
186.56	-219.49
186.779	-74.58
186.998	-686.11
187.216	-301.22
187.435	-353.72
187.654	-215.92
187.873	-810.81
188.092	-237.4
188.311	-184.68
188.53	-105.52
188.748	-11.92
188.967	15.29
189.186	13.19
189.405	1100
189.623	-642.11
189.842	25.99
190.061	-213.56
190.28	-165.77
190.498	-357.69
190.717	-800
190.936	253.4
191.154	127.04
191.373	75.64
191.592	83.72
191.81	105.65
192.029	66.12
192.248	33.65
192.466	-108.74
192.685	-22.95
192.904	1.03
193.122	-103.23
193.341	12.5
193.559	-57.78
193.778	66.67
193.996	60.58
194.215	89.35
194.433	117.43
194.652	204.82
194.87	202.6
195.089	407.2
195.307	-136.9
195.526	683.33
195.744	-1761.54
195.963	-536.84
196.181	-190.86
196.399	-263.48
196.618	-386.09
196.836	-890.48
197.055	300.93
197.273	282.28
197.491	169.63
197.71	191.63
197.928	255.43
198.146	238.46
198.365	135
198.583	134.47
198.801	84.55
199.019	12.56
199.238	-34.23
199.456	-105.85
199.674	-34.89
199.892	-6.64
200.111	-69.4
200.329	24.4
200.547	27.76
200.765	-14.16
200.983	-37.7
201.202	-75.19
201.42	-24.19
201.638	-11.63
201.856	20
202.074	128.83
202.292	32.23
202.51	-525
202.728	-277.27
202.946	170.91
203.165	933.33
203.383	-815
203.601	148.12
203.819	135.79
204.037	252.94
204.255	-6.67
204.473	130.16
204.691	31.11
204.909	18.39
205.127	28.57
205.345	56.69
205.562	-3.33
205.78	-666.67
205.998	74.03
206.216	212.12
206.434	-50
206.652	187.23
206.87	56.32
207.088	86.54
207.306	63.31
207.523	162.5
207.741	131.25
207.959	1157.14
208.177	64.05
208.395	87.14
208.612	4.98
208.83	-40.85
209.048	-25.87
209.266	-49.06
209.483	-35.09
209.701	-48.39
209.919	0
210.136	-11.65
210.354	5.54
210.572	2.24
210.79	251.79
211.007	-3733.33
211.225	-3.45
211.442	-1300
211.66	19.69
211.878	39.49
212.095	37.58
212.313	72.95
212.53	86.03
212.748	70.19
212.966	85.14
213.183	750
213.401	-259.26
213.618	91.57
213.836	78.38
214.053	48.74
214.271	2633.33
214.488	-92.93
214.705	65.77
214.923	114.43
215.14	138.87
215.358	113.54
215.575	99.85
215.793	87.08
216.01	104.42
216.227	125.38
216.445	136.21
216.662	154.43
216.879	134.09
217.097	604.94
217.314	1002.27
217.531	-549.02
217.749	-224.19
217.966	-64.37
218.183	-69.1
218.4	-91.51
218.618	22.03
218.835	36.99
219.052	37.76
219.269	26.58
219.487	370.83
219.704	292.59
219.921	66.25
220.138	106.35
220.355	114.69
220.572	169.1
220.79	225.73
221.007	55.76
221.224	-31.25
221.441	-1081.82
221.658	78.35
221.875	41.05
222.092	31.45
222.309	-158.57
222.526	2314.29
222.743	-103.17
222.96	-90.08
223.177	-59.29
223.394	-36.75
223.611	-23.6
223.828	-36.35
224.045	-40.35
224.262	-30.75
224.479	-43.01
224.696	-7.4
224.913	-8.63
225.13	4.48
225.347	2.27
225.564	-8.38
225.781	-7.78
225.997	-2.95
226.214	4.34
226.431	-2.55
226.648	9.52
226.865	6.84
227.082	-0.92
227.298	-6.12
227.515	-19.43
227.732	-15.22
227.949	-4.62
228.165	-6.47
228.382	-7.67
228.599	-11.35
228.816	1.88
229.032	-8.38
229.249	-3.64
229.466	-6.37
229.682	-9.3
229.899	3.67
230.116	1.55
230.332	-8.23
230.549	5.27
230.765	10.57
230.982	11.55
231.199	0.49
231.415	-0.64
231.632	11.04
231.848	19.94
232.065	25.48
232.281	23.79
232.498	14.15
232.714	12.22
232.931	2.91
233.147	-4.41
233.364	-16.32
233.58	-3.06
233.797	6.22
234.013	-31.07
234.23	-36.12
234.446	-34.87
234.662	-66.26
234.879	-13.65
235.095	3.82
235.312	13.59
235.528	17.81
235.744	19.45
235.961	35.47
236.177	23.14
236.393	24.6
236.61	41.28
236.826	45.45
237.042	39.36
237.258	31.55
237.475	27.18
237.691	33.12
237.907	40.48
238.123	46.68
238.339	30.32
238.556	36.17
238.772	39.8
238.988	17.68
239.204	19.28
239.42	18.6
239.636	18.12
239.853	16.66
240.069	13.09
240.285	5.87
240.501	1.64
240.717	-0.08
240.933	3.92
241.149	-1.34
241.365	6.68
241.581	7.8
241.797	5.25
242.013	2.64
242.229	2.07
242.445	0.15
242.661	2.3
242.877	8.51
243.093	8.88
243.309	2.78
243.525	6.26
243.741	2.88
243.957	3.86
244.173	8.93
244.388	12.34
244.604	17.81
244.82	16.86
245.036	14.5
245.252	11.25
245.468	9.95
245.683	9.23
245.899	8.53
246.115	9.11
246.331	10.09
246.547	9.18
246.762	9.1
246.978	4.15
247.194	0.21
247.409	-0.76
247.625	0
247.841	-2.7
248.057	1.43
248.272	3.53
248.488	3.85
248.703	3.93
248.919	1.41
249.135	-0.29
249.35	-3.26
249.566	7.27
249.782	2.43
249.997	-0.72
250.213	5.64
250.428	5.01
250.644	2.5
250.859	3.88
251.075	2.94
251.29	0.58
251.506	6.16
251.721	9.97
251.937	7.13
252.152	9.16
252.368	14.08
252.583	12.07
252.798	8.58
253.014	11.6
253.229	2.71
253.445	4.26
253.66	16.66
253.875	10.9
254.091	10.95
254.306	11.18
254.521	12.24
254.737	9.4
254.952	11.81
255.167	15.42
255.383	13.8
255.598	17.17
255.813	18.85
256.028	11.63
256.244	9.61
256.459	15.37
256.674	11.96
256.889	15.15
257.104	13.4
257.32	13.74
257.535	10.84
257.75	8.61
257.965	6.47
258.18	4.09
258.395	4.16
258.61	4.67
258.826	2.23
259.041	3.66
259.256	1.69
259.471	1.37
259.686	-0.38
259.901	-0.24
260.116	0.63
260.331	0.87
260.546	1.27
260.761	0.13
260.976	0.93
261.191	1.07
261.406	0.88
261.621	-0.76
261.836	3.92
262.05	3.51
262.265	3.68
262.48	9.67
262.695	10.41
262.91	10.22
263.125	12.07
263.34	8.84
263.555	4.75
263.769	-0.39
263.984	3.89
264.199	-0.95
264.414	4.97
264.629	5.01
264.843	1.62
265.058	2.22
265.273	4.15
265.488	4.92
265.702	6.9
265.917	10.06
266.132	14.69
266.346	16
266.561	16.08
266.776	13.83
266.99	15.16
267.205	9.2
267.42	9.39
267.634	8.92
267.849	7.95
268.063	2.77
268.278	-0.69
268.492	-3.25
268.707	-1.93
268.922	-2.01
269.136	-4.44
269.351	-4.3
269.565	-0.98
269.78	-0.24
269.994	-2.41
270.209	-1.63
270.423	-0.23
270.637	2.28
270.852	0.6
271.066	1.58
271.281	3.38
271.495	4.98
271.709	1
271.924	1.5
272.138	0.02
272.353	0.81
272.567	-0.69
272.781	3.08
272.996	3.12
273.21	1.81
273.424	-2.01
273.638	-6.81
273.853	-8.44
274.067	-6.39
274.281	-5.39
274.495	-3.41
274.71	-2.73
274.924	-2.03
275.138	-3.49
275.352	-7.05
275.566	-5.17
275.781	-4.18
275.995	-2.21
276.209	-0.63
276.423	-0.99
276.637	-3.92
276.851	-5.86
277.065	-5.43
277.279	-3.04
277.493	-2.45
277.707	1.2
277.921	-0.78
278.135	-0.3
278.349	1.6
278.563	1.74
278.777	1.88
278.991	6.2
279.205	5.04
279.419	3.99
279.633	4.1
279.847	3.21
280.061	1.97
280.275	7.37
280.489	3.79
280.703	2.35
280.917	2.13
281.131	3.72
281.344	1.94
281.558	1.91
281.772	1.63
281.986	0.81
282.2	-0.86
282.414	-1.24
282.627	-4.03
282.841	-0.56
283.055	-1.05
283.269	0.19
283.482	-3.41
283.696	-3.72
283.91	-3.33
284.123	-3.94
284.337	-3.4
284.551	-2.34
284.764	0.02
284.978	-2.85
285.192	-6.07
285.405	-4.18
285.619	-4.36
285.833	-3.1
286.046	-4.51
286.26	-2.87
286.473	-1.03
286.687	-3.62
286.9	-3.49
287.114	-5.61
287.327	-6.62
287.541	-3.13
287.754	-3.13
287.968	-3.06
288.181	1.38
288.395	2.12
288.608	3.61
288.822	2.53
289.035	3.97
289.248	0.73
289.462	0.39
289.675	5.17
289.889	5.85
290.102	5.55
290.315	1.43
290.529	-3.6
290.742	-4.27
290.955	-7.56
291.169	-7.92
291.382	-7.54
291.595	-2.55
291.808	0.32
292.022	2.7
292.235	3.97
292.448	4.87
292.661	7.97
292.875	12.05
293.088	11.72
293.301	13.6
293.514	13.51
293.727	12.35
293.94	11.06
294.153	9.32
294.367	8.38
294.58	4.95
294.793	3.26
295.006	0.7
295.219	0.48
295.432	2.98
295.645	2.04
295.858	2.73
296.071	3.77
296.284	5.81
296.497	8
296.71	6.32
296.923	7.17
297.136	7.06
297.349	8.68
297.562	6.67
297.775	5.59
297.988	5.86
298.201	6.02
298.414	3.54
298.626	2.39
298.839	-2.16
299.052	-0.33
299.265	1.4
299.478	2.06
299.691	3.04
299.903	4.02
300.116	4.57
300.329	3.03
300.542	3.07
300.755	6.26
300.967	6.38
301.18	10.72
301.393	8.26
301.605	7.41
301.818	6.42
302.031	6.19
302.243	5.69
302.456	6.9
302.669	9.32
302.881	8.53
303.094	8.41
303.307	7.38
303.519	2.53
303.732	4.45
303.944	2.85
304.157	5.61
304.37	6.86
304.582	7.21
304.795	6.46
305.007	3.79
305.22	2.26
305.432	1.55
305.645	-1.76
305.857	0.23
306.069	0.94
306.282	2.88
306.494	-0.59
306.707	-4.5
306.919	-5.06
307.132	-5.94
307.344	-3.47
307.556	-2.55
307.769	-0.06
307.981	4.25
308.193	6.43
308.406	4.32
308.618	3.07
308.83	5.14
309.043	7.78
309.255	9.9
309.467	10.87
309.679	12.6
309.892	15.96
310.104	13.82
310.316	14.55
310.528	13.21
310.74	14.35
310.953	14.65
311.165	13.55
311.377	13.48
311.589	11.16
311.801	11.76
312.013	8.26
312.225	5.03
312.437	6.57
312.649	7.34
312.862	7.02
313.074	9.09
313.286	10.12
313.498	9.87
313.71	12.81
313.922	14.52
314.134	13.16
314.346	12.91
314.558	14.89
314.77	11.52
314.982	11.4
315.193	11.05
315.405	10.83
315.617	8.53
315.829	8.72
316.041	4.93
316.253	5.7
316.465	6.1
316.677	8.5
316.888	4.72
317.1	9
317.312	5.45
317.524	5.78
317.736	3.88
317.947	6.22
318.159	8.82
318.371	10.06
318.583	5.57
318.794	7.48
319.006	5.97
319.218	7.1
319.43	9.01
319.641	11.34
319.853	15.04
320.064	16.05
320.276	16.08
320.488	18.1
320.699	15.75
320.911	21.52
321.123	21.41
321.334	21.03
321.546	20.44
321.757	20.42
321.969	18.75
322.18	15.51
322.392	13.32
322.603	10.84
322.815	6.65
323.026	7.66
323.238	7.69
323.449	4.82
323.661	8.42
323.872	10.87
324.083	6.25
324.295	5.48
324.506	5.22
324.718	5.47
324.929	8.32
325.14	9.26
325.352	12.32
325.563	7.65
325.774	12.62
325.986	8.01
326.197	6.56
326.408	9.18
326.62	8.66
326.831	9.21
327.042	9.39
327.253	8.9
327.464	10.8
327.676	7.26
327.887	12.53
328.098	6.85
328.309	8.65
328.52	10.07
328.732	9.86
328.943	8.1
329.154	9.8
329.365	9.86
329.576	11.14
329.787	9.11
329.998	11.5
330.209	7.75
330.42	12.14
330.631	11.82
330.842	11.79
331.053	11.93
331.264	13.86
331.475	13.82
331.686	13.66
331.897	14.74
332.108	14.99
332.319	15.09
332.53	16.8
332.741	16.77
332.952	15.33
333.163	13.35
333.374	13.49
333.585	13.5
333.795	12.2
334.006	12.34
334.217	11.61
334.428	13.29
334.639	12.41
334.849	9.37
335.06	9.08
335.271	11.33
335.482	14.36
335.692	13.8
335.903	16.76
336.114	14.82
336.325	16.05
336.535	13.59
336.746	12.06
336.957	12.27
337.167	18.98
337.378	19.6
337.589	20.12
337.799	17.27
338.01	16.07
338.22	13.12
338.431	16.27
338.642	13.21
338.852	14.8
339.063	14.61
339.273	15.21
339.484	11.83
339.694	10.74
339.905	9.2
340.115	9.89
340.326	10.3
340.536	13.41
340.746	12.15
340.957	14.77
341.167	15.67
341.378	16.29
341.588	17.04
341.799	17.01
342.009	16.92
342.219	18.13
342.43	19.1
342.64	19.92
342.85	18.35
343.061	20.63
343.271	20.24
343.481	20.78
343.691	22.13
343.902	21.15
344.112	20.51
344.322	21.17
344.532	19.17
344.743	18.62
344.953	19.55
345.163	19.8
345.373	17.94
345.583	18.53
345.793	16.75
346.004	16.78
346.214	15.52
346.424	16.83
346.634	15.51
346.844	16.4
347.054	16.54
347.264	15.12
347.474	16.31
347.684	15.9
347.894	14.06
348.104	13.49
348.314	13.86
348.524	13.45
348.734	11.26
348.944	13.48
349.154	12.84
349.364	14.88
349.574	13.17
349.784	12.71
349.994	12.12
350.204	13.68
350.413	15.24
350.623	13.52
350.833	14.72
351.043	15.78
351.253	15.69
351.463	16.5
351.672	14.83
351.882	17.83
352.092	16.61
352.302	16.73
352.511	17.38
352.721	16.14
352.931	14.69
353.141	16.18
353.35	15.69
353.56	14.65
353.77	13.86
353.979	13.66
354.189	13
354.399	12.29
354.608	14.26
354.818	12.73
355.027	12.96
355.237	13.85
355.447	13.41
355.656	14.69
355.866	15.26
356.075	15.56
356.285	16.7
356.494	16.48
356.704	16.33
356.913	15.54
357.123	16.19
357.332	16.79
357.542	15.7
357.751	15.39
357.96	14.39
358.17	11.95
358.379	13.1
358.589	12.04
358.798	12.92
359.007	14.13
359.217	14.28
359.426	13.65
359.635	13.78
359.845	16.2
360.054	16.45
360.263	15.66
360.472	17.21
360.682	16.26
360.891	16.03
361.1	16.77
361.309	15.46
361.519	15.55
361.728	13.19
361.937	14.16
362.146	13.43
362.355	12.83
362.564	14.92
362.774	14.33
362.983	14.21
363.192	15.23
363.401	14.3
363.61	15.23
363.819	14.38
364.028	17.33
364.237	15.37
364.446	14.33
364.655	14.08
364.864	12.39
365.073	12.63
365.282	14.26
365.491	12.34
365.7	12.28
365.909	10.59
366.118	11.41
366.327	10.86
366.536	12.65
366.745	13.6
366.954	13.25
367.162	14.71
367.371	14.85
367.58	13.85
367.789	15.99
367.998	15.47
368.207	15.91
368.415	16.05
368.624	15.46
368.833	14.77
369.042	14.05
369.25	15.34
369.459	15.7
369.668	15.41
369.877	14.09
370.085	13.83
370.294	13.33
370.503	14.57
370.711	13.04
370.92	14.55
371.129	13.77
371.337	14.27
371.546	14.61
371.754	13.94
371.963	14.22
372.171	13.82
372.38	12.64
372.589	13.38
372.797	12.28
373.006	13.53
373.214	14.09
373.423	14.21
373.631	14.08
373.84	12.08
374.048	10.72
374.256	10.95
374.465	12.18
374.673	12.06
374.882	11.11
375.09	11.46
375.298	11.77
375.507	10.3
375.715	11.33
375.923	9.37
376.132	12.18
376.34	13.57
376.548	10.89
376.757	12.1
376.965	13.18
377.173	14.19
377.381	15.6
377.59	15.66
377.798	15.7
378.006	14.66
378.214	16.58
378.423	15.29
378.631	13.98
378.839	16.24
379.047	14.49
379.255	14.33
379.463	13.38
379.671	11.52
379.879	10.3
380.088	11.52
380.296	10.91
380.504	9.38
380.712	8.43
380.92	8.41
381.128	7.7
381.336	8.75
381.544	8.56
381.752	10.54
381.96	11.36
382.168	11.75
382.376	10.7
382.584	10.25
382.791	11.94
382.999	12.38
383.207	12.27
383.415	11.93
383.623	11.68
383.831	10.53
384.039	7.87
384.247	9.16
384.454	8.36
384.662	8.09
384.87	9.35
385.078	8.29
385.285	8
385.493	10.29
385.701	10.83
385.909	9.52
386.116	10.04
386.324	11.49
386.532	11.49
386.739	11.91
386.947	12.53
387.155	11.87
387.362	11.81
387.57	12.16
387.778	10.25
387.985	9.15
388.193	9.4
388.4	9.01
388.608	9.37
388.816	7.52
389.023	8.86
389.231	9.2
389.438	9.67
389.646	11.07
389.853	11.16
390.061	11.15
390.268	11.51
390.475	11.65
390.683	12.49
390.89	12.13
391.098	13.53
391.305	11.99
391.512	11.5
391.72	10.78
391.927	10.32
392.135	10.23
392.342	10.57
392.549	12.49
392.756	13.51
392.964	13.33
393.171	14.07
393.378	15.12
393.586	15.53
393.793	14.81
394	15.46
394.207	14.69
394.414	14.16
394.622	13.94
394.829	11.95
395.036	12.03
395.243	12.26
395.45	10.43
395.657	9.13
395.864	10.65
396.072	11.28
396.279	12.88
396.486	13.39
396.693	13.76
396.9	13.73
397.107	15.34
397.314	15.76
397.521	14.72
397.728	15.09
397.935	13.31
398.142	11.99
398.349	10.27
398.556	8.5
398.763	7.7
398.97	7.64
399.177	8.44
399.383	6.96
399.59	5.23
399.797	5.33
400.004	6.66
400.211	7.63
400.418	8.9
400.625	9.32
400.831	8.88
401.038	9.59
401.245	9.26
401.452	8.98
401.658	10.05
401.865	10.37
402.072	10.39
402.279	8.84
402.485	8.38
402.692	7.97
402.899	9.71
403.105	9.58
403.312	10.17
403.519	10.63
403.725	10.58
403.932	10.83
404.138	10.8
404.345	11.47
404.552	12.13
404.758	13.13
404.965	12.99
405.171	12.68
405.378	13.52
405.584	12.87
405.791	12.2
405.997	12.27
406.204	11.13
406.41	11.18
406.617	9.93
406.823	10.28
407.029	10.06
407.236	9.42
407.442	8.44
407.649	8.67
407.855	8.43
408.061	9.49
408.268	9.37
408.474	9.87
408.68	10.14
408.887	11.05
409.093	11.09
409.299	10.09
409.505	11.26
409.712	11.95
409.918	10.34
410.124	11.36
410.33	10.79
410.537	10.43
410.743	10.57
410.949	11.25
411.155	10.96
411.361	10.94
411.567	11.53
411.773	10.92
411.98	11.8
412.186	12.74
412.392	11.92
412.598	11.27
412.804	12
413.01	11.56
413.216	11.1
413.422	10.65
413.628	11.21
413.834	11.57
414.04	11.08
414.246	9.94
414.452	10
414.658	9.39
414.864	10.58
415.07	9.97
415.275	9.63
415.481	9.22
415.687	9.46
415.893	8.88
416.099	8.52
416.305	9.1
416.511	9.83
416.716	10.3
416.922	10.92
417.128	11.07
417.334	11.55
417.539	12.35
417.745	13
417.951	12.75
418.157	13
418.362	12.38
418.568	13.09
418.774	12.58
418.979	12.29
419.185	12.33
419.391	11.55
419.596	11.24
419.802	10.56
420.008	9.97
420.213	5.85
420.419	5.18
420.624	6.01
420.83	5.18
421.035	5.22
421.241	5.56
421.446	5.62
421.652	5.66
421.857	5.69
422.063	5.92
422.268	5.76
422.474	10.33
422.679	10.72
422.885	10.47
423.09	10.26
423.295	10.37
423.501	10.29
423.706	10.01
423.911	9.87
424.117	9.77
424.322	9.73
424.527	9.92
424.733	10.03
424.938	10.18
425.143	9.97
425.349	9.53
425.554	9.44
425.759	8.57
425.964	8.4
426.169	9.04
426.375	9.12
426.58	9.61
426.785	10.08
426.99	10.23
427.195	9.67
427.4	9.67
427.605	10.19
427.811	10.17
428.016	10.98
428.221	11.01
428.426	10.38
428.631	10.63
428.836	11.06
429.041	10.62
429.246	10.27
429.451	10.34
429.656	10.81
429.861	11.56
430.066	11.7
430.271	11.36
430.476	11.53
430.681	11.37
430.886	10.54
431.09	10.39
431.295	10.5
431.5	11.03
431.705	11.33
431.91	10.58
432.115	10.54
432.32	10.62
432.524	10.69
432.729	10.78
432.934	10.86
433.139	10.91
433.343	10.55
433.548	11.06
433.753	10.16
433.958	9.53
434.162	10.09
434.367	9.98
434.572	9.65
434.776	9.38
434.981	9.61
435.186	10.46
435.39	11.07
435.595	11.3
435.799	10.51
436.004	10.82
436.209	10.9
436.413	11.17
436.618	10.76
436.822	11.05
437.027	11.24
437.231	11.13
437.436	10.92
437.64	10.45
437.845	10.17
438.049	10.65
438.253	10.89
438.458	10.65
438.662	9.84
438.867	9.84
439.071	9.22
439.275	9.66
439.48	10.18
439.684	9.48
439.888	9.54
440.093	9.84
440.297	10.28
440.501	9.99
440.706	10.07
440.91	10.43
441.114	10.44
441.318	10.86
441.523	10.76
441.727	9.7
441.931	10.69
442.135	10.66
442.339	10.61
442.543	9.83
442.748	9.77
442.952	10
443.156	10.07
443.36	10.35
443.564	10.57
443.768	10.31
443.972	10.21
444.176	9.47
444.38	10.02
444.584	9.66
444.788	9.53
444.992	10
445.196	10.24
445.4	10.48
445.604	9.93
445.808	10.15
446.012	10.22
446.216	10.53
446.42	11.02
446.624	10.79
446.828	10.85
447.032	10.97
447.235	10.81
447.439	10.21
447.643	9.72
447.847	9.97
448.051	9.72
448.254	9.67
448.458	10.02
448.662	9.65
448.866	10.15
449.069	10.31
449.273	10.34
449.477	10.87
449.681	11.79
449.884	11.89
450.088	12.32
450.292	11.34
450.495	11.25
450.699	11.13
450.902	10.88
451.106	10.07
451.31	9.79
451.513	9.38
451.717	8.39
451.92	8.1
452.124	8.17
452.327	7.29
452.531	7.96
452.734	8.22
452.938	7.85
453.141	7.79
453.345	7.72
453.548	7.21
453.752	7.62
453.955	8.15
454.158	8.26
454.362	8.55
454.565	8.75
454.769	8.94
454.972	8.21
455.175	7.93
455.379	8.5
455.582	8.8
455.785	10.15
455.988	9.61
456.192	9.25
456.395	9.49
456.598	9.53
456.801	9.69
457.005	9.81
457.208	9.98
457.411	9.85
457.614	9.24
457.817	9.18
458.021	8.7
458.224	8.81
458.427	9.16
458.63	8.66
458.833	8.25
459.036	7.9
459.239	7.5
459.442	7.49
459.645	7.76
459.848	8.41
460.051	8.47
460.254	8.34
460.457	8.71
460.66	8.09
460.863	8.29
461.066	8.65
461.269	9.15
461.472	9.28
461.675	9.5
461.878	9.77
462.081	9.44
462.284	9.73
462.486	9.27
462.689	9.15
462.892	9.67
463.095	9.5
463.298	10.03
463.5	10.25
463.703	11.18
463.906	11.2
464.109	11.36
464.311	11.51
464.514	11.23
464.717	11.94
464.92	11.68
465.122	11.25
465.325	11.65
465.528	11.65
465.73	12.09
465.933	11.57
466.135	11.3
466.338	10.75
466.541	10.59
466.743	10.6
466.946	10.02
467.148	10.39
467.351	10.19
467.553	10.34
467.756	9.84
467.958	8.74
468.161	8.55
468.363	9.05
468.566	9.12
468.768	9.15
468.971	9.51
469.173	10.27
469.375	9.8
469.578	10.44
469.78	10.37
469.983	10.89
470.185	12.22
470.387	12.42
470.59	12.37
470.792	12.37
470.994	12.52
471.196	11.69
471.399	10.72
471.601	10.39
471.803	10.6
472.005	10.46
472.208	10.96
472.41	10.21
472.612	9.94
472.814	9.07
473.016	9.03
473.218	8.69
473.421	9
473.623	9.78
473.825	10.23
474.027	9.66
474.229	9.98
474.431	9.5
474.633	9.27
474.835	10.19
475.037	10.53
475.239	10.82
475.441	10.76
475.643	10.52
475.845	10.14
476.047	10.3
476.249	10.43
476.451	10.34
476.653	9.53
476.855	9.23
477.057	8.99
477.258	9.58
477.46	9.76
477.662	9.63
477.864	9.92
478.066	10.4
478.268	10.34
478.469	10.51
478.671	9.89
478.873	10.17
479.075	10
479.276	9.93
479.478	9.42
479.68	9.31
479.882	9.84
480.083	10.01
480.285	9.7
480.487	9.74
480.688	9.56
480.89	9.78
481.091	10.22
481.293	10.76
481.495	10.63
481.696	10.85
481.898	10.67
482.099	10.66
482.301	10.54
482.502	10.67
482.704	10.57
482.905	10.52
483.107	10.69
483.308	10.5
483.51	10.32
483.711	10.33
483.913	10.17
484.114	10.26
484.315	10.25
484.517	10.23
484.718	10.06
484.92	10.24
485.121	10.39
485.322	10.34
485.524	10.36
485.725	10.57
485.926	10.63
486.127	10.69
486.329	10.51
486.53	10.53
486.731	10.45
486.932	10.66
487.134	10.53
487.335	10.71
487.536	10.6
487.737	10.56
487.938	10.5
488.139	10.37
488.341	10.42
488.542	10.62
488.743	10.2
488.944	10.31
489.145	10.28
489.346	10.37
489.547	10.19
489.748	10.36
489.949	10.31
490.15	10.11
490.351	10.17
490.552	10.04
490.753	9.97
490.954	10.43
491.155	10.33
491.356	10.56
491.557	10.61
491.758	10.56
491.959	10.58
492.159	10.64
492.36	11.01
492.561	11.09
492.762	10.98
492.963	10.88
493.164	10.77
493.364	10.98
493.565	10.54
493.766	10.28
493.967	10.22
494.167	9.99
494.368	9.77
494.569	9.97
494.769	9.84
494.97	10.07
495.171	10.39
495.371	10.12
495.572	10.35
495.773	10.32
495.973	10.8
496.174	11.24
496.375	11.08
496.575	11.35
496.776	11.07
496.976	10.97
497.177	10.86
497.377	10.56
497.578	10.32
497.778	9.99
497.979	9.74
498.179	9.99
498.38	9.25
498.58	9.47
498.78	9.36
498.981	9.29
499.181	9.06
499.382	9.32
499.582	9.52
499.782	9.97
499.983	10.41
500.183	10.64
500.383	9.98
500.584	10.32
500.784	10.51
500.984	10.58
501.184	10.77
501.385	10.81
501.585	10.69
501.785	10.31
501.985	10.04
502.185	9.78
502.386	9.82
502.586	9.66
502.786	9.51
502.986	9.03
503.186	9.11
503.386	9.26
503.586	9.56
503.786	10.33
503.987	10.88
504.187	10.65
504.387	10.64
504.587	10.53
504.787	10.63
504.987	10.78
505.187	11.24
505.387	11.28
505.587	11.24
505.786	11.19
505.986	11.14
506.186	10.95
506.386	11.1
506.586	11.17
506.786	11.58
506.986	12.09
507.186	11.9
507.386	11.55
507.585	11.85
507.785	11.53
507.985	11.5
508.185	11.54
508.384	11.61
508.584	11.68
508.784	11.46
508.984	10.97
509.183	11.09
509.383	10.87
509.583	11.27
509.782	11.62
509.982	12.06
510.182	12.23
510.381	11.84
510.581	11.76
510.781	12.14
510.98	12.24
511.18	12.61
511.379	12.58
511.579	13.05
511.778	12.52
511.978	11.89
512.177	12.47
512.377	12.51
512.576	12.53
512.776	12.77
512.975	12.56
513.175	12.89
513.374	13.02
513.573	13.23
513.773	13.74
513.972	14.49
514.172	14.79
514.371	14.23
514.57	14.78
514.77	14.94
514.969	15.19
515.168	15.59
515.367	15.59
515.567	15.71
515.766	15.35
515.965	15.13
516.164	15.27
516.364	15.02
516.563	14.8
516.762	14.24
516.961	14.35
517.16	14.44
517.359	14.28
517.559	14.3
517.758	14.46
517.957	14.53
518.156	13.96
518.355	13.39
518.554	13.71
518.753	13.74
518.952	14.05
519.151	13.69
519.35	13.46
519.549	13.84
519.748	13.66
519.947	13.31
520.146	13.63
520.345	14.46
520.544	14.88
520.743	14.9
520.942	15.02
521.141	15.5
521.339	15.83
521.538	16.08
521.737	16.16
521.936	16.77
522.135	16.76
522.333	16.4
522.532	16.71
522.731	17.12
522.93	17
523.129	17.06
523.327	16.86
523.526	17.12
523.725	17.03
523.923	16.89
524.122	16.86
524.321	17.2
524.519	17.39
524.718	16.88
524.917	16.84
525.115	17.09
525.314	17.08
525.512	16.76
525.711	16.81
525.909	16.57
526.108	16.5
526.306	16.7
526.505	16.81
526.703	16.98
526.902	17.07
527.1	16.91
527.299	16.96
527.497	17
527.696	17.06
527.894	16.96
528.092	17.21
528.291	17.19
528.489	17.24
528.688	17.06
528.886	16.91
529.084	17.27
529.283	17.57
529.481	17.6
529.679	17.9
529.877	18.18
530.076	18.26
530.274	18.3
530.472	18.55
530.67	18.42
530.869	18.46
531.067	18.7
531.265	18.53
531.463	18.54
531.661	18.69
531.859	18.59
532.057	18.69
532.255	19.01
532.454	18.97
532.652	18.95
532.85	19
533.048	19.42
533.246	19.49
533.444	19.8
533.642	19.61
533.84	19.42
534.038	19.25
534.236	19.35
534.434	19.39
534.632	19.75
534.83	19.86
535.027	19.71
535.225	19.31
535.423	19.18
535.621	18.82
535.819	19.1
536.017	19.51
536.215	19.85
536.412	19.45
536.61	19.37
536.808	19.65
537.006	19.67
537.203	19.96
537.401	20.28
537.599	20.44
537.797	20.57
537.994	20.35
538.192	20.16
538.39	20.26
538.587	21.04
538.785	21.09
538.983	20.95
539.18	20.77
539.378	20.89
539.575	21.08
539.773	21.1
539.97	21.12
540.168	21.16
540.366	21.19
540.563	21.22
540.761	20.7
540.958	20.98
541.155	21.07
541.353	21.24
541.55	21.26
541.748	21.16
541.945	20.98
542.143	20.87
542.34	20.89
542.537	21.07
542.735	21.17
542.932	21.68
543.129	21.29
543.327	20.93
543.524	21.19
543.721	21.13
543.919	21.36
544.116	21.48
544.313	21.96
544.51	22.39
544.708	22.33
544.905	22.45
545.102	22.42
545.299	22.68
545.496	22.77
545.693	22.76
545.891	22.91
546.088	23.04
546.285	22.97
546.482	22.68
546.679	22.23
546.876	22.02
547.073	22.35
547.27	22.41
547.467	21.95
547.664	22.13
547.861	22.43
548.058	21.79
548.255	21.8
548.452	22.47
548.649	22.57
548.846	22.78
549.043	23.18
549.24	22.39
549.437	22.31
549.633	22.23
549.83	22.12
550.027	21.97
550.224	22.37
550.421	21.87
550.618	22.18
550.814	22
551.011	22.01
551.208	21.83
551.405	21.97
551.601	22.01
551.798	22.42
551.995	22.9
552.191	22.21
552.388	22.47
552.585	23.06
552.781	22.78
552.978	23.31
553.175	23.67
553.371	23.65
553.568	23.71
553.764	23.68
553.961	24.03
554.157	23.85
554.354	24.76
554.55	24.7
554.747	24.26
554.943	24.15
555.14	23.99
555.336	23.15
555.533	24.14
555.729	24.9
555.926	24.64
556.122	23.97
556.318	24.01
556.515	24.26
556.711	24.57
556.907	23.82
557.104	23.46
557.3	23.56
557.496	25.04
557.693	24.18
557.889	23.7
558.085	24.1
558.281	25.06
558.478	24.93
558.674	23.93
558.87	24.18
559.066	25.04
559.262	25.39
559.459	25.23
559.655	24.92
559.851	25.08
560.047	25.28
560.243	25.82
560.439	25.72
560.635	26.25
560.831	27.34
561.027	26.59
561.223	27.08
561.419	26.97
561.615	27.46
561.811	27.14
562.007	26.85
562.203	26.74
562.399	26.64
562.595	26.75
562.791	26.43
562.987	25.77
563.183	26.29
563.379	25.37
563.575	25.55
563.771	25.51
563.966	25.29
564.162	25.57
564.358	25.47
564.554	25.12
564.75	25.16
564.945	25.47
565.141	25.55
565.337	25.15
565.533	25.67
565.728	25.87
565.924	26.02
566.12	26.9
566.315	27.12
566.511	27.37
566.707	27.77
566.902	27.79
567.098	27.67
567.293	27.74
567.489	27.89
567.684	28.57
567.88	29.16
568.076	29.01
568.271	28.78
568.467	28.62
568.662	28.64
568.858	28.61
569.053	28.15
569.248	28.09
569.444	28.12
569.639	28.79
569.835	28.03
570.03	27.71
570.225	27.58
570.421	27.11
570.616	26.85
570.812	26.83
571.007	27.1
571.202	27.31
571.397	27.25
571.593	27.78
571.788	27.21
571.983	27.39
572.178	26.88
572.374	26.76
572.569	26.93
572.764	27.05
572.959	26.56
573.154	26.72
573.35	27.09
573.545	26.48
573.74	26.42
573.935	27.06
574.13	27.16
574.325	27.35
574.52	27.8
574.715	28.35
574.91	28.97
575.105	29.45
575.3	29.36
575.495	29.15
575.69	29.99
575.885	28.95
576.08	28.52
576.275	28.37
576.47	28.4
576.665	28.36
576.86	27.6
577.055	27.34
577.25	27.09
577.444	26.33
577.639	26.62
577.834	26.65
578.029	27.64
578.224	27.89
578.418	28.21
578.613	28.32
578.808	27.96
579.003	28.21
579.197	28.55
579.392	28.82
579.587	30.02
579.781	29.55
579.976	29.31
580.171	28.76
580.365	29.28
580.56	29.25
580.755	29.47
580.949	29.96
581.144	30.04
581.338	28.95
581.533	29.31
581.727	28.51
581.922	28.37
582.116	28.13
582.311	29.08
582.505	28.12
582.7	28.36
582.894	28.25
583.089	28.17
583.283	28.34
583.478	28.64
583.672	28.04
583.866	28.26
584.061	28.2
584.255	28.07
584.449	27.16
584.644	27.75
584.838	27.25
585.032	26.8
585.226	26.14
585.421	26.55
585.615	27.86
585.809	28.21
586.003	27.94
586.198	28.21
586.392	28.04
586.586	28.03
586.78	28.09
586.974	28.79
587.168	28.65
587.363	28.75
587.557	27.83
587.751	27.49
587.945	27.58
588.139	27.48
588.333	26.78
588.527	27.8
588.721	28.02
588.915	27.25
589.109	26.97
589.303	27.19
589.497	27.07
589.691	27.21
589.885	26.65
590.079	26.05
590.273	26.47
590.466	27.55
590.66	27.48
590.854	28.04
591.048	27.61
591.242	27.27
591.436	27.64
591.629	28.13
591.823	28.36
592.017	28.34
592.211	29.07
592.404	28.51
592.598	28.85
592.792	28.2
592.986	27.59
593.179	28.57
593.373	28.72
593.567	29.37
593.76	29.66
593.954	28.79
594.147	28.97
594.341	28.92
594.535	29.51
594.728	29.66
594.922	29.45
595.115	29.8
595.309	29.44
595.502	29.03
595.696	28.05
595.889	28.25
596.083	29.01
596.276	29.24
596.47	28.9
596.663	28.54
596.856	27.61
597.05	28.09
597.243	28.18
597.437	28.52
597.63	28.94
597.823	29.29
598.017	29.17
598.21	29.86
598.403	29.56
598.596	29.84
598.79	29.77
598.983	29.82
599.176	30.2
599.369	29.57
599.563	30.1
599.756	30.65
599.949	30.22
600.142	30.07
600.335	29.1
600.528	28.78
600.722	29.56
600.915	29.37
601.108	29.99
601.301	29.57
601.494	29.42
601.687	29.27
601.88	28.62
602.073	29.4
602.266	29.3
602.459	29.35
602.652	29.51
602.845	29.19
603.038	29.93
603.231	29.89
603.424	30.08
603.617	29.73
603.809	29.41
604.002	29.85
604.195	30.65
604.388	30.47
604.581	31.02
604.774	31.3
604.966	30.88
605.159	30.64
605.352	30.28
605.545	30.23
605.737	31.2
605.93	31.21
606.123	30.6
606.316	29.23
606.508	29.74
606.701	29.93
606.894	30.33
607.086	30.83
607.279	31
607.471	31.48
607.664	31.75
607.857	31.27
608.049	31.44
608.242	31.45
608.434	31.37
608.627	31.27
608.819	31.34
609.012	30.97
609.204	30.34
609.397	30.24
609.589	30.16
609.782	29.74
609.974	29.46
610.166	29.34
610.359	29.61
610.551	29.88
610.743	29.63
610.936	28.95
611.128	28.32
611.32	28.82
611.513	29.39
611.705	28.71
611.897	29.13
612.09	29.69
612.282	29.67
612.474	30.15
612.666	29.7
612.858	29.88
613.051	30.11
613.243	30.14
613.435	29.99
613.627	29
613.819	29.49
614.011	28.49
614.203	28.7
614.395	28.83
614.588	28.52
614.78	29.35
614.972	29.57
615.164	29.99
615.356	30.15
615.548	31.25
615.74	31.97
615.932	32.47
616.124	34.28
616.315	35.27
616.507	36.02
616.699	34.91
616.891	35.04
617.083	34.96
617.275	34.69
617.467	35.98
617.659	35.19
617.85	34.73
618.042	34.14
618.234	32.63
618.426	32.96
618.618	31.46
618.809	32.53
619.001	32.87
619.193	32.98
619.384	32.95
619.576	31.42
619.768	32
619.959	31.06
620.151	31.19
620.343	32.09
620.534	31.66
620.726	32.78
620.917	32.6
621.109	31.15
621.301	31.82
621.492	32.16
621.684	32.68
621.875	32.37
622.067	33.56
622.258	33.21
622.45	31.95
622.641	32.14
622.832	31.54
623.024	31.78
623.215	32.03
623.407	31.02
623.598	30.56
623.789	30.96
623.981	29.91
624.172	29.93
624.363	29.35
624.555	31.24
624.746	30.11
624.937	30.17
625.129	29.8
625.32	29.56
625.511	29.21
625.702	29.28
625.893	29.65
626.085	30.38
626.276	30.24
626.467	31.33
626.658	30.52
626.849	31.14
627.04	31.4
627.231	31.56
627.422	32.1
627.614	32.77
627.805	32.34
627.996	33.11
628.187	33.5
628.378	33.89
628.569	33.19
628.76	33.71
628.951	33.05
629.142	32.89
629.332	32.34
629.523	33.17
629.714	32.82
629.905	33.38
630.096	32.91
630.287	31.78
630.478	31.57
630.669	32.09
630.859	31.5
631.05	31.78
631.241	31.21
631.432	32.75
631.623	32.06
631.813	31.92
632.004	32.24
632.195	32.05
632.385	32.85
632.576	31.92
632.767	32.28
632.957	32.26
633.148	33.71
633.339	34.07
633.529	34.14
633.72	34.77
633.91	35.15
634.101	34.89
634.292	33.5
634.482	33.55
634.673	34.75
634.863	34.1
635.054	34.2
635.244	33.09
635.435	33.32
635.625	32.02
635.815	30.52
636.006	31.19
636.196	31.21
636.387	32.81
636.577	32.3
636.767	30.87
636.958	31.4
637.148	31.02
637.338	30.1
637.529	30.01
637.719	30.5
637.909	31.85
638.099	30.75
638.29	30.37
638.48	29.35
638.67	29.01
638.86	30.16
639.05	30.83
639.241	31.36
639.431	31.91
639.621	32.46
639.811	31.53
640.001	32.58
640.191	33.6
640.381	34.82
640.571	35.65
640.761	36.78
640.951	37.38
641.141	35.93
641.331	35.71
641.521	37.8
641.711	37.66
641.901	38.48
642.091	36.97
642.281	37.02
642.471	36
642.661	35.74
642.851	35.48
643.041	36.12
643.231	36.7
643.42	37.09
643.61	34.38
643.8	34.97
643.99	35.28
644.18	35.35
644.369	34.16
644.559	34.11
644.749	34.36
644.939	34.36
645.128	32.69
645.318	32.41
645.508	31.63
645.697	33.1
645.887	32.53
646.076	32.15
646.266	32.48
646.456	33.23
646.645	33.65
646.835	32.5
647.024	33.07
647.214	34.33
647.403	34.54
647.593	34.81
647.782	34.65
647.972	34.95
648.161	34.36
648.351	33.62
648.54	33.35
648.73	34.13
648.919	33.93
649.108	32.94
649.298	32.05
649.487	32.05
649.677	33.2
649.866	32.18
650.055	31.97
650.244	32.42
650.434	32.81
650.623	32.4
650.812	31.42
651.002	32.48
651.191	32.59
651.38	32.69
651.569	31.93
651.758	31.59
651.947	32.31
652.137	32.12
652.326	31.97
652.515	31.43
652.704	31.75
652.893	31.91
653.082	31.31
653.271	32.26
653.46	31.87
653.649	33.54
653.838	32.9
654.027	32.84
654.216	32.31
654.405	33.59
654.594	34.36
654.783	33.7
654.972	34.46
655.161	34.23
655.35	34.32
655.539	33.91
655.728	32.27
655.916	32.67
656.105	33.16
656.294	33.86
656.483	33.53
656.672	33.47
656.86	34.29
657.049	34.71
657.238	36.01
657.427	35.6
657.615	37.01
657.804	37.1
657.993	36.17
658.181	35.47
658.37	34.89
658.559	34.12
658.747	34.57
658.936	34.03
659.125	33.57
659.313	32.33
659.502	32.05
659.69	30.72
659.879	31.71
660.067	32.86
660.256	32.73
660.444	33.9
660.633	34.15
660.821	34.16
661.01	34.5
661.198	34.26
661.387	34.55
661.575	35.86
661.763	36.04
661.952	35.72
662.14	36.79
662.328	36.96
662.517	37.54
662.705	37.57
662.893	37.18
663.082	38.32
663.27	38.36
663.458	38.84
663.646	37.36
663.834	37.15
664.023	36.79
664.211	36.08
664.399	36.82
664.587	36.27
664.775	36.29
664.963	35.38
665.152	34.05
665.34	33.76
665.528	33.07
665.716	34.42
665.904	35.74
666.092	36.49
666.28	36.65
666.468	36.19
666.656	36.39
666.844	36.5
667.032	36.08
667.22	36.12
667.408	36.91
667.596	38.56
667.784	36.81
667.971	35.52
668.159	35.07
668.347	34.65
668.535	34.27
668.723	33.26
668.911	33.14
669.098	34.43
669.286	35.89
669.474	34.67
669.662	33.36
669.849	34.7
670.037	35.37
670.225	34.83
670.413	34.6
670.6	34.15
670.788	33.83
670.976	33.91
671.163	34.11
671.351	33.65
671.538	34.81
671.726	34.92
671.913	35.21
672.101	34.55
672.289	34.97
672.476	36.75
672.664	38.19
672.851	38.89
673.039	38.43
673.226	37.96
673.413	38.51
673.601	37.8
673.788	38.08
673.976	37.43
674.163	38.87
674.35	39.3
674.538	36.67
674.725	36.13
674.912	35.72
675.1	37.74
675.287	37.16
675.474	36.59
675.662	36.12
675.849	35.66
676.036	35.22
676.223	35.21
676.411	35.72
676.598	35.81
676.785	35.3
676.972	36.41
677.159	34.89
677.346	35.56
677.533	36.48
677.721	37.39
677.908	37.69
678.095	38.71
678.282	37.48
678.469	35.63
678.656	35.68
678.843	36.58
679.03	35.96
679.217	35.94
679.404	35.19
679.591	34.66
679.778	34.34
679.964	34.05
680.151	32.24
680.338	33.16
680.525	34.43
680.712	34.87
680.899	34.08
681.086	34.57
681.272	34.58
681.459	34.11
681.646	32.98
681.833	32.95
682.02	33.46
682.206	33.16
682.393	32.5
682.58	31.77
682.766	31.58
682.953	33.3
683.14	33.99
683.326	34
683.513	35.89
683.7	35.24
683.886	36.64
684.073	35.74
684.259	37.01
684.446	36.57
684.632	37.02
684.819	35.63
685.005	34.43
685.192	33.04
685.378	34.47
685.565	33.21
685.751	32.93
685.938	31.83
686.124	34.59
686.31	34.65
686.497	34.91
686.683	34.3
686.87	35.25
687.056	34.05
687.242	34.17
687.429	32.74
687.615	34.5
687.801	36.5
687.987	35.05
688.174	32.96
688.36	33.12
688.546	32.19
688.732	31.83
688.918	31.75
689.105	32.95
689.291	32.57
689.477	32.81
689.663	32.54
689.849	33.01
690.035	34.4
690.221	33.92
690.407	34.38
690.593	35.14
690.779	36.53
690.965	38.06
691.151	37
691.337	37.04
691.523	37.22
691.709	35.52
691.895	33.16
692.081	33.65
692.267	33.25
692.453	34.63
692.639	34.76
692.825	32.22
693.011	30.44
693.196	33.08
693.382	33.48
693.568	32.85
693.754	35.66
693.94	36.13
694.125	35.91
694.311	36.76
694.497	35.48
694.682	36.84
694.868	37.4
695.054	37.39
695.239	35.87
695.425	36.14
695.611	36.07
695.796	34.03
695.982	34.54
696.168	33.64
696.353	32.62
696.539	31.79
696.724	30.25
696.91	30.53
697.095	31.24
697.281	31.74
697.466	30.94
697.652	31.58
697.837	32.96
698.023	32.1
698.208	31.31
698.393	31.37
698.579	31.31
698.764	31.78
698.949	32.52
699.135	32.82
699.32	31.29
699.505	31.09
699.691	32.07
699.876	30.54
700.061	30.87
700.246	33.36
700.432	34.68
700.617	35.93
700.802	36.09
700.987	35.57
701.172	36.73
701.358	39.89
701.543	40.45
701.728	36.62
701.913	37.28
702.098	39.67
702.283	37.72
702.468	35.44
702.653	33.97
702.838	36.38
703.023	39.25
703.208	36.2
703.393	33.04
703.578	33.67
703.763	35.52
703.948	34.15
704.133	32.68
704.318	32.02
704.503	35.62
704.688	37.76
704.873	35.35
705.057	33.51
705.242	34.7
705.427	37.07
705.612	36.98
705.797	37.45
705.981	37.09
706.166	39.43
706.351	40.51
706.536	40.12
706.72	38.19
706.905	38.9
707.09	40.9
707.274	40.21
707.459	37.7
707.644	37.1
707.828	37.83
708.013	39.44
708.197	35.58
708.382	35.26
708.567	33.87
708.751	33.69
708.936	32.4
709.12	30.96
709.305	31.72
709.489	34.45
709.673	34.54
709.858	34.67
710.042	34.73
710.227	36.14
710.411	34.7
710.596	35.52
710.78	34.86
710.964	35.42
711.149	33.23
711.333	33.29
711.517	31.25
711.702	31.82
711.886	29.6
712.07	29.23
712.254	29.61
712.438	29.15
712.623	27.07
712.807	27.75
712.991	28.97
713.175	29.6
713.359	29.75
713.544	31.33
713.728	30.99
713.912	31.18
714.096	30.71
714.28	30.22
714.464	32.21
714.648	32.94
714.832	34.49
715.016	34.48
715.2	36.9
715.384	36.28
715.568	36.62
715.752	36.75
715.936	38.9
716.12	39.86
716.304	40.68
716.488	40.33
716.671	39.33
716.855	37.51
717.039	36.13
717.223	33.51
717.407	34.53
717.59	32.78
717.774	32.25
717.958	30.89
718.142	29.79
718.325	28.88
718.509	30.47
718.693	31.33
718.877	29.97
719.06	29.13
719.244	31.43
719.428	33.16
719.611	33.81
719.795	36.24
719.978	36.94
720.162	39.82
720.345	39.68
720.529	40.04
720.713	45.03
720.896	47.03
721.08	49.17
721.263	46.77
721.446	44.89
721.63	45.81
721.813	43.89
721.997	44.73
722.18	42.08
722.364	41.72
722.547	37.93
722.73	33.13
722.914	32.62
723.097	30
723.28	31.36
723.464	30.6
723.647	26.82
723.83	26.25
724.013	24.25
724.197	24.21
724.38	27.33
724.563	30.05
724.746	29.54
724.929	30.56
725.112	29.95
725.296	29.6
725.479	27.06
725.662	29.57
725.845	29.14
726.028	29.12
726.211	30.65
726.394	30.47
726.577	29.99
726.76	35.78
726.943	36.73
727.126	40.17
727.309	41.15
727.492	43.25
727.675	43.24
727.858	43.8
728.041	42.07
728.224	41.15
728.407	38.71
728.589	39.9
728.772	37.13
728.955	35.57
729.138	34.74
729.321	33.24
729.503	32.01
729.686	31.62
729.869	33.16
730.052	34.19
730.234	35.75
730.417	37.58
730.6	37.63
730.782	37.85
730.965	37.18
731.148	36.51
731.33	39.38
731.513	40.56
731.695	41.15
731.878	39.3
732.061	40.09
732.243	38.21
732.426	37.6
732.608	36.02
732.791	35.21
732.973	35.79
733.156	34.85
733.338	33.14
733.52	34.55
733.703	34.26
733.885	34.61
734.068	36.62
734.25	39.12
734.432	37.54
734.615	37.75
734.797	36.5
734.979	36.27
735.162	39.13
735.344	40.51
735.526	41.5
735.708	39.74
735.891	38.89
736.073	34.89
736.255	35.76
736.437	38.45
736.619	42.16
736.802	42.1
736.984	45.75
737.166	43.29
737.348	41.2
737.53	39.39
737.712	40.17
737.894	41.97
738.076	45.21
738.258	43.35
738.44	40.58
738.622	38.61
738.804	41.51
738.986	37.8
739.168	37.69
739.35	37.58
739.532	41.45
739.714	40.63
739.896	41.14
740.078	41.06
740.259	39.33
740.441	41.07
740.623	41
740.805	42.19
740.987	43.03
741.168	45.06
741.35	41.27
741.532	36.54
741.714	38.33
741.895	38.47
742.077	35.5
742.259	38.77
742.44	36.49
742.622	37.12
742.804	35.42
742.985	34.18
743.167	35.06
743.348	39.78
743.53	40.52
743.711	46.39
743.893	43.97
744.075	48.51
744.256	46.83
744.438	48.19
744.619	46.91
744.8	45.61
744.982	48.74
745.163	48.49
745.345	49.74
745.526	45.54
745.707	38.24
745.889	40.17
746.07	41.31
746.252	41.93
746.433	41.02
746.614	43.46
746.795	44.09
746.977	45.19
747.158	40.96
747.339	39.83
747.52	42.03
747.702	47.94
747.883	47.44
748.064	45.51
748.245	46.15
748.426	47.85
748.607	44.53
748.788	47.08
748.97	44.7
749.151	46.9
749.332	47.57
749.513	48.77
749.694	45.41
749.875	43.37
750.056	42.79
750.237	43.74
750.418	44.09
750.599	43.05
750.78	43.02
750.96	42.57
751.141	44.9
751.322	49.78
751.503	51.41
751.684	50.73
751.865	50.44
752.046	46.44
752.226	47.28
752.407	48.54
752.588	53.55
752.769	52.9
752.949	49.25
753.13	47.08
753.311	48.12
753.492	49.08
753.672	51.48
753.853	51.17
754.034	54.43
754.214	51
754.395	53.39
754.575	48.69
754.756	45.91
754.937	50.09
755.117	51.89
755.298	45.16
755.478	41.22
755.659	36.1
755.839	40.55
756.02	40.07
756.2	35.81
756.381	33.23
756.561	33.94
756.741	32.99
756.922	31.23
757.102	29.9
757.283	30.22
757.463	30.58
757.643	31.99
757.823	26.06
758.004	24.13
758.184	29.95
758.364	24.4
758.545	21.45
758.725	23.91
758.905	23.49
759.085	24.03
759.265	25.08
759.446	26.77
759.626	26.73
759.806	28.1
759.986	31.93
760.166	31.15
760.346	35.81
760.526	40.27
760.706	38.96
760.886	40.36
761.066	39.58
761.246	36.38
761.426	32.58
761.606	30.67
761.786	32.07
761.966	29.02
762.146	31.3
762.326	28.38
762.506	29.5
762.686	30.97
762.866	30.37
763.046	30.26
763.225	31.44
763.405	30.47
763.585	35.13
763.765	33.02
763.945	37.47
764.124	32.72
764.304	38.02
764.484	34.99
764.664	32.86
764.843	33.69
765.023	31.62
765.203	33.13
765.382	39.28
765.562	35.86
765.741	36.27
765.921	35.84
766.101	41.58
766.28	40.49
766.46	40.09
766.639	38.23
766.819	38.75
766.998	44.72
767.178	45.52
767.357	50.18
767.537	50.45
767.716	54.17
767.896	52.62
768.075	53.18
768.254	55.8
768.434	56.59
768.613	62.41
768.792	61.24
768.972	58.01
769.151	53.43
769.33	49.12
769.51	50.03
769.689	52.13
769.868	53.56
770.047	51.43
770.226	51.87
770.406	53
770.585	52.29
770.764	52.9
770.943	58.68
771.122	61.88
771.301	61.34
771.48	66.04
771.66	63.3
771.839	67.73
772.018	70.28
772.197	71.29
772.376	72.44
772.555	71.62
772.734	79.2
772.913	84.08
773.092	94.17
773.271	98.64
773.449	101.32
773.628	96.97
773.807	92.78
773.986	86.21
774.165	85.95
774.344	91.5
774.523	92.72
774.701	83.34
774.88	81.47
775.059	77.57
775.238	73.81
775.417	70.51
775.595	69.9
775.774	71.05
775.953	73.87
776.131	66.74
776.31	69.17
776.489	64.89
776.667	69.7
776.846	58.74
777.025	51.03
777.203	53.18
777.382	56.02
777.56	55
777.739	51.22
777.917	50.13
778.096	52.83
778.274	51.05
778.453	51.17
778.631	49.91
778.81	51.35
778.988	57.22
779.166	52.02
779.345	50.52
779.523	50.31
779.702	51.03
779.88	51.16
780.058	53.09
780.237	45.88
780.415	39.82
780.593	35.29
780.771	45.44
780.95	43.41
781.128	47.89
781.306	45.09
781.484	42.89
781.662	48.19
781.841	41.74
782.019	35.79
782.197	43.69
782.375	48.56
782.553	56.7
782.731	56.2
782.909	56.44
783.087	56.82
783.265	60.53
783.443	63.46
783.621	55.5
783.799	63.66
783.977	64.4
784.155	61.35
784.333	68.65
784.511	67.23
784.689	58.41
784.867	60.75
785.045	55.76
785.223	53.83
785.4	48.83
785.578	52.95
785.756	51.19
785.934	43.77
786.112	43.06
786.289	33.19
786.467	30.21
786.645	29.24
786.823	29.19
787	31.56
787.178	31.12
787.356	34.1
787.533	30.14
787.711	33.29
787.889	34.7
788.066	34.4
788.244	34.8
788.421	38.4
788.599	37.48
788.776	34.88
788.954	32.2
789.131	33.5
789.309	38.26
789.486	36.14
789.664	32.19
789.841	36.16
790.019	37.69
790.196	44.27
790.373	37.94
790.551	38.58
790.728	35.65
790.906	40.52
791.083	43.1
791.26	42.65
791.437	52.32
791.615	56.83
791.792	53.7
791.969	52.21
792.146	52.04
792.324	51.59
792.501	51.27
792.678	58.31
792.855	52.7
793.032	47.66
793.209	38.77
793.387	33.57
793.564	26.48
793.741	34.18
793.918	33.66
794.095	28.53
794.272	27.61
794.449	34.01
794.626	31.45
794.803	30.66
794.98	31.44
795.157	38.43
795.334	35.85
795.511	44.27
795.688	36.58
795.864	44.1
796.041	49.63
796.218	54.07
796.395	58.59
796.572	52.64
796.749	51.97
796.925	53.81
797.102	49.36
797.279	57.01
797.456	52.59
797.632	62.13
797.809	54.73
797.986	45.4
798.162	35.37
798.339	20.27
798.516	37.36
798.692	39.06
798.869	32.22
799.046	48.84
799.222	35.81
799.399	40.06
799.575	37.21
799.752	41.21
799.928	45.89
800.105	56.58
800.281	61.18
800.458	58.78
800.634	58.78
800.811	68.86
800.987	48.63
801.163	47.46
801.34	40.86
801.516	38.31
801.692	39.95
801.869	47.22
802.045	47.91
802.221	41.39
802.398	42.78
802.574	41.9
802.75	34.93
802.926	41.02
803.103	45.82
803.279	46.82
803.455	44.64
803.631	38.9
803.807	41.25
803.983	42.17
804.16	41.72
804.336	34.83
804.512	37.28
804.688	37.63
804.864	40.43
805.04	34.79
805.216	38.2
805.392	36.57
805.568	36.18
805.744	33.78
805.92	31.32
806.096	42.99
806.272	41.9
806.448	34.21
806.623	35.38
806.799	29.58
806.975	39.31
807.151	39.62
807.327	46.7
807.503	42.88
807.678	48.61
807.854	49.59
808.03	41.09
808.206	47.78
808.381	59.5
808.557	63.59
808.733	72.97
808.908	71.24
809.084	62.05
809.26	65.73
809.435	68.8
809.611	60.66
809.787	59.4
809.962	67.55
810.138	67.07
810.313	69.66
810.489	68.75
810.664	58.62
810.84	56.82
811.015	72.19
811.191	75.73
811.366	84.09
811.542	72.06
811.717	60.93
811.892	35.55
812.068	26.98
812.243	9.15
812.419	-16.14
812.594	16.22
812.769	23.59
812.944	35.06
813.12	19.36
813.295	13.62
813.47	25.77
813.645	25.5
813.821	34.62
813.996	33.27
814.171	39.94
814.346	42.58
814.521	40.14
814.697	38.2
814.872	34.27
815.047	39.17
815.222	47.64
815.397	48.58
815.572	51.35
815.747	52.12
815.922	61.49
816.097	57.34
816.272	59.89
816.447	60.16
816.622	53.13
816.797	40.1
816.972	41.9
817.147	33.09
817.322	33.38
817.496	28.83
817.671	30.78
817.846	25.4
818.021	25.05
818.196	25.01
818.371	29.69
818.545	31.37
818.72	33.82
818.895	33.64
819.069	35.66
819.244	29.7
819.419	27.4
819.594	25.98
819.768	25.65
819.943	22.64
820.117	24.54
820.292	24.3
820.467	24.94
820.641	26.46
820.816	25.71
820.99	24.59
821.165	24.74
821.339	25.52
821.514	25.66
821.688	25.88
821.863	28.92
822.037	28.67
822.212	27.86
822.386	28.12
822.56	27.83
822.735	28.14
822.909	31.86
823.084	34.06
823.258	34.96
823.432	33.95
823.606	36.46
823.781	35.24
823.955	36.8
824.129	35.77
824.303	36.51
824.478	33.23
824.652	29.49
824.826	23.05
825	17.68
825.174	18.99
825.348	18.79
825.523	15.26
825.697	14.73
825.871	13.32
826.045	17.88
826.219	19.97
826.393	18.81
826.567	23.53
826.741	25.22
826.915	31.51
827.089	29.67
827.263	31.34
827.437	33.49
827.611	36.58
827.784	32.92
827.958	28.28
828.132	27.71
828.306	30.64
828.48	24.76
828.654	22.17
828.827	17.84
829.001	18.18
829.175	21.06
829.349	17.98
829.522	-0.35
829.696	1.03
829.87	-5.5
830.044	5.64
830.217	-0.26
830.391	8.82
830.565	2.82
830.738	2.1
830.912	8.8
831.085	6.28
831.259	8.7
831.432	14.57
831.606	25.26
831.779	36.86
831.953	33.56
832.126	37.02
832.3	34.39
832.473	36.44
832.647	29.75
832.82	25.02
832.994	24.14
833.167	29.71
833.34	29.15
833.514	29.72
833.687	21
833.86	17.16
834.034	14.95
834.207	8.98
834.38	9.21
834.553	15.79
834.727	20.45
834.9	23.84
835.073	15.06
835.246	12.01
835.419	4.89
835.593	0.65
835.766	7.14
835.939	37.16
836.112	36.45
836.285	61.76
836.458	40.76
836.631	33.39
836.804	-1.02
836.977	-1.9
837.15	17.3
837.323	18.82
837.496	33.46
837.669	31.81
837.842	41.09
838.015	41.34
838.188	27.6
838.361	40.58
838.533	50.72
838.706	55.75
838.879	55
839.052	52.45
839.225	55.43
839.398	45.58
839.57	56.5
839.743	39.76
839.916	45.51
840.088	48.45
840.261	50.63
840.434	50
840.607	43.71
840.779	52.1
840.952	53.87
841.124	46.39
841.297	48.33
841.47	26.72
841.642	51.23
841.815	49.28
841.987	78.68
842.16	-84.31
842.332	-139.71
842.505	21.15
842.677	83.33
842.85	-29.41
843.022	700
843.194	277.42
843.367	51.83
843.539	44.3
843.712	65.13
843.884	56.63
844.056	-17.28
844.229	-20.86
844.401	-151.33
844.573	-307.23
844.745	418.39
844.918	221.9
845.09	148.07
845.262	108.27
845.434	99.18
845.606	81.17
845.779	68.08
845.951	62.4
846.123	55.06
846.295	45.67
846.467	44.24
846.639	45.48
846.811	32.16
846.983	19.52
847.155	35.4
847.327	88.89
847.499	243.81
847.671	219.25
847.843	-1294.74
848.015	-932.26
848.187	729.31
848.359	2175
848.531	176.15
848.703	101.56
848.875	171.75
849.047	92.99
849.218	72.61
849.39	-38.46
849.562	1340
849.734	-240.3
849.905	-753.33
850.077	-15.97
850.249	51.98
850.421	106.09
850.592	86.79
850.764	31.94
850.936	0.37
851.107	34.44
851.279	68.98
851.451	25.52
851.622	78.4
851.794	70.54
851.965	36.31
852.137	33.59
852.308	45.24
852.48	76.37
852.651	105.67
852.823	165.24
852.994	118.1
853.166	116.16
853.337	117.67
853.509	64.15
853.68	6.25
853.851	50
854.023	35.54
854.194	-91.15
854.365	14500
854.537	2809.09
854.708	-1714.29
854.879	-1072.34
855.05	-292.35
855.222	-239.08
855.393	-294.85
855.564	-40.89
855.735	20.85
855.906	6.39
856.078	32.07
856.249	49.39
856.42	39.23
856.591	33.62
856.762	28.32
856.933	14.29
857.104	6.25
857.275	21.7
857.446	8.72
857.617	-53.05
857.788	-20.2
857.959	-39.04
858.13	37.5
858.301	-16.35
858.472	-80.15
858.643	-136.05
858.814	5.86
858.985	24.96
859.155	9.34
859.326	8.69
859.497	31.7
859.668	41.19
859.839	62.07
860.009	39.89
860.18	48.98
860.351	74.63
860.522	74.18
860.692	104.87
860.863	106.21
861.034	91.73
861.204	116.86
861.375	104.07
861.546	92.68
861.716	114.42
861.887	100
862.057	124.56
862.228	77.57
862.398	84.74
862.569	75.33
862.739	75.86
862.91	77.78
863.08	-69.23
863.251	-38.83
863.421	-120.91
863.592	-253.76
863.762	865
863.932	1137.1
864.103	2008.33
864.273	342.86
864.443	-418.18
864.614	-117.72
864.784	-305.13
864.954	-504.55
865.125	206.06
865.295	-694.44
865.465	540.74
865.635	202.18
865.805	197.42
865.976	203.93
866.146	102.82
866.316	59.09
866.486	68.03
866.656	44.23
866.826	48.46
866.996	34.1
867.166	17.42
867.336	-1.3
867.506	-3.07
867.676	-22.07
867.846	-65.73
868.016	-42.89
868.186	-39.8
868.356	-132.97
868.526	-196
868.696	-341.77
868.866	-68.92
869.036	-20.75
869.206	770.59
869.376	-130
869.545	60
869.715	184.37
869.885	112.68
870.055	294.52
870.224	-111.02
870.394	-431.37
870.564	405.63
870.734	-113.04
870.903	-224.78
871.073	-21.62
871.243	-174.26
871.412	23.46
871.582	23.72
871.751	63.06
871.921	78.04
872.091	71.84
872.26	85.38
872.43	70.45
872.599	65.85
872.769	110.35
872.938	104.51
873.108	81.27
873.277	80.46
873.446	92.11
873.616	52.2
873.785	74.96
873.955	93.68
874.124	102.43
874.293	115.93
874.463	95.32
874.632	81.25
874.801	90.45
874.971	73.8
875.14	59.58
875.309	118.92
875.478	116.91
875.647	59.74
875.817	76.99
875.986	43.46
876.155	52.42
876.324	73.76
876.493	86.94
876.662	87.59
876.831	93.75
877	105.51
877.17	73.37
877.339	79.76
877.508	101.25
877.677	77.95
877.846	113.22
878.015	94.79
878.184	51.09
878.352	46.41
878.521	29.05
878.69	36.04
878.859	41.01
879.028	11.86
879.197	28.63
879.366	37.16
879.534	41.14
879.703	40.32
879.872	38.68
880.041	39.83
880.21	33.13
880.378	28.93
880.547	28.83
880.716	25.77
880.884	21.65
881.053	26.17
881.222	20.63
881.39	22.23
881.559	24.31
881.727	31.33
881.896	25.04
882.065	23.66
882.233	31.32
882.402	27.58
882.57	27.57
882.739	34.39
882.907	27.96
883.076	37.59
883.244	34.61
883.412	30.11
883.581	27.33
883.749	41.21
883.918	40.19
884.086	38.78
884.254	34.29
884.423	32.45
884.591	34.65
884.759	30.95
884.927	17.54
885.096	24.67
885.264	29.89
885.432	25.43
885.6	25.7
885.769	32.91
885.937	31.15
886.105	38.24
886.273	65.13
886.441	43.78
886.609	23.27
886.777	61.21
886.945	59.27
887.113	86.39
887.281	62.78
887.449	58.2
887.617	59.73
887.785	50.68
887.953	51.64
888.121	45.92
888.289	64.13
888.457	80.97
888.625	83.41
888.793	88.96
888.961	49.39
889.129	67.88
889.296	72.63
889.464	75.81
889.632	126.32
889.8	407.69
889.967	82.47
890.135	44.05
