Data from JASIL_2989_Reflection_04.txt Node
Date: Mon Nov 09 09:39:42 EST 2015
User: Geneva
Spectrometer: USB4E03002
Autoset integration time: false
Trigger mode: 4
Integration Time (sec): 1.000000E-1
Scans to average: 10
Electric dark correction enabled: false
Nonlinearity correction enabled: false
Boxcar width: 5
Stray light correction enabled: false
XAxis mode: Wavelengths
Stop averaging: false
Number of Pixels in Spectrum: 3648
>>>>>Begin Spectral Data<<<<<
177.575	-290.52
177.794	-266.91
178.014	-1406.41
178.233	-2485.19
178.452	1073.72
178.672	4113.64
178.891	1139.04
179.11	644.69
179.33	768.05
179.549	782.3
179.768	555.09
179.987	638.28
180.207	837.29
180.426	1278.33
180.645	1525.5
180.864	-2013.89
181.084	11168.42
181.303	-1502.46
181.522	-981.97
181.741	-1876.53
181.96	-826.29
182.179	-855.65
182.398	-3430.65
182.618	866.41
182.837	1048.58
183.056	1742.86
183.275	1730.83
183.494	1434.21
183.713	1094.74
183.932	1072.81
184.151	903.21
184.37	404.87
184.589	685.71
184.808	647.54
185.027	1494.07
185.246	2863.33
185.465	835.11
185.684	881.37
185.903	799.58
186.122	623.58
186.341	1087.64
186.56	876.64
186.779	-5465
186.998	1524.68
187.216	-16526.67
187.435	3417.07
187.654	1892.67
187.873	-3107.41
188.092	-15681.25
188.311	-3182.89
188.53	-1608.28
188.748	-1487.58
188.967	-1166.48
189.186	-1351.97
189.405	-2075.58
189.623	-2692.19
189.842	-703.26
190.061	-467.1
190.28	-384.49
190.498	-536.88
190.717	-692.99
190.936	-522.01
191.154	-482.13
191.373	-413.97
191.592	-330.29
191.81	-338.94
192.029	-350.77
192.248	-551.13
192.466	-1180.37
192.685	1490.07
192.904	1976.07
193.122	1973.11
193.341	5907.5
193.559	6634.29
193.778	-2175
193.996	2130.56
194.215	2468.89
194.433	1784.21
194.652	-5871.79
194.87	-8225.93
195.089	-1745.83
195.307	-868.64
195.526	-439.25
195.744	-783.7
195.963	-1663.36
196.181	-2612.5
196.399	-553.8
196.618	-687.63
196.836	16358.33
197.055	2833.33
197.273	-3826.67
197.491	3736.96
197.71	1698.04
197.928	570
198.146	825.58
198.365	632.05
198.583	638.82
198.801	432.07
199.019	509.69
199.238	763.46
199.456	713
199.674	1046.38
199.892	929.85
200.111	1063.87
200.329	1280
200.547	1666.45
200.765	-20945.45
200.983	3629.51
201.202	-12072.22
201.42	2195.92
201.638	-1100.58
201.856	-1131.61
202.074	7503.85
202.292	-2231.82
202.51	7396.55
202.728	-4568.09
202.946	1498.53
203.165	1820.17
203.383	1061.86
203.601	779.65
203.819	8544
204.037	1724.24
204.255	1098.51
204.473	2508.24
204.691	5454.05
204.909	-5370.59
205.127	-2853.97
205.345	-5739.39
205.562	-5122.86
205.78	-725.31
205.998	-704.15
206.216	-1563.11
206.434	-1672.45
206.652	-709.88
206.87	-648.62
207.088	-531.78
207.306	-900
207.523	-1133.52
207.741	-737.74
207.959	-2528.21
208.177	-1691.15
208.395	-701.12
208.612	-554.52
208.83	-695.65
209.048	-2133.72
209.266	-5729.03
209.483	5142.86
209.701	-8352.38
209.919	1316.79
210.136	-29316.67
210.354	-1545.16
210.572	-5076.32
210.79	1161.05
211.007	824.19
211.225	688.82
211.442	1145.41
211.66	750
211.878	1102.38
212.095	1035.42
212.313	1824.68
212.53	999.22
212.748	1829.31
212.966	379.93
213.183	915.45
213.401	1125
213.618	-1412.5
213.836	-899.09
214.053	-250.17
214.271	-480.38
214.488	-871.51
214.705	-524.17
214.923	-1006.32
215.14	2597.3
215.358	-1268.39
215.575	-5264.1
215.793	-2242.7
216.01	4365.96
216.227	993.49
216.445	636.67
216.662	620.92
216.879	681.61
217.097	589.54
217.314	735.79
217.531	705
217.749	724.47
217.966	823.57
218.183	538.09
218.4	553.58
218.618	724.07
218.835	1085.29
219.052	978.49
219.269	551.58
219.487	466.47
219.704	545.21
219.921	714.46
220.138	525.27
220.355	419.55
220.572	449.2
220.79	378.49
221.007	333.14
221.224	313.53
221.441	273.47
221.658	448.81
221.875	702.5
222.092	396.67
222.309	460.06
222.526	616.44
222.743	4928.95
222.96	6354.84
223.177	-3126.56
223.394	-868
223.611	-1223.03
223.828	-787.59
224.045	-1776.23
224.262	2162.04
224.479	-6956.25
224.696	-4916.67
224.913	-56825
225.13	1301.16
225.347	1070.95
225.564	848.28
225.781	584.09
225.997	407.65
226.214	304.84
226.431	241.65
226.648	226.1
226.865	193.15
227.082	155.83
227.298	132.91
227.515	124.28
227.732	105.5
227.949	98.24
228.165	102.91
228.382	107.7
228.599	114.29
228.816	118.39
229.032	136.48
229.249	147.32
229.466	161.3
229.682	197.21
229.899	191.48
230.116	238.76
230.332	304.89
230.549	355.36
230.765	462.34
230.982	328.44
231.199	506.67
231.415	310.28
231.632	294.29
231.848	338.88
232.065	290.78
232.281	296.41
232.498	273.92
232.714	246
232.931	256.87
233.147	241.59
233.364	235.27
233.58	204.5
233.797	256.62
234.013	277.3
234.23	266.05
234.446	254
234.662	269.25
234.879	322.8
235.095	287.32
235.312	249.14
235.528	198.26
235.744	223.89
235.961	191.72
236.177	140.25
236.393	132.2
236.61	138
236.826	149.65
237.042	139.63
237.258	127.13
237.475	130.3
237.691	124.99
237.907	154.04
238.123	158.87
238.339	173.48
238.556	193.97
238.772	189.84
238.988	162.62
239.204	149.43
239.42	144.54
239.636	133.19
239.853	128.81
240.069	121.09
240.285	106.35
240.501	91.28
240.717	90.66
240.933	87.43
241.149	84.7
241.365	84.98
241.581	83.18
241.797	83.27
242.013	82.04
242.229	84.23
242.445	83.32
242.661	86.99
242.877	87.46
243.093	89.92
243.309	95.04
243.525	100.4
243.741	100.04
243.957	99.25
244.173	93.99
244.388	91.1
244.604	81.68
244.82	76.65
245.036	70.18
245.252	68.18
245.468	61.4
245.683	55.92
245.899	53.12
246.115	50.25
246.331	48.88
246.547	47.93
246.762	47.59
246.978	47.81
247.194	49.37
247.409	54.77
247.625	56.91
247.841	63.92
248.057	68.07
248.272	73.88
248.488	87.1
248.703	100.14
248.919	109.1
249.135	118.3
249.35	126.21
249.566	126.84
249.782	111.47
249.997	113.59
250.213	99.96
250.428	103.83
250.644	99.36
250.859	84.73
251.075	81.85
251.29	81.64
251.506	86.96
251.721	86.74
251.937	90.3
252.152	96.97
252.368	101.76
252.583	113.56
252.798	117.77
253.014	135.97
253.229	168.23
253.445	162.27
253.66	152.95
253.875	144.69
254.091	133.51
254.306	126.13
254.521	119.18
254.737	113.19
254.952	113.4
255.167	116.81
255.383	106.39
255.598	97.86
255.813	89.04
256.028	91.05
256.244	84.78
256.459	78.3
256.674	72.2
256.889	63.93
257.104	59.14
257.32	55.67
257.535	48.69
257.75	41.92
257.965	37.99
258.18	37.09
258.395	34.66
258.61	32.96
258.826	32.5
259.041	32.51
259.256	36.08
259.471	37.79
259.686	36.78
259.901	40.13
260.116	46.22
260.331	48.41
260.546	54
260.761	55.83
260.976	61
261.191	70.63
261.406	76.29
261.621	83.42
261.836	84.99
262.05	89.62
262.265	87.19
262.48	85.55
262.695	93.08
262.91	91.96
263.125	95.61
263.34	96.99
263.555	95.05
263.769	90
263.984	83.4
264.199	80.83
264.414	78.83
264.629	83.23
264.843	79.1
265.058	77.59
265.273	72.71
265.488	71.09
265.702	69.3
265.917	62.28
266.132	63.29
266.346	57.66
266.561	58.82
266.776	56.29
266.99	50.6
267.205	51.43
267.42	52.13
267.634	57.54
267.849	55.51
268.063	59.16
268.278	59.72
268.492	62.8
268.707	61.1
268.922	60.39
269.136	64.71
269.351	64.55
269.565	63.52
269.78	57.93
269.994	53.76
270.209	58.25
270.423	54.71
270.637	52.41
270.852	47.76
271.066	47.44
271.281	46.47
271.495	48.11
271.709	50.03
271.924	50.4
272.138	51.88
272.353	53.33
272.567	48.04
272.781	50.3
272.996	51.61
273.21	53.97
273.424	53.72
273.638	55.07
273.853	54.72
274.067	53.48
274.281	52.68
274.495	52.75
274.71	52.32
274.924	55.74
275.138	56.4
275.352	56.22
275.566	58.91
275.781	65.6
275.995	64.31
276.209	62.04
276.423	63.32
276.637	63.95
276.851	63.16
277.065	62.36
277.279	60.6
277.493	60.93
277.707	62.31
277.921	60.7
278.135	54.08
278.349	57.08
278.563	56.7
278.777	55.34
278.991	56.91
279.205	59.19
279.419	59.63
279.633	57.35
279.847	52.01
280.061	51.56
280.275	50.87
280.489	52.04
280.703	51.98
280.917	50.87
281.131	50.63
281.344	47.64
281.558	47.62
281.772	48.21
281.986	50.73
282.2	53.03
282.414	51.4
282.627	48.04
282.841	47.1
283.055	47.51
283.269	46.93
283.482	46.52
283.696	47.27
283.91	45.12
284.123	41.3
284.337	38.53
284.551	37.03
284.764	38.01
284.978	38.47
285.192	39.45
285.405	40.09
285.619	42.3
285.833	44.09
286.046	44.48
286.26	46.1
286.473	46.21
286.687	49.63
286.9	51.15
287.114	51.25
287.327	53.24
287.541	52.7
287.754	51.54
287.968	47.93
288.181	48.16
288.395	50.32
288.608	50.07
288.822	51.49
289.035	49.42
289.248	48.75
289.462	48.69
289.675	47.78
289.889	49.89
290.102	48.11
290.315	50.22
290.529	50.06
290.742	47.83
290.955	48.95
291.169	51.95
291.382	53.72
291.595	53.34
291.808	54.06
292.022	53.35
292.235	49.62
292.448	50.31
292.661	48.19
292.875	46.43
293.088	44.35
293.301	38.24
293.514	36.34
293.727	38.29
293.94	38.6
294.153	37.78
294.367	36.75
294.58	37.53
294.793	35.62
295.006	34.48
295.219	34.61
295.432	33.49
295.645	35.53
295.858	33.21
296.071	29.07
296.284	30.37
296.497	31.54
296.71	30.73
296.923	31.94
297.136	32.31
297.349	35.78
297.562	35.68
297.775	37.28
297.988	38.92
298.201	42.43
298.414	46.4
298.626	43.79
298.839	42.49
299.052	43.94
299.265	42.8
299.478	43.07
299.691	43.5
299.903	41.82
300.116	41.78
300.329	40.55
300.542	40.89
300.755	39.89
300.967	44.62
301.18	46.16
301.393	48.15
301.605	48.35
301.818	47.35
302.031	47.15
302.243	48.36
302.456	49.47
302.669	52.58
302.881	50.65
303.094	52.11
303.307	51.01
303.519	51.05
303.732	49.82
303.944	49.41
304.157	52.59
304.37	52.13
304.582	53.67
304.795	55.3
305.007	54.4
305.22	54.82
305.432	53.89
305.645	54.21
305.857	55.27
306.069	54.91
306.282	56.96
306.494	56.37
306.707	54.66
306.919	52.93
307.132	49.6
307.344	48.77
307.556	53.64
307.769	51.67
307.981	50.81
308.193	45.52
308.406	45.26
308.618	43.81
308.83	41.96
309.043	43.4
309.255	44.35
309.467	44.08
309.679	42.12
309.892	38.22
310.104	39.52
310.316	39.06
310.528	43.23
310.74	42.88
310.953	44.19
311.165	45.24
311.377	45.88
311.589	46.77
311.801	47.51
312.013	48.71
312.225	50.92
312.437	52.38
312.649	54.7
312.862	52.7
313.074	56.75
313.286	55.25
313.498	53.62
313.71	51.89
313.922	49.53
314.134	49.31
314.346	50.25
314.558	50.93
314.77	50.84
314.982	47.78
315.193	50.24
315.405	47.86
315.617	48.22
315.829	48.06
316.041	48.71
316.253	51.24
316.465	52.35
316.677	55.12
316.888	57.55
317.1	54.25
317.312	56.33
317.524	52.77
317.736	50.67
317.947	52.21
318.159	52.22
318.371	53.13
318.583	54.08
318.794	57.2
319.006	54.4
319.218	49.94
319.43	55.85
319.641	53.25
319.853	55.13
320.064	56.63
320.276	57.79
320.488	62.36
320.699	62.69
320.911	60.59
321.123	59.85
321.334	62.67
321.546	62.07
321.757	59.28
321.969	63.87
322.18	66.12
322.392	62.93
322.603	61.76
322.815	61
323.026	57.04
323.238	55.57
323.449	54.52
323.661	52.68
323.872	52.4
324.083	52.44
324.295	48.58
324.506	47.18
324.718	50.16
324.929	51.8
325.14	52.34
325.352	53.1
325.563	51.9
325.774	52.95
325.986	54.78
326.197	54.56
326.408	53.94
326.62	53.45
326.831	53.11
327.042	52.03
327.253	48.14
327.464	48.59
327.676	49.65
327.887	53.25
328.098	52.67
328.309	49.34
328.52	53.42
328.732	51.87
328.943	54.26
329.154	56.16
329.365	58.49
329.576	59.39
329.787	57.16
329.998	57.91
330.209	57.72
330.42	59.25
330.631	61.88
330.842	59.66
331.053	61.82
331.264	63.67
331.475	61.78
331.686	60.13
331.897	59.9
332.108	59.1
332.319	60.29
332.53	58.17
332.741	53.55
332.952	49.18
333.163	50.39
333.374	49.58
333.585	50.03
333.795	47.79
334.006	48.56
334.217	48.31
334.428	48.08
334.639	48.79
334.849	52.01
335.06	54.09
335.271	54.72
335.482	52.77
335.692	52.26
335.903	49.37
336.114	53.17
336.325	50.3
336.535	50.28
336.746	51.44
336.957	52.03
337.167	50.01
337.378	50.28
337.589	51.74
337.799	53.84
338.01	55.88
338.22	56.92
338.431	56.18
338.642	58.75
338.852	59.71
339.063	58.38
339.273	56.04
339.484	57.3
339.694	57.72
339.905	57.62
340.115	55.45
340.326	51.97
340.536	53.65
340.746	54.11
340.957	52.29
341.167	51.55
341.378	50.79
341.588	48.99
341.799	46.85
342.009	44.75
342.219	43.98
342.43	44.98
342.64	44.81
342.85	42.44
343.061	39.21
343.271	40.03
343.481	40.69
343.691	40.8
343.902	41.97
344.112	42.98
344.322	44.45
344.532	44.68
344.743	44.22
344.953	44.92
345.163	45.67
345.373	45.88
345.583	44.21
345.793	45.84
346.004	46.49
346.214	46.77
346.424	46.8
346.634	46.44
346.844	46.83
347.054	44.57
347.264	44.33
347.474	44.18
347.684	47.35
347.894	49.25
348.104	48.62
348.314	49.37
348.524	47.41
348.734	48.41
348.944	48.21
349.154	45.44
349.364	47.37
349.574	47.31
349.784	49.68
349.994	49.79
350.204	51.31
350.413	51.12
350.623	50.37
350.833	52.45
351.043	51.78
351.253	51.88
351.463	54.85
351.672	54.99
351.882	55.06
352.092	52.9
352.302	51.05
352.511	49.01
352.721	46.24
352.931	45.2
353.141	42.61
353.35	41.15
353.56	40.1
353.77	36.49
353.979	35.38
354.189	33.73
354.399	32.13
354.608	32.54
354.818	32.22
355.027	32.26
355.237	33.58
355.447	34.81
355.656	34.63
355.866	33.88
356.075	37.19
356.285	36.91
356.494	38.61
356.704	40.46
356.913	39.88
357.123	40.12
357.332	40.89
357.542	39.72
357.751	40.92
357.96	41.84
358.17	42.4
358.379	41.1
358.589	40.5
358.798	40.28
359.007	39.26
359.217	38.33
359.426	37.82
359.635	36.74
359.845	34.54
360.054	31.8
360.263	30.07
360.472	30.8
360.682	32.17
360.891	32.45
361.1	32.43
361.309	30.96
361.519	31.02
361.728	31.48
361.937	31.95
362.146	33.15
362.355	34.85
362.564	35.34
362.774	34.36
362.983	32.19
363.192	29.98
363.401	30.46
363.61	31.26
363.819	31.49
364.028	31.19
364.237	30.31
364.446	30.41
364.655	29.32
364.864	31.31
365.073	31.58
365.282	31.5
365.491	33.51
365.7	33.38
365.909	33.45
366.118	34.02
366.327	33.59
366.536	34.65
366.745	35.56
366.954	36.21
367.162	34.96
367.371	35.75
367.58	37.32
367.789	38.51
367.998	38
368.207	37.45
368.415	37.58
368.624	37.82
368.833	37.65
369.042	37.21
369.25	38.39
369.459	38.19
369.668	37.75
369.877	36.94
370.085	35.81
370.294	35.62
370.503	36.64
370.711	35.6
370.92	34.39
371.129	35.86
371.337	35.85
371.546	34.43
371.754	36.31
371.963	36.9
372.171	37.48
372.38	38.45
372.589	39.43
372.797	39.12
373.006	39.01
373.214	39.27
373.423	37.56
373.631	36.62
373.84	37.47
374.048	35.6
374.256	33.05
374.465	32.58
374.673	31.39
374.882	29.71
375.09	30.78
375.298	30.13
375.507	30.62
375.715	30.3
375.923	30.51
376.132	29.09
376.34	29.77
376.548	31.11
376.757	30.96
376.965	29.83
377.173	30.67
377.381	29.5
377.59	31.46
377.798	32.02
378.006	32.61
378.214	33.44
378.423	34.06
378.631	32.85
378.839	31.78
379.047	30.76
379.255	31.44
379.463	32.92
379.671	33.95
379.879	34.51
380.088	34.61
380.296	35.11
380.504	35.85
380.712	36.37
380.92	36.15
381.128	38.01
381.336	39.12
381.544	37.41
381.752	33.89
381.96	32.65
382.168	30.1
382.376	28.76
382.584	29.6
382.791	29.7
382.999	29.58
383.207	29.88
383.415	29.11
383.623	29.37
383.831	30.24
384.039	31.18
384.247	30.72
384.454	31.41
384.662	31.27
384.87	29.93
385.078	27.76
385.285	26.47
385.493	27.42
385.701	27.1
385.909	25.98
386.116	27.66
386.324	28.31
386.532	29.45
386.739	28.36
386.947	28.95
387.155	29.29
387.362	30.47
387.57	31.13
387.778	29.76
387.985	30.06
388.193	29.35
388.4	27.64
388.608	27.64
388.816	27.68
389.023	28.4
389.231	27.04
389.438	25.57
389.646	25.16
389.853	25.32
390.061	26.31
390.268	26.34
390.475	27.01
390.683	28.03
390.89	28.63
391.098	28.35
391.305	28.9
391.512	29.99
391.72	30.63
391.927	29.44
392.135	28.77
392.342	28.2
392.549	28.21
392.756	28.47
392.964	26.77
393.171	26.87
393.378	26.65
393.586	26.65
393.793	27.41
394	27.62
394.207	28.16
394.414	29.85
394.622	30.73
394.829	31
395.036	31.59
395.243	32.82
395.45	31.31
395.657	31.64
395.864	31.79
396.072	31.66
396.279	30.7
396.486	32.03
396.693	29.72
396.9	29.45
397.107	30.34
397.314	29.25
397.521	29.57
397.728	30.65
397.935	30.51
398.142	29.53
398.349	28.88
398.556	29.13
398.763	27.61
398.97	28.9
399.177	28.94
399.383	27.9
399.59	28.46
399.797	27.95
400.004	27.52
400.211	29.1
400.418	29.19
400.625	28.71
400.831	29.32
401.038	30.15
401.245	29.8
401.452	29.4
401.658	29.18
401.865	28.27
402.072	28.13
402.279	28.09
402.485	26.34
402.692	26.45
402.899	26.87
403.105	26.43
403.312	27.51
403.519	28.59
403.725	28.17
403.932	28.62
404.138	28.31
404.345	28.8
404.552	28.24
404.758	27.84
404.965	27.93
405.171	28.03
405.378	29.08
405.584	27.71
405.791	26.9
405.997	27.15
406.204	25.49
406.41	27.05
406.617	26.99
406.823	27.36
407.029	28.28
407.236	29.13
407.442	29.4
407.649	29.7
407.855	30.94
408.061	31.19
408.268	31.41
408.474	32.39
408.68	31.76
408.887	31.45
409.093	32.03
409.299	32.05
409.505	30.4
409.712	29.75
409.918	29
410.124	28.01
410.33	27.98
410.537	27.44
410.743	27.65
410.949	28.77
411.155	28.96
411.361	27.97
411.567	28.18
411.773	30.52
411.98	31
412.186	30.52
412.392	30.84
412.598	31.5
412.804	31.41
413.01	31.28
413.216	30.61
413.422	31.2
413.628	32.29
413.834	31.79
414.04	30.39
414.246	29.89
414.452	30.42
414.658	30.11
414.864	28.89
415.07	29.21
415.275	28.51
415.481	27.68
415.687	26.99
415.893	25.79
416.099	25.26
416.305	24.82
416.511	23.91
416.716	22.97
416.922	23.15
417.128	23.77
417.334	24.27
417.539	24.25
417.745	23.67
417.951	22.84
418.157	23.45
418.362	23.12
418.568	23.14
418.774	23.26
418.979	23.56
419.185	23.07
419.391	22.32
419.596	21.16
419.802	21.26
420.008	21.28
420.213	25.71
420.419	25.35
420.624	25.64
420.83	25.86
421.035	26.02
421.241	25.82
421.446	25.75
421.652	25.77
421.857	26.19
422.063	25.8
422.268	26.12
422.474	22.5
422.679	22.27
422.885	22.15
423.09	21.6
423.295	21.11
423.501	20.86
423.706	20.99
423.911	20.59
424.117	20.39
424.322	20.54
424.527	20.47
424.733	20.51
424.938	20.23
425.143	20.61
425.349	20.97
425.554	21.71
425.759	22.59
425.964	23.2
426.169	23.59
426.375	24.56
426.58	25.39
426.785	26.24
426.99	25.93
427.195	26.21
427.4	25.89
427.605	26.21
427.811	26.17
428.016	25.89
428.221	25.31
428.426	25.83
428.631	25.08
428.836	24.72
429.041	24.66
429.246	24.71
429.451	25.44
429.656	25.1
429.861	25.27
430.066	25.48
430.271	25.62
430.476	25.35
430.681	25.31
430.886	25.6
431.09	25.36
431.295	24.39
431.5	24.3
431.705	23.06
431.91	23.31
432.115	23.09
432.32	23.09
432.524	22.72
432.729	22.94
432.934	22.26
433.139	22.3
433.343	22.52
433.548	22.97
433.753	22.63
433.958	23.5
434.162	24
434.367	24.88
434.572	24.87
434.776	24.62
434.981	25.35
435.186	25.77
435.39	25.45
435.595	25.18
435.799	25.36
436.004	25.71
436.209	25.62
436.413	25.2
436.618	24.62
436.822	24.85
437.027	25.16
437.231	24.2
437.436	24.63
437.64	24.46
437.845	24.21
438.049	23.38
438.253	23.62
438.458	23.95
438.662	23.84
438.867	23.27
439.071	23.1
439.275	22.59
439.48	22.83
439.684	22.42
439.888	22.58
440.093	22.58
440.297	22.97
440.501	22.93
440.706	22.92
440.91	22.88
441.114	23.38
441.318	23.61
441.523	24.71
441.727	24.65
441.931	24.97
442.135	25.29
442.339	25.64
442.543	25.69
442.748	25.73
442.952	24.96
443.156	24.79
443.36	24.11
443.564	23.59
443.768	22.79
443.972	22.91
444.176	22.46
444.38	21.91
444.584	21.88
444.788	22.02
444.992	21.36
445.196	21.67
445.4	21.37
445.604	21.33
445.808	21.98
446.012	21.72
446.216	21.22
446.42	21.46
446.624	21.76
446.828	21.41
447.032	21.18
447.235	21.69
447.439	21.92
447.643	22.57
447.847	23.46
448.051	22.93
448.254	23.67
448.458	23.65
448.662	23.97
448.866	24.05
449.069	24.11
449.273	24.45
449.477	24.66
449.681	24.49
449.884	24.58
450.088	23.71
450.292	24.03
450.495	23.89
450.699	24.4
450.902	23.78
451.106	23.48
451.31	23.48
451.513	22.98
451.717	22.73
451.92	22.67
452.124	22.35
452.327	22.67
452.531	22.58
452.734	22.89
452.938	22.74
453.141	23.57
453.345	23.87
453.548	24.28
453.752	25.16
453.955	25.04
454.158	24.58
454.362	24.96
454.565	24.91
454.769	24.69
454.972	24.65
455.175	24.74
455.379	24.4
455.582	24.41
455.785	24.82
455.988	24.63
456.192	24.1
456.395	24.05
456.598	23.46
456.801	23.5
457.005	22.84
457.208	22.59
457.411	23.06
457.614	22.71
457.817	22.17
458.021	21.33
458.224	21.05
458.427	21.13
458.63	21.59
458.833	21.63
459.036	21.22
459.239	21.63
459.442	21.71
459.645	22.01
459.848	21.85
460.051	21.9
460.254	22.3
460.457	22.35
460.66	22.87
460.863	22.36
461.066	22.3
461.269	22.96
461.472	23.03
461.675	22.84
461.878	21.95
462.081	22
462.284	22.69
462.486	22.72
462.689	23.18
462.892	23.1
463.095	24.07
463.298	23.9
463.5	24.38
463.703	24.55
463.906	24.54
464.109	24.54
464.311	25.12
464.514	24.52
464.717	24.96
464.92	24.6
465.122	24.74
465.325	24.19
465.528	24.42
465.73	23.45
465.933	23.04
466.135	23.29
466.338	23.66
466.541	23.31
466.743	23.44
466.946	23.75
467.148	23.94
467.351	24.04
467.553	24.42
467.756	24.65
467.958	25.08
468.161	26.08
468.363	25.82
468.566	25.77
468.768	25.83
468.971	25.57
469.173	25.31
469.375	25.34
469.578	24.51
469.78	23.9
469.983	24.66
470.185	24.57
470.387	24.36
470.59	24.36
470.792	24.34
470.994	24.2
471.196	24.74
471.399	24.46
471.601	24.15
471.803	24.58
472.005	24.66
472.208	23.71
472.41	23.74
472.612	23.46
472.814	24.47
473.016	24.24
473.218	24.68
473.421	24.68
473.623	24.14
473.825	24.68
474.027	23.8
474.229	24.03
474.431	24.38
474.633	24.27
474.835	24.28
475.037	23.38
475.239	23.64
475.441	23.56
475.643	23.93
475.845	23.88
476.047	23.65
476.249	24.8
476.451	24.64
476.653	24.66
476.855	24.66
477.057	24.19
477.258	23.63
477.46	22.99
477.662	23.05
477.864	22.82
478.066	23.22
478.268	22.7
478.469	21.69
478.671	21.4
478.873	21.25
479.075	21.11
479.276	21.01
479.478	21.39
479.68	21.73
479.882	21.33
480.083	21.23
480.285	20.76
480.487	20.4
480.688	20.52
480.89	20.41
481.091	19.87
481.293	19.55
481.495	19.39
481.696	18.77
481.898	18.53
482.099	18.16
482.301	17.76
482.502	17.55
482.704	17.42
482.905	17.25
483.107	17.09
483.308	17
483.51	16.89
483.711	16.85
483.913	17.11
484.114	17.14
484.315	17.33
484.517	17.43
484.718	17.7
484.92	17.87
485.121	18.07
485.322	18
485.524	18.29
485.725	18.5
485.926	18.34
486.127	18.09
486.329	17.91
486.53	18.11
486.731	18.09
486.932	17.95
487.134	18.1
487.335	18.04
487.536	18.34
487.737	18.22
487.938	18.17
488.139	18.1
488.341	18.39
488.542	18.37
488.743	18.02
488.944	18.05
489.145	18.03
489.346	17.83
489.547	17.81
489.748	17.64
489.949	17.68
490.15	17.47
490.351	17.5
490.552	17.4
490.753	17.46
490.954	17.67
491.155	17.83
491.356	17.93
491.557	18.2
491.758	18.57
491.959	18.71
492.159	18.7
492.36	19.26
492.561	19.59
492.762	19.73
492.963	20.27
493.164	20.27
493.364	19.92
493.565	20.09
493.766	20.34
493.967	20.25
494.167	20.02
494.368	20.45
494.569	20
494.769	20.54
494.97	20.61
495.171	20.47
495.371	20.13
495.572	20.65
495.773	20.85
495.973	20.17
496.174	20.12
496.375	20.19
496.575	19.93
496.776	20.7
496.976	20.31
497.177	20.4
497.377	20.41
497.578	20.33
497.778	20.6
497.979	20.5
498.179	20.84
498.38	20.79
498.58	20.88
498.78	20.9
498.981	20.31
499.181	20.44
499.382	20.63
499.582	20.22
499.782	20.8
499.983	20.4
500.183	20.39
500.383	21.11
500.584	20.86
500.784	21.61
500.984	21.63
501.184	21.56
501.385	21.24
501.585	20.83
501.785	21.25
501.985	21.48
502.185	21.31
502.386	21.64
502.586	21.63
502.786	21.47
502.986	20.91
503.186	21.29
503.386	21.42
503.586	21.77
503.786	21.88
503.987	21.9
504.187	22.06
504.387	22.08
504.587	21.5
504.787	21.41
504.987	21.91
505.187	22.13
505.387	22.14
505.587	22.38
505.786	22.58
505.986	22.82
506.186	23.42
506.386	23.44
506.586	23.45
506.786	23.92
506.986	23.45
507.186	23.73
507.386	23.68
507.585	23.73
507.785	23.7
507.985	23.62
508.185	23.62
508.384	22.93
508.584	22.24
508.784	22.48
508.984	22.56
509.183	22.83
509.383	22.56
509.583	22.6
509.782	22.16
509.982	21.96
510.182	22.06
510.381	21.98
510.581	21.73
510.781	22.28
510.98	22.29
511.18	22.17
511.379	22.24
511.579	21.99
511.778	21.89
511.978	22.09
512.177	21.96
512.377	22.16
512.576	22.62
512.776	23.6
512.975	23.86
513.175	23.83
513.374	24.03
513.573	24.34
513.773	24.77
513.972	24.96
514.172	25.46
514.371	25.89
514.57	25.75
514.77	25.29
514.969	25.06
515.168	24.82
515.367	24.59
515.567	24.57
515.766	24.02
515.965	23.45
516.164	23.74
516.364	23.49
516.563	23.44
516.762	23.14
516.961	23.36
517.16	23.22
517.359	22.92
517.559	23
517.758	22.66
517.957	23
518.156	23.77
518.355	23.47
518.554	23.52
518.753	23.93
518.952	24.13
519.151	24.3
519.35	24.85
519.549	24.81
519.748	25.28
519.947	25.7
520.146	25.4
520.345	25.32
520.544	25.59
520.743	25.65
520.942	25.28
521.141	25.61
521.339	25.26
521.538	25
521.737	25.72
521.936	25.63
522.135	25.53
522.333	26.45
522.532	26.19
522.731	26.45
522.93	26.35
523.129	26.67
523.327	25.97
523.526	26.2
523.725	25.86
523.923	25.26
524.122	25.13
524.321	25.13
524.519	24.45
524.718	24.81
524.917	24.88
525.115	24.86
525.314	24.57
525.512	24.96
525.711	24.71
525.909	24.61
526.108	24.97
526.306	25
526.505	25
526.703	25
526.902	24.73
527.1	24.33
527.299	24.24
527.497	24.18
527.696	23.98
527.894	24.14
528.092	24.32
528.291	24.1
528.489	24.08
528.688	24.14
528.886	24.09
529.084	24.27
529.283	24.47
529.481	24.75
529.679	25.06
529.877	25.37
530.076	25.65
530.274	25.73
530.472	26.02
530.67	26.2
530.869	26.22
531.067	26.19
531.265	26.36
531.463	26.57
531.661	26.34
531.859	26.25
532.057	26.51
532.255	26.03
532.454	25.98
532.652	26.17
532.85	26.07
533.048	25.97
533.246	26.34
533.444	25.84
533.642	25.79
533.84	25.87
534.038	26
534.236	25.49
534.434	25.9
534.632	25.9
534.83	26.12
535.027	26.22
535.225	26.52
535.423	26.44
535.621	27.01
535.819	27
536.017	27.14
536.215	27.31
536.412	27.68
536.61	27.85
536.808	27.93
537.006	27.7
537.203	28
537.401	28.34
537.599	28.38
537.797	28.27
537.994	28.45
538.192	28.74
538.39	28.46
538.587	28.56
538.785	28.39
538.983	28.59
539.18	28.58
539.378	28.39
539.575	28.13
539.773	28.26
539.97	28.27
540.168	28.2
540.366	28.11
540.563	28.32
540.761	28.43
540.958	28.25
541.155	28.25
541.353	28.39
541.55	28.57
541.748	28.54
541.945	28.38
542.143	28.43
542.34	28.31
542.537	28.24
542.735	28.3
542.932	28.19
543.129	28.67
543.327	28.77
543.524	28.64
543.721	28.46
543.919	28.62
544.116	28.46
544.313	28.36
544.51	28.81
544.708	28.74
544.905	28.38
545.102	28.75
545.299	28.79
545.496	29.03
545.693	29.39
545.891	29.65
546.088	29.84
546.285	30.5
546.482	30.69
546.679	30.7
546.876	31.44
547.073	32.4
547.27	32.67
547.467	33.26
547.664	32.82
547.861	32.41
548.058	32.64
548.255	33.13
548.452	33.5
548.649	33.94
548.846	34.42
549.043	34.45
549.24	33.94
549.437	33.71
549.633	32.68
549.83	33.43
550.027	34.21
550.224	33.58
550.421	33.15
550.618	32.42
550.814	32.23
551.011	32.31
551.208	32.15
551.405	32.19
551.601	32.19
551.798	32.79
551.995	32.86
552.191	32.5
552.388	32.65
552.585	32.66
552.781	33.09
552.978	33.18
553.175	32.69
553.371	32.46
553.568	32.54
553.764	32.78
553.961	32.89
554.157	32.95
554.354	33.17
554.55	33.97
554.747	33.93
554.943	33.85
555.14	34.15
555.336	34.45
555.533	35.01
555.729	34.78
555.926	34.06
556.122	33.98
556.318	33.52
556.515	34.15
556.711	33.77
556.907	34.78
557.104	35.44
557.3	35.22
557.496	35.27
557.693	34.92
557.889	35.57
558.085	35.91
558.281	36.04
558.478	36.68
558.674	36.5
558.87	36.26
559.066	35.42
559.262	34.85
559.459	35.32
559.655	35.36
559.851	36.25
560.047	36.01
560.243	36.56
560.439	36.92
560.635	36.43
560.831	36.43
561.027	36.87
561.223	37.17
561.419	37.43
561.615	37.14
561.811	37.06
562.007	35.86
562.203	36.19
562.399	36.06
562.595	35.58
562.791	35.7
562.987	36.08
563.183	35.83
563.379	36.09
563.575	36.39
563.771	36.21
563.966	35.78
564.162	36.87
564.358	36.48
564.554	36.37
564.75	36.63
564.945	36.7
565.141	36.23
565.337	36.51
565.533	35.93
565.728	35.82
565.924	36.41
566.12	37.18
566.315	36.78
566.511	36.29
566.707	36.11
566.902	35.72
567.098	35.36
567.293	34.86
567.489	35.29
567.684	35.45
567.88	34.74
568.076	34.63
568.271	34.73
568.467	35.13
568.662	36.15
568.858	36.46
569.053	36.6
569.248	36.96
569.444	37.67
569.639	37.14
569.835	36.96
570.03	37.09
570.225	36.98
570.421	36.52
570.616	36.22
570.812	36.07
571.007	36.11
571.202	36.26
571.397	36.12
571.593	35.6
571.788	35.18
571.983	35.73
572.178	36.28
572.374	36.41
572.569	36.75
572.764	36.5
572.959	35.58
573.154	35.37
573.35	35.24
573.545	35.79
573.74	35.74
573.935	36
574.13	35.26
574.325	34.18
574.52	34.72
574.715	34.26
574.91	34.25
575.105	34.87
575.3	34.87
575.495	35.03
575.69	35.24
575.885	35.79
576.08	36.11
576.275	37.19
576.47	38.25
576.665	37.48
576.86	37.91
577.055	38.09
577.25	38.53
577.444	39
577.639	39.16
577.834	38.32
578.029	38.19
578.224	38.38
578.418	38.35
578.613	38.83
578.808	39.07
579.003	39.49
579.197	39.62
579.392	39.83
579.587	39.61
579.781	39.78
579.976	40.65
580.171	40.73
580.365	40.48
580.56	39.62
580.755	39.91
580.949	39.68
581.144	39.94
581.338	39.48
581.533	39.69
581.727	39.61
581.922	39.18
582.116	39.13
582.311	39.01
582.505	39.78
582.7	40.05
582.894	39.35
583.089	39.06
583.283	38.3
583.478	38.77
583.672	38.12
583.866	37.32
584.061	36.74
584.255	35.8
584.449	36.74
584.644	36.74
584.838	36.86
585.032	37.2
585.226	37.83
585.421	37.78
585.615	37.99
585.809	38.32
586.003	39.79
586.198	40.58
586.392	41.21
586.586	40.82
586.78	40.5
586.974	40.85
587.168	40.66
587.363	40.33
587.557	40.27
587.751	39.96
587.945	40.3
588.139	40.12
588.333	40.9
588.527	40.83
588.721	40.47
588.915	40.64
589.109	40.51
589.303	39.79
589.497	39.65
589.691	39.86
589.885	40.1
590.079	39.82
590.273	39.81
590.466	38.52
590.66	38.31
590.854	38.38
591.048	38.47
591.242	38.16
591.436	39.01
591.629	38.81
591.823	39.49
592.017	39.3
592.211	39.02
592.404	39.16
592.598	39.41
592.792	38.89
592.986	38.69
593.179	38.23
593.373	38.29
593.567	38.04
593.76	38.67
593.954	38.22
594.147	38.65
594.341	38.21
594.535	37.56
594.728	38.05
594.922	38.97
595.115	38.53
595.309	38.52
595.502	38.57
595.696	38.2
595.889	38.37
596.083	38.57
596.276	37.83
596.47	38.54
596.663	39.27
596.856	39
597.05	38.68
597.243	39.47
597.437	39.31
597.63	39.1
597.823	39.91
598.017	39.81
598.21	39.4
598.403	40.16
598.596	39.94
598.79	39.45
598.983	39.6
599.176	39.91
599.369	39.78
599.563	40.53
599.756	41.38
599.949	41.59
600.142	41.59
600.335	42.39
600.528	43.08
600.722	42.81
600.915	43.32
601.108	43.58
601.301	43.97
601.494	43.65
601.687	43.41
601.88	43.16
602.073	42.24
602.266	41.46
602.459	40.17
602.652	39.15
602.845	39.33
603.038	38.37
603.231	37.91
603.424	37.47
603.617	37.46
603.809	37.14
604.002	37.21
604.195	37.63
604.388	38.02
604.581	38.79
604.774	38.84
604.966	39.44
605.159	40.23
605.352	39.94
605.545	40.5
605.737	40.23
605.93	40.83
606.123	40.79
606.316	40.62
606.508	40.67
606.701	40.27
606.894	41.19
607.086	40.96
607.279	40.86
607.471	41.41
607.664	40.69
607.857	40.75
608.049	41.2
608.242	41.26
608.434	41.46
608.627	40.99
608.819	40.74
609.012	39.9
609.204	39.26
609.397	39.26
609.589	39.83
609.782	39.47
609.974	39.99
610.166	38.62
610.359	38.72
610.551	39.41
610.743	39.88
610.936	40.97
611.128	41.43
611.32	42.25
611.513	42.97
611.705	42.68
611.897	43.92
612.09	43.99
612.282	45.43
612.474	45.59
612.666	44.54
612.858	44.78
613.051	44.59
613.243	44.04
613.435	43.92
613.627	42.87
613.819	43.08
614.011	42.76
614.203	42.3
614.395	42.26
614.588	42.05
614.78	42.04
614.972	43.42
615.164	43.47
615.356	44.11
615.548	43.56
615.74	44.69
615.932	43.93
616.124	44.41
616.315	45.21
616.507	45.47
616.699	45.22
616.891	44.87
617.083	43
617.275	42.97
617.467	43.22
617.659	44.05
617.85	43.21
618.042	43.52
618.234	42.91
618.426	42.75
618.618	42.21
618.809	41.64
619.001	41.82
619.193	42.72
619.384	43.14
619.576	43.5
619.768	43.14
619.959	43.76
620.151	43.73
620.343	44.33
620.534	44.07
620.726	43.55
620.917	43.89
621.109	44.39
621.301	43.33
621.492	42.79
621.684	41.94
621.875	42.27
622.067	41.71
622.258	41.21
622.45	41.27
622.641	41.96
622.832	43.12
623.024	43.46
623.215	43.98
623.407	43.84
623.598	44.93
623.789	44.92
623.981	44.36
624.172	44.49
624.363	43.95
624.555	42.92
624.746	42.4
624.937	40.93
625.129	41.1
625.32	40.82
625.511	41.85
625.702	40.81
625.893	41.39
626.085	41.48
626.276	41.75
626.467	42.17
626.658	43.13
626.849	43.1
627.04	43.41
627.231	42.61
627.422	42.74
627.614	41.54
627.805	41.22
627.996	40.77
628.187	40.97
628.378	40.3
628.569	40.65
628.76	40.14
628.951	40.19
629.142	40.38
629.332	41.08
629.523	40.42
629.714	40.64
629.905	41.63
630.096	41.44
630.287	41.1
630.478	41.4
630.669	40.93
630.859	40.88
631.05	39.87
631.241	40.51
631.432	40.72
631.623	41.1
631.813	42.48
632.004	43.15
632.195	42.55
632.385	42.6
632.576	43.03
632.767	43.46
632.957	43.58
633.148	45.84
633.339	44.79
633.529	44.14
633.72	43.56
633.91	42.69
634.101	41.3
634.292	42.73
634.482	42.79
634.673	42.96
634.863	42.75
635.054	42.65
635.244	41.52
635.435	42.56
635.625	43.41
635.815	44.09
636.006	44.08
636.196	44.26
636.387	43.49
636.577	43.37
636.767	43.42
636.958	44.45
637.148	44.08
637.338	44.68
637.529	44.05
637.719	44.47
637.909	45.16
638.099	45.57
638.29	46.7
638.48	47.06
638.67	46.54
638.86	46.37
639.05	45.98
639.241	47.19
639.431	46.35
639.621	46.93
639.811	46.43
640.001	46.68
640.191	46.3
640.381	45.78
640.571	47.1
640.761	47.47
640.951	47.33
641.141	47.77
641.331	47.49
641.521	47.76
641.711	47.65
641.901	47.51
642.091	47.59
642.281	47.15
642.471	47.44
642.661	47.07
642.851	48.1
643.041	48.84
643.231	49.19
643.42	50.37
643.61	51.14
643.8	51.84
643.99	51.42
644.18	51.2
644.369	51.03
644.559	51.53
644.749	51.41
644.939	50.75
645.128	48.92
645.318	47.08
645.508	45.54
645.697	44.26
645.887	43.4
646.076	43.08
646.266	43.43
646.456	44.68
646.645	43.5
646.835	44.3
647.024	43.24
647.214	44.04
647.403	44.72
647.593	43.87
647.782	45.43
647.972	45.54
648.161	46.08
648.351	45.59
648.54	45.77
648.73	46.92
648.919	46.06
649.108	46.57
649.298	47.02
649.487	47.29
649.677	48.46
649.866	47.63
650.055	47.31
650.244	47.92
650.434	47.71
650.623	47.27
650.812	46.68
651.002	46.06
651.191	46.81
651.38	45.58
651.569	44.86
651.758	43.75
651.947	42.95
652.137	42.71
652.326	42.22
652.515	42.52
652.704	42.29
652.893	43.23
653.082	44.23
653.271	44.55
653.46	45.73
653.649	47.17
653.838	47.05
654.027	46.6
654.216	47.49
654.405	47.47
654.594	47.02
654.783	47.62
654.972	45.48
655.161	45
655.35	43.59
655.539	43.69
655.728	43.31
655.916	45.3
656.105	46.46
656.294	46.18
656.483	45.53
656.672	44.41
656.86	42.77
657.049	43.74
657.238	43.8
657.427	44.85
657.615	43.98
657.804	43.76
657.993	41.36
658.181	40.84
658.37	41.38
658.559	41.4
658.747	42.61
658.936	43.85
659.125	46.24
659.313	46.01
659.502	45.22
659.69	45.28
659.879	45.63
660.067	46.98
660.256	47.71
660.444	46.98
660.633	47.36
660.821	47.32
661.01	47.48
661.198	45.67
661.387	45.26
661.575	46.04
661.763	47.47
661.952	47.38
662.14	48.84
662.328	48.62
662.517	49.81
662.705	50.95
662.893	51
663.082	51.54
663.27	49.93
663.458	50.11
663.646	48.99
663.834	49.12
664.023	50.21
664.211	49.47
664.399	51.03
664.587	51.41
664.775	51.94
664.963	51.65
665.152	51.03
665.34	51.64
665.528	52
665.716	53.75
665.904	52.9
666.092	50.96
666.28	51.47
666.468	50.72
666.656	49.08
666.844	49.12
667.032	49.46
667.22	49.19
667.408	49.25
667.596	49.88
667.784	50.09
667.971	50.85
668.159	51.27
668.347	51.02
668.535	50.12
668.723	50.86
668.911	49.56
669.098	50.24
669.286	50.54
669.474	51.11
669.662	51.01
669.849	51.84
670.037	52.42
670.225	53.22
670.413	51.68
670.6	52.41
670.788	52.95
670.976	53.11
671.163	53.02
671.351	52.87
671.538	51.05
671.726	50.1
671.913	47.64
672.101	47.04
672.289	46.96
672.476	47.58
672.664	47.38
672.851	47.57
673.039	47.23
673.226	47.38
673.413	48.58
673.601	49.61
673.788	50.36
673.976	51.55
674.163	51.15
674.35	50.4
674.538	50.83
674.725	50.1
674.912	49.5
675.1	51.05
675.287	50.84
675.474	49.03
675.662	48.98
675.849	48.9
676.036	48.04
676.223	49.29
676.411	50.3
676.598	49.72
676.785	50.02
676.972	49.22
677.159	49.2
677.346	47.91
677.533	48.81
677.721	47.8
677.908	47.43
678.095	48.21
678.282	46.39
678.469	46.51
678.656	47.51
678.843	47.71
679.03	48.48
679.217	47.44
679.404	47.64
679.591	47.77
679.778	48.13
679.964	48.33
680.151	47.42
680.338	48.47
680.525	48.29
680.712	47.72
680.899	49.6
681.086	49.11
681.272	49.2
681.459	49.63
681.646	50.86
681.833	51.92
682.02	51.08
682.206	53.33
682.393	53.22
682.58	52.56
682.766	53.31
682.953	50.75
683.14	51.82
683.326	53.77
683.513	53.49
683.7	54.48
683.886	54.5
684.073	55.35
684.259	54.98
684.446	54.36
684.632	54.04
684.819	53.81
685.005	54.24
685.192	53.63
685.378	51.63
685.565	49.88
685.751	47.37
685.938	47.63
686.124	48.4
686.31	47.31
686.497	47.37
686.683	48.08
686.87	47.82
687.056	47.24
687.242	46.65
687.429	46.9
687.615	49.57
687.801	50.71
687.987	49.14
688.174	49.36
688.36	50.84
688.546	52.05
688.732	52.33
688.918	51.69
689.105	52.16
689.291	52.87
689.477	54.47
689.663	54.66
689.849	54.3
690.035	55.87
690.221	56.94
690.407	57.18
690.593	58.64
690.779	58.69
690.965	60.34
691.151	60.98
691.337	62.56
691.523	61.02
691.709	59.28
691.895	60.56
692.081	61.98
692.267	61.95
692.453	60.07
692.639	59.29
692.825	58.48
693.011	57.1
693.196	57.26
693.382	54.71
693.568	55.77
693.754	56.46
693.94	54.63
694.125	53.66
694.311	52.19
694.497	53.1
694.682	52.56
694.868	52.99
695.054	51.34
695.239	50.98
695.425	51.71
695.611	50.53
695.796	50.71
695.982	49.72
696.168	48.83
696.353	48.96
696.539	48.66
696.724	47.85
696.91	47.39
697.095	48.86
697.281	48.74
697.466	49.24
697.652	49.59
697.837	49.86
698.023	50.32
698.208	49.76
698.393	49.35
698.579	49.61
698.764	48.81
698.949	50.51
699.135	51.06
699.32	51.03
699.505	49.34
699.691	49.17
699.876	48.4
700.061	49.67
700.246	50.83
700.432	51.94
700.617	50.86
700.802	53.29
700.987	52.89
701.172	52.94
701.358	54.93
701.543	56.87
701.728	58.4
701.913	58.39
702.098	55.84
702.283	57.23
702.468	58.7
702.653	60.39
702.838	59.91
703.023	58.36
703.208	58.76
703.393	58.48
703.578	56.73
703.763	58.31
703.948	61.01
704.133	63.16
704.318	64.97
704.503	64.13
704.688	66.51
704.873	68.17
705.057	70.63
705.242	71.12
705.427	70.62
705.612	71.79
705.797	70.3
705.981	70.71
706.166	71.97
706.351	67.77
706.536	65.64
706.72	62.83
706.905	62.87
707.09	61.17
707.274	60.69
707.459	61.17
707.644	62.28
707.828	59.64
708.013	58.29
708.197	55.19
708.382	56.02
708.567	56.58
708.751	57.55
708.936	55.2
709.12	54.87
709.305	53.49
709.489	53.02
709.673	52.95
709.858	53.59
710.042	52.94
710.227	53.25
710.411	53.32
710.596	53.12
710.78	51.6
710.964	53.65
711.149	54.09
711.333	54.49
711.517	54.86
711.702	55.62
711.886	54.55
712.07	55.09
712.254	56.38
712.438	56.7
712.623	57.23
712.807	58.61
712.991	58.71
713.175	57.21
713.359	58.91
713.544	59.61
713.728	57.72
713.912	59.65
714.096	58.78
714.28	59
714.464	60.62
714.648	61.46
714.832	59.38
715.016	58.87
715.2	59.55
715.384	59.72
715.568	59.57
715.752	58.4
715.936	58.59
716.12	60.19
716.304	60.12
716.488	56.6
716.671	55.93
716.855	57.03
717.039	56.42
717.223	56.25
717.407	54.73
717.59	54.63
717.774	57.6
717.958	56.53
718.142	55.68
718.325	54.03
718.509	58.29
718.693	56.34
718.877	56.13
719.06	56.03
719.244	59.34
719.428	61.95
719.611	62.86
719.795	62.38
719.978	64.04
720.162	63.41
720.345	62.69
720.529	64.45
720.713	66.29
720.896	67.94
721.08	70.71
721.263	68.92
721.446	66.18
721.63	64.14
721.813	65.14
721.997	63.72
722.18	66.86
722.364	69.67
722.547	66.8
722.73	71.61
722.914	71.14
723.097	67.27
723.28	69.24
723.464	69.74
723.647	70.66
723.83	69.72
724.013	70.63
724.197	70.64
724.38	69.81
724.563	68.96
724.746	66.15
724.929	67.55
725.112	68.1
725.296	69.53
725.479	70.25
725.662	68.73
725.845	68.84
726.028	70.26
726.211	66.26
726.394	66.04
726.577	65.68
726.76	64.55
726.943	62.64
727.126	64.3
727.309	61.03
727.492	61.17
727.675	62.33
727.858	62.82
728.041	62.17
728.224	65.36
728.407	66.44
728.589	65.28
728.772	65.12
728.955	67
729.138	64.87
729.321	62.25
729.503	61.29
729.686	61.61
729.869	59.82
730.052	61.21
730.234	61.18
730.417	60.89
730.6	62.79
730.782	63.2
730.965	62.39
731.148	63.15
731.33	66.06
731.513	62.62
731.695	63.89
731.878	64.28
732.061	64.51
732.243	63.32
732.426	63.28
732.608	63.37
732.791	61.79
732.973	61.75
733.156	62.3
733.338	63.61
733.52	68.87
733.703	68.73
733.885	70.3
734.068	70.59
734.25	71.4
734.432	69.68
734.615	69.54
734.797	72.45
734.979	72.89
735.162	74.25
735.344	73.11
735.526	75.25
735.708	72.88
735.891	73.04
736.073	72.35
736.255	73.43
736.437	75.39
736.619	79.8
736.802	79.94
736.984	79.98
737.166	79.36
737.348	81.3
737.53	79.41
737.712	78.95
737.894	77.74
738.076	77.36
738.258	76.23
738.44	75.21
738.622	73.79
738.804	72.32
738.986	73.02
739.168	73.75
739.35	74.19
739.532	73.78
739.714	76.02
739.896	77.03
740.078	80.22
740.259	80.67
740.441	84.02
740.623	79.5
740.805	80.74
740.987	79.69
741.168	76.91
741.35	73.37
741.532	71.34
741.714	72.22
741.895	71.89
742.077	69.03
742.259	68.04
742.44	68.44
742.622	70.81
742.804	71.35
742.985	74.09
743.167	75.45
743.348	78.28
743.53	83.3
743.711	80.81
743.893	82.58
744.075	84.28
744.256	86.24
744.438	87.76
744.619	86.92
744.8	88.49
744.982	85.84
745.163	89.21
745.345	85.91
745.526	85.79
745.707	91.68
745.889	92.64
746.07	87.75
746.252	85.22
746.433	81.98
746.614	82.2
746.795	78.02
746.977	78.57
747.158	78.37
747.339	79.4
747.52	78.78
747.702	78.63
747.883	76.39
748.064	81.91
748.245	85.14
748.426	86.26
748.607	88.34
748.788	91.35
748.97	94
749.151	91.04
749.332	96.88
749.513	95.09
749.694	95.13
749.875	97.1
750.056	93.05
750.237	90.37
750.418	90.9
750.599	88.03
750.78	84.56
750.96	79.14
751.141	80.17
751.322	78.28
751.503	80.26
751.684	77.99
751.865	77.93
752.046	80.96
752.226	81.99
752.407	84.57
752.588	84.77
752.769	91.14
752.949	95.29
753.13	93.22
753.311	97.35
753.492	98.87
753.672	98.4
753.853	100.74
754.034	100.41
754.214	101.31
754.395	99.69
754.575	101.59
754.756	96.59
754.937	101.14
755.117	104.06
755.298	96.27
755.478	94.83
755.659	94.66
755.839	88.29
756.02	88.78
756.2	89.96
756.381	86.81
756.561	88.74
756.741	88.33
756.922	84.97
757.102	84.97
757.283	87.12
757.463	88.05
757.643	87.92
757.823	86.83
758.004	87.27
758.184	84.97
758.364	89.24
758.545	85.24
758.725	87.49
758.905	87.01
759.085	88.18
759.265	87.33
759.446	85.56
759.626	82.09
759.806	83.74
759.986	77.92
760.166	81.5
760.346	78.97
760.526	81.64
760.706	83.39
760.886	78.44
761.066	76.6
761.246	77.45
761.426	75.63
761.606	74.68
761.786	70.97
761.966	70.7
762.146	66.39
762.326	63.64
762.506	62.65
762.686	59.88
762.866	61.4
763.046	62.89
763.225	61.6
763.405	61.51
763.585	64.3
763.765	68.07
763.945	70.49
764.124	74.16
764.304	77.94
764.484	81.11
764.664	82.89
764.843	84.8
765.023	88.4
765.203	88.89
765.382	88.28
765.562	88.41
765.741	89.36
765.921	89.36
766.101	88.44
766.28	87.73
766.46	85.69
766.639	86.76
766.819	87.53
766.998	83.7
767.178	87.03
767.357	92.1
767.537	91.94
767.716	94.7
767.896	98.03
768.075	97.7
768.254	103.38
768.434	108.74
768.613	115.7
768.792	120.42
768.972	119.13
769.151	118.82
769.33	117.24
769.51	121.58
769.689	118.97
769.868	119.93
770.047	121.12
770.226	118.33
770.406	113.36
770.585	107.92
770.764	104.53
770.943	104.32
771.122	100
771.301	100.03
771.48	103.87
771.66	103.61
771.839	101.82
772.018	105.77
772.197	108.64
772.376	113.21
772.555	122.02
772.734	126.72
772.913	124.81
773.092	131.42
773.271	121.39
773.449	118.34
773.628	120.74
773.807	118.46
773.986	110.97
774.165	109.99
774.344	104.88
774.523	106.01
774.701	100.57
774.88	105.45
775.059	104.6
775.238	116.54
775.417	112.58
775.595	111.6
775.774	122.28
775.953	127.28
776.131	126.61
776.31	132.4
776.489	119.9
776.667	120.19
776.846	123.09
777.025	120.31
777.203	118.82
777.382	121.16
777.56	129.45
777.739	121.61
777.917	126.44
778.096	120.49
778.274	115.2
778.453	128.12
778.631	136.75
778.81	126.42
778.988	132.05
779.166	129.7
779.345	124.43
779.523	122.88
779.702	127.47
779.88	124.41
780.058	131.03
780.237	142.06
780.415	128.35
780.593	125.5
780.771	130.69
780.95	134.07
781.128	137.64
781.306	147.27
781.484	144.18
781.662	133.32
781.841	131.68
782.019	130.32
782.197	118.3
782.375	125.35
782.553	135.2
782.731	142.77
782.909	141.23
783.087	139.26
783.265	146.53
783.443	135.57
783.621	153.3
783.799	152.45
783.977	159.66
784.155	175.82
784.333	177.58
784.511	160.55
784.689	145.99
784.867	142.63
785.045	144.72
785.223	139.66
785.4	144.08
785.578	120.25
785.756	117.52
785.934	111.72
786.112	106.57
786.289	94.32
786.467	93.5
786.645	94.35
786.823	94.08
787	94.58
787.178	92.76
787.356	93.52
787.533	104.4
787.711	114.35
787.889	116.6
788.066	129.6
788.244	149.08
788.421	149.12
788.599	144.51
788.776	144.02
788.954	129.19
789.131	125.65
789.309	124.33
789.486	124.93
789.664	118.25
789.841	123.76
790.019	110.89
790.196	108.68
790.373	108.92
790.551	118.12
790.728	118.52
790.906	131.59
791.083	140.42
791.26	146.85
791.437	145.06
791.615	144.25
791.792	143.05
791.969	159.85
792.146	164.47
792.324	160.41
792.501	157.29
792.678	160.01
792.855	162.36
793.032	149.81
793.209	152.13
793.387	166.34
793.564	163.22
793.741	152.47
793.918	142.85
794.095	139.51
794.272	140.52
794.449	136.09
794.626	141.59
794.803	145.31
794.98	155.72
795.157	148.67
795.334	139.8
795.511	144.63
795.688	153.77
795.864	166.14
796.041	162.65
796.218	170.63
796.395	176.72
796.572	182.06
796.749	203.55
796.925	193.89
797.102	197.66
797.279	199.79
797.456	205.92
797.632	203.34
797.809	180.13
797.986	184.29
798.162	192.8
798.339	185.99
798.516	167.38
798.692	140.72
798.869	142.57
799.046	137.13
799.222	147.79
799.399	146.13
799.575	152.9
799.752	158.02
799.928	157.97
800.105	150.27
800.281	162.4
800.458	182.1
800.634	213.57
800.811	208.59
800.987	211.82
801.163	195.13
801.34	210.07
801.516	191.42
801.692	191.41
801.869	207.46
802.045	198.87
802.221	165.17
802.398	170.66
802.574	154.55
802.75	167.63
802.926	165
803.103	157.17
803.279	141.06
803.455	142.24
803.631	141.71
803.807	144.96
803.983	152.52
804.16	173.7
804.336	168.47
804.512	156.64
804.688	140.58
804.864	141.88
805.04	153.53
805.216	157.65
805.392	178.15
805.568	175.24
805.744	156.53
805.92	139.62
806.096	139.41
806.272	140.82
806.448	137.8
806.623	155.97
806.799	156.66
806.975	156.66
807.151	166.19
807.327	152.13
807.503	161.18
807.678	167.86
807.854	185.99
808.03	198.88
808.206	170.55
808.381	182.76
808.557	164.41
808.733	166.14
808.908	159.57
809.084	154.01
809.26	159.22
809.435	156.66
809.611	151.34
809.787	151.5
809.962	151.14
810.138	174.25
810.313	178.32
810.489	185.48
810.664	178.11
810.84	176.75
811.015	193.92
811.191	190.5
811.366	208.05
811.542	214.65
811.717	244.17
811.892	236.32
812.068	247.04
812.243	260.38
812.419	268.84
812.594	291.39
812.769	303.98
812.944	291.97
813.12	290.97
813.295	228.23
813.47	243.56
813.645	221.01
813.821	199.26
813.996	176.12
814.171	159.43
814.346	164.35
814.521	160.06
814.697	180.87
814.872	194.6
815.047	195.79
815.222	216.43
815.397	217.72
815.572	244.88
815.747	229.76
815.922	223.84
816.097	247.43
816.272	242.31
816.447	278.17
816.622	237.96
816.797	218.3
816.972	228.42
817.147	239.59
817.322	208.96
817.496	187.2
817.671	221.68
817.846	220.15
818.021	196.45
818.196	190.87
818.371	175.22
818.545	167.14
818.72	173.91
818.895	153.64
819.069	149
819.244	152.21
819.419	137.83
819.594	126
819.768	108.47
819.943	99.44
820.117	88.16
820.292	79.18
820.467	75.22
820.641	67.58
820.816	64.29
820.99	60.9
821.165	58.73
821.339	59.01
821.514	56
821.688	57.47
821.863	56.74
822.037	56.67
822.212	57.45
822.386	56.36
822.56	59.21
822.735	63.24
822.909	66.49
823.084	69.92
823.258	70.56
823.432	77.13
823.606	78.34
823.781	84.16
823.955	86
824.129	92.55
824.303	99.04
824.478	95.42
824.652	95.48
824.826	88.86
825	84.76
825.174	88.3
825.348	84.72
825.523	81.85
825.697	80.08
825.871	78.58
826.045	77.15
826.219	74.65
826.393	74.27
826.567	72.58
826.741	77.57
826.915	81.6
827.089	81.97
827.263	88.14
827.437	97.63
827.611	102.71
827.784	110.08
827.958	121.58
828.132	144.56
828.306	154.52
828.48	172.41
828.654	173.87
828.827	183.05
829.001	189.55
829.175	193.91
829.349	186.85
829.522	189.75
829.696	198.97
829.87	181.25
830.044	161.86
830.217	171.31
830.391	184.37
830.565	180.15
830.738	175.99
830.912	173.86
831.085	169.77
831.259	161.81
831.432	152.52
831.606	139.53
831.779	120.92
831.953	114.31
832.126	105.63
832.3	97.05
832.473	99.78
832.647	97.65
832.82	92.43
832.994	92.3
833.167	97.59
833.34	95.76
833.514	100.19
833.687	102.63
833.86	105.27
834.034	117.56
834.207	119.71
834.38	121.53
834.553	126.86
834.727	131.89
834.9	129.03
835.073	130.12
835.246	150.67
835.419	156.98
835.593	173.95
835.766	189.86
835.939	170.22
836.112	159.92
836.285	169.17
836.458	170.21
836.631	204.12
836.804	227.01
836.977	216.86
837.15	219.39
837.323	210.31
837.496	216.58
837.669	221.63
837.842	230.88
838.015	279.72
838.188	246.26
838.361	240.5
838.533	210.11
838.706	222.39
838.879	229.55
839.052	234.83
839.225	232.78
839.398	227.06
839.57	204.4
839.743	207.93
839.916	201.24
840.088	210.7
840.261	214.07
840.434	215.03
840.607	185.12
840.779	192.21
840.952	169.13
841.124	181.65
841.297	179.71
841.47	188.06
841.642	200.6
841.815	243.12
841.987	250.21
842.16	262.24
842.332	287.88
842.505	329.56
842.677	379.03
842.85	337.96
843.022	339.8
843.194	407.13
843.367	406.84
843.539	348.5
843.712	397.47
843.884	420.1
844.056	454.04
844.229	567.29
844.401	553
844.573	600.24
844.745	1092.02
844.918	1020.83
845.09	1377.94
845.262	12880
845.434	-8308.33
845.606	3547.17
845.779	8213.04
845.951	1489.55
846.123	1180.25
846.295	868.88
846.467	477.78
846.639	530.81
846.811	438.08
846.983	374.13
847.155	357.1
847.327	362.75
847.499	341.12
847.671	330.06
847.843	417.15
848.015	346.02
848.187	400.62
848.359	545.68
848.531	1202.01
848.703	1643.75
848.875	796.48
849.047	507.59
849.218	693.1
849.39	698.75
849.562	469.42
849.734	459.57
849.905	611.89
850.077	765.45
850.249	398.65
850.421	276.56
850.592	292.2
850.764	419.81
850.936	444.7
851.107	416.33
851.279	359.77
851.451	466.6
851.622	325.84
851.794	290.33
851.965	289.87
852.137	371.78
852.308	385.31
852.48	462.89
852.651	376.96
852.823	458.51
852.994	451.36
853.166	490.91
853.337	415.48
853.509	410.8
853.68	441.06
853.851	491.58
854.023	524.88
854.194	661.99
854.365	440.04
854.537	454.6
854.708	296.83
854.879	264.41
855.05	228.98
855.222	243.79
855.393	322.96
855.564	274.55
855.735	254.31
855.906	269.17
856.078	258.45
856.249	261.22
856.42	270.28
856.591	428.06
856.762	449.46
856.933	859.22
857.104	637.28
857.275	555.84
857.446	636.61
857.617	563.87
857.788	327.32
857.959	367.97
858.13	457.26
858.301	398.27
858.472	428.34
858.643	453.77
858.814	514.13
858.985	520.73
859.155	396.78
859.326	410.36
859.497	533.71
859.668	787.54
859.839	630.6
860.009	817.42
860.18	986.54
860.351	723.32
860.522	917.72
860.692	1040.98
860.863	1402.72
861.034	4984.21
861.204	2697.33
861.375	1504.58
861.546	12257.14
861.716	3497.96
861.887	840
862.057	586.88
862.228	621.05
862.398	510.78
862.569	385.33
862.739	393.74
862.91	502.07
863.08	647.06
863.251	829.57
863.421	791.56
863.592	562.15
863.762	1377.27
863.932	13361.54
864.103	1299.34
864.273	1899.01
864.443	-1053.05
864.614	-882.02
864.784	-2553.23
864.954	7200
865.125	782.13
865.295	477.75
865.465	627.91
865.635	619.25
865.805	636.93
865.976	30680
866.146	1237.24
866.316	562.64
866.486	496.21
866.656	718.27
866.826	910.04
866.996	839.08
867.166	854.8
867.336	1116.67
867.506	855.87
867.676	771.52
867.846	744.11
868.016	911.37
868.186	1262.11
868.356	1778.74
868.526	1029.17
868.696	644.08
868.866	773.59
869.036	1399.34
869.206	1060.87
869.376	746.44
869.545	919.4
869.715	717.92
869.885	577.57
870.055	513.91
870.224	685.84
870.394	1030.51
870.564	1221.05
870.734	751.71
870.903	752.75
871.073	637.05
871.243	698.78
871.412	625.13
871.582	661.89
871.751	692.75
871.921	510.58
872.091	548.18
872.26	372.25
872.43	406.6
872.599	590.16
872.769	471.07
872.938	634.58
873.108	743.86
873.277	651.03
873.446	511.86
873.616	468.27
873.785	607.58
873.955	431.3
874.124	666.47
874.293	552.1
874.463	575.57
874.632	712.02
874.801	776.72
874.971	526.15
875.14	669.09
875.309	464.68
875.478	562.35
875.647	512.7
875.817	465.45
875.986	465.74
876.155	398.96
876.324	414.96
876.493	378.93
876.662	306.62
876.831	348.01
877	254.72
877.17	335.01
877.339	330.91
877.508	336.1
877.677	412.01
877.846	342.49
878.015	343.13
878.184	307.46
878.352	283.12
878.521	285.19
878.69	257.86
878.859	400.17
879.028	277.62
879.197	260.51
879.366	236.41
879.534	185.62
879.703	161.72
879.872	159.62
880.041	146.31
880.21	141.31
880.378	125.09
880.547	128.41
880.716	114.49
880.884	114.3
881.053	111.72
881.222	107.51
881.39	106.83
881.559	109.13
881.727	111.47
881.896	113.06
882.065	115.59
882.233	130.51
882.402	130.61
882.57	142.99
882.739	149.81
882.907	150.53
883.076	165.35
883.244	185.69
883.412	219.28
883.581	236.48
883.749	301.62
883.918	377.89
884.086	495.7
884.254	726.26
884.423	723.63
884.591	744.03
884.759	2011.43
884.927	8945.45
885.096	-5351.35
885.264	-3387.5
885.432	1558.59
885.6	1194.19
885.769	844.27
885.937	1436.57
886.105	599.07
886.273	591.47
886.441	468.51
886.609	374.51
886.777	322.89
886.945	339.94
887.113	391.99
887.281	608.63
887.449	524.43
887.617	846.95
887.785	621.56
887.953	677.01
888.121	686.87
888.289	2168.22
888.457	10395.24
888.625	-4627.27
888.793	-8008.33
888.961	1308.92
889.129	1677.5
889.296	4139.58
889.464	956.61
889.632	1092.05
889.8	1390.91
889.967	4383.87
890.135	1131.87
