Data from JASIL_3206_Reflection_02.txt Node
Date: Fri Nov 13 14:23:19 EST 2015
User: Geneva
Spectrometer: USB4E03002
Autoset integration time: false
Trigger mode: 4
Integration Time (sec): 1.000000E-1
Scans to average: 10
Electric dark correction enabled: false
Nonlinearity correction enabled: false
Boxcar width: 5
Stray light correction enabled: false
XAxis mode: Wavelengths
Stop averaging: false
Number of Pixels in Spectrum: 3648
>>>>>Begin Spectral Data<<<<<
177.575	134.47
177.794	158.23
178.014	172.74
178.233	169.27
178.452	155.33
178.672	154.93
178.891	163.36
179.11	173.43
179.33	151.79
179.549	158.72
179.768	173.12
179.987	177.87
180.207	182.16
180.426	181.73
180.645	200
180.864	197.46
181.084	196.55
181.303	170.55
181.522	148.58
181.741	170.56
181.96	166.69
182.179	150.28
182.398	173.85
182.618	154.43
182.837	145.21
183.056	133.27
183.275	136.38
183.494	144.99
183.713	161.05
183.932	165.05
184.151	164.11
184.37	155.25
184.589	160.76
184.808	148.19
185.027	171.34
185.246	174.16
185.465	185
185.684	193.19
185.903	171.27
186.122	163.72
186.341	172.54
186.56	178.1
186.779	182.7
186.998	186.14
187.216	181.78
187.435	163.88
187.654	167.8
187.873	162.57
188.092	161.52
188.311	157.94
188.53	159.4
188.748	153.06
188.967	148.75
189.186	141.43
189.405	128.61
189.623	125.2
189.842	133.21
190.061	125.33
190.28	124.55
190.498	122.85
190.717	125.89
190.936	126.37
191.154	132.86
191.373	135.78
191.592	138.72
191.81	134.63
192.029	127.7
192.248	121.96
192.466	126.11
192.685	118.97
192.904	120.59
193.122	128.75
193.341	126.9
193.559	117.64
193.778	119.72
193.996	121.99
194.215	125.64
194.433	131.66
194.652	137.73
194.87	142.46
195.089	150.74
195.307	150.13
195.526	154.93
195.744	150.11
195.963	151.56
196.181	141.13
196.399	145.09
196.618	150.42
196.836	151.84
197.055	149.19
197.273	144.9
197.491	154.04
197.71	155.36
197.928	156.49
198.146	163.13
198.365	165.47
198.583	173.31
198.801	169.3
199.019	172.16
199.238	194.4
199.456	199.74
199.674	191.56
199.892	186.68
200.111	188.49
200.329	189.8
200.547	195.1
200.765	198.54
200.983	193.08
201.202	181.36
201.42	187.31
201.638	158.14
201.856	153.29
202.074	159.04
202.292	144.15
202.51	137.91
202.728	131.6
202.946	129.57
203.165	136.07
203.383	140.04
203.601	145.22
203.819	150.53
204.037	164.5
204.255	156.08
204.473	147.69
204.691	162.28
204.909	179.54
205.127	186.98
205.345	215.56
205.562	197.05
205.78	181.33
205.998	185.76
206.216	170.96
206.434	156.63
206.652	157.07
206.87	158.39
207.088	159.75
207.306	153.79
207.523	159.58
207.741	148.3
207.959	147.82
208.177	151.44
208.395	143.74
208.612	148.77
208.83	136.62
209.048	131.96
209.266	135.91
209.483	133.68
209.701	128.45
209.919	113.44
210.136	118.59
210.354	133.19
210.572	134.18
210.79	142.65
211.007	135.62
211.225	152.62
211.442	162.81
211.66	159.96
211.878	169.26
212.095	93.27
212.313	101.13
212.53	98.97
212.748	90.64
212.966	89.19
213.183	92.48
213.401	87.59
213.618	92.35
213.836	96.14
214.053	99.82
214.271	95.59
214.488	169.98
214.705	172.77
214.923	166.11
215.14	173.52
215.358	176.15
215.575	150.59
215.793	168.25
216.01	164.35
216.227	159.09
216.445	144.58
216.662	137.74
216.879	135.78
217.097	129.98
217.314	138.02
217.531	132.88
217.749	142.41
217.966	147.03
218.183	151.98
218.4	150.66
218.618	147.53
218.835	184.71
219.052	181.29
219.269	190.66
219.487	181.51
219.704	181.15
219.921	184.97
220.138	207.53
220.355	212.84
220.572	207.3
220.79	190.87
221.007	188.24
221.224	166.37
221.441	169.03
221.658	175.49
221.875	187.84
222.092	166.65
222.309	166.39
222.526	150.12
222.743	146.58
222.96	140.51
223.177	145.36
223.394	137.8
223.611	141.3
223.828	139.45
224.045	121.84
224.262	109.3
224.479	109.46
224.696	113.32
224.913	113.64
225.13	108.05
225.347	108.55
225.564	109.69
225.781	118.91
225.997	116.33
226.214	107.69
226.431	112.76
226.648	123.13
226.865	120.79
227.082	112.92
227.298	101.67
227.515	101.65
227.732	92.54
227.949	89.67
228.165	82.46
228.382	80
228.599	85.29
228.816	86.13
229.032	79.24
229.249	83.13
229.466	83.47
229.682	83.38
229.899	87.8
230.116	100.77
230.332	100.61
230.549	105
230.765	115.82
230.982	112.42
231.199	111.35
231.415	124.48
231.632	129.16
231.848	127.69
232.065	129.89
232.281	139.26
232.498	134.57
232.714	132.8
232.931	134.04
233.147	126.9
233.364	125.77
233.58	117.84
233.797	113.09
234.013	105.93
234.23	109.62
234.446	109.12
234.662	103.23
234.879	91.23
235.095	88.62
235.312	91.38
235.528	90.55
235.744	92.29
235.961	93.97
236.177	94.35
236.393	93.64
236.61	96.52
236.826	99.29
237.042	98.63
237.258	105.07
237.475	115.34
237.691	113.3
237.907	113.93
238.123	111.71
238.339	111.6
238.556	108.21
238.772	105.39
238.988	106.41
239.204	110.86
239.42	106.14
239.636	102.03
239.853	89.47
240.069	87.09
240.285	86.42
240.501	85.58
240.717	79.36
240.933	76.35
241.149	78.46
241.365	71.5
241.581	62.21
241.797	62.88
242.013	61.18
242.229	65.26
242.445	67.79
242.661	66.42
242.877	67.86
243.093	71.4
243.309	76.52
243.525	77.68
243.741	76
243.957	81.52
244.173	76.32
244.388	75.64
244.604	70.49
244.82	63.86
245.036	63.12
245.252	59.52
245.468	56.11
245.683	53.06
245.899	47.25
246.115	46.71
246.331	42.75
246.547	42.55
246.762	43.87
246.978	45.12
247.194	48.04
247.409	48.64
247.625	49.22
247.841	47.78
248.057	49.21
248.272	53.15
248.488	56.76
248.703	56.55
248.919	59.78
249.135	61.64
249.35	62.73
249.566	63.67
249.782	67.94
249.997	70.09
250.213	73.39
250.428	73.06
250.644	73.47
250.859	70.34
251.075	72.98
251.29	74.93
251.506	73.8
251.721	72.98
251.937	71.05
252.152	65.76
252.368	68.42
252.583	70.4
252.798	68.74
253.014	68.22
253.229	67.8
253.445	69.22
253.66	69.49
253.875	73.42
254.091	74.91
254.306	79.26
254.521	81.42
254.737	78.92
254.952	82.53
255.167	85.39
255.383	85.44
255.598	87.05
255.813	89.04
256.028	87.84
256.244	84.89
256.459	86.38
256.674	83.45
256.889	83.08
257.104	79.61
257.32	71.39
257.535	66.43
257.75	61.16
257.965	61.47
258.18	58.04
258.395	55
258.61	52.16
258.826	48.31
259.041	44.93
259.256	44.6
259.471	42.64
259.686	43.25
259.901	44.28
260.116	46.13
260.331	46.71
260.546	48.28
260.761	49.21
260.976	51
261.191	53.1
261.406	57.29
261.621	59.66
261.836	62.73
262.05	61.64
262.265	64.06
262.48	64.21
262.695	62.43
262.91	63.3
263.125	64.72
263.34	69.99
263.555	71.41
263.769	68.44
263.984	64.04
264.199	63.87
264.414	70.13
264.629	68.17
264.843	69.07
265.058	69.88
265.273	67.26
265.488	64.84
265.702	60.48
265.917	58.09
266.132	59.98
266.346	60.4
266.561	59.76
266.776	57.69
266.99	59.05
267.205	61.35
267.42	57.34
267.634	57.57
267.849	56.12
268.063	56.24
268.278	58.15
268.492	58.79
268.707	60.38
268.922	62.27
269.136	65.38
269.351	64.11
269.565	59.49
269.78	58.51
269.994	59.46
270.209	59.02
270.423	57.26
270.637	55.57
270.852	52.13
271.066	52.32
271.281	49.99
271.495	46.84
271.709	44.73
271.924	45.08
272.138	50.14
272.353	47.13
272.567	49.41
272.781	50.3
272.996	52.18
273.21	53.47
273.424	51.02
273.638	52.26
273.853	52.15
274.067	54.65
274.281	54.35
274.495	55.87
274.71	57.16
274.924	56.45
275.138	55.77
275.352	54.04
275.566	54.89
275.781	56.42
275.995	57.59
276.209	60.1
276.423	57.96
276.637	58.83
276.851	53.22
277.065	52.76
277.279	51.21
277.493	49.65
277.707	49.62
277.921	49.51
278.135	50.13
278.349	48.57
278.563	45.42
278.777	47.06
278.991	48.47
279.205	46.55
279.419	49.22
279.633	48.63
279.847	50.63
280.061	51.24
280.275	50.66
280.489	49.21
280.703	50.97
280.917	51.45
281.131	49.08
281.344	47.16
281.558	50.24
281.772	49.08
281.986	50.15
282.2	50.3
282.414	49.39
282.627	48.25
282.841	49.19
283.055	47.11
283.269	45.58
283.482	46.41
283.696	44.05
283.91	43.24
284.123	41.68
284.337	40.97
284.551	39.87
284.764	39.92
284.978	39.18
285.192	40.03
285.405	39.42
285.619	40.68
285.833	42.7
286.046	42.54
286.26	41.6
286.473	41.25
286.687	42.14
286.9	41.9
287.114	42.26
287.327	44.1
287.541	43.64
287.754	45.31
287.968	46.12
288.181	43.6
288.395	45.36
288.608	45.64
288.822	46.22
289.035	45.9
289.248	46.01
289.462	45.8
289.675	43.24
289.889	42.94
290.102	43.25
290.315	42
290.529	43.67
290.742	43.47
290.955	46.87
291.169	48.5
291.382	49.81
291.595	52.96
291.808	53.57
292.022	56.08
292.235	55.53
292.448	55.73
292.661	54.86
292.875	54.5
293.088	56.08
293.301	55.33
293.514	51.85
293.727	50.69
293.94	46.99
294.153	45.94
294.367	45.06
294.58	45.43
294.793	45.13
295.006	46.61
295.219	43.82
295.432	41.77
295.645	38.57
295.858	38.45
296.071	36.45
296.284	35.88
296.497	37.08
296.71	36.7
296.923	36.91
297.136	36.96
297.349	36.24
297.562	36.91
297.775	37.69
297.988	37.6
298.201	38.49
298.414	39.58
298.626	40.24
298.839	37.85
299.052	38.36
299.265	39.72
299.478	40.55
299.691	39.5
299.903	39.92
300.116	39.93
300.329	41.38
300.542	41.6
300.755	43.26
300.967	43.65
301.18	44.76
301.393	45.22
301.605	42.72
301.818	41.27
302.031	43.06
302.243	43.9
302.456	46.55
302.669	45.42
302.881	45.66
303.094	45.29
303.307	46.54
303.519	47.04
303.732	47.69
303.944	47.53
304.157	47.79
304.37	46.03
304.582	48.05
304.795	46.52
305.007	46.92
305.22	48.71
305.432	48.01
305.645	47.26
305.857	46.65
306.069	46.7
306.282	48.56
306.494	49.4
306.707	49.25
306.919	45.94
307.132	45.63
307.344	46.65
307.556	43.98
307.769	44.67
307.981	44.33
308.193	44.82
308.406	43.79
308.618	42.29
308.83	41.37
309.043	42.57
309.255	43.56
309.467	43.04
309.679	41.62
309.892	42.2
310.104	42.05
310.316	42.35
310.528	41.69
310.74	41.73
310.953	42.46
311.165	43.05
311.377	41.8
311.589	42.06
311.801	41.83
312.013	48.24
312.225	46.72
312.437	46.06
312.649	46.73
312.862	47.72
313.074	48.7
313.286	48.6
313.498	48.87
313.71	49.02
313.922	48.13
314.134	50.9
314.346	44.32
314.558	47.22
314.77	48.24
314.982	47.26
315.193	45.96
315.405	45.56
315.617	45.81
315.829	45.82
316.041	47.35
316.253	48.62
316.465	49.17
316.677	51.32
316.888	54.12
317.1	55.25
317.312	56.07
317.524	59.73
317.736	60.85
317.947	63.38
318.159	63.12
318.371	61.66
318.583	62.71
318.794	58.94
319.006	59.69
319.218	56.33
319.43	55.62
319.641	54.41
319.853	53.36
320.064	53.97
320.276	51.08
320.488	50.31
320.699	50.86
320.911	46.35
321.123	47.7
321.334	44.86
321.546	47.13
321.757	48.63
321.969	48.61
322.18	47.7
322.392	45.26
322.603	46.3
322.815	46.23
323.026	48.1
323.238	50.91
323.449	53.69
323.661	54.64
323.872	54.19
324.083	52.47
324.295	54.7
324.506	54.36
324.718	57.01
324.929	54.89
325.14	56.68
325.352	54.99
325.563	55.23
325.774	54.26
325.986	53.34
326.197	53.32
326.408	53.89
326.62	53.02
326.831	55.74
327.042	54.73
327.253	57.77
327.464	58.36
327.676	59.02
327.887	60.46
328.098	60.45
328.309	62.09
328.52	62.03
328.732	62.44
328.943	63.81
329.154	63.72
329.365	64.66
329.576	65.18
329.787	65.43
329.998	67.75
330.209	65.99
330.42	65.2
330.631	66.01
330.842	67.18
331.053	69.56
331.264	71.6
331.475	70.26
331.686	69.99
331.897	70.19
332.108	69.66
332.319	68.42
332.53	69.54
332.741	70.64
332.952	70.35
333.163	70.24
333.374	69.38
333.585	67.78
333.795	70.34
334.006	72.38
334.217	72.54
334.428	75.29
334.639	78.33
334.849	78.93
335.06	77.85
335.271	79.97
335.482	79.12
335.692	78.3
335.903	79.35
336.114	75.35
336.325	71.42
336.535	70.64
336.746	69.56
336.957	68.94
337.167	70.08
337.378	71
337.589	71.4
337.799	71.29
338.01	72.1
338.22	70.71
338.431	74.03
338.642	78.31
338.852	78.41
339.063	77.23
339.273	77.59
339.484	77.51
339.694	77.01
339.905	74.61
340.115	76.01
340.326	77
340.536	77.05
340.746	75.9
340.957	73.29
341.167	70.79
341.378	71.1
341.588	68.96
341.799	66.64
342.009	65.1
342.219	65.89
342.43	64.52
342.64	62.5
342.85	63.83
343.061	63.6
343.271	63.73
343.481	66.95
343.691	67.08
343.902	67.35
344.112	66.83
344.322	68.05
344.532	68.65
344.743	69.03
344.953	69.5
345.163	69.39
345.373	69.37
345.583	69.17
345.793	67.28
346.004	68.58
346.214	68.85
346.424	71.65
346.634	71.65
346.844	71.56
347.054	70.79
347.264	72.1
347.474	70.29
347.684	68.76
347.894	69.87
348.104	70.77
348.314	69.23
348.524	69.57
348.734	69.77
348.944	69.48
349.154	67.93
349.364	69.63
349.574	66.78
349.784	66.5
349.994	69.81
350.204	69.21
350.413	68.59
350.623	68.35
350.833	67.64
351.043	65.24
351.253	65.19
351.463	66.62
351.672	66.19
351.882	66.66
352.092	67.32
352.302	64.97
352.511	64.66
352.721	65.08
352.931	65.29
353.141	64.37
353.35	64.39
353.56	65.91
353.77	67.31
353.979	66.06
354.189	66.65
354.399	67.44
354.608	68.22
354.818	68.29
355.027	68.09
355.237	68.12
355.447	66.91
355.656	67.13
355.866	64.14
356.075	63.33
356.285	63.48
356.494	63.8
356.704	63.85
356.913	63.32
357.123	62.64
357.332	60.67
357.542	60.58
357.751	62.68
357.96	61.98
358.17	63.84
358.379	62.97
358.589	63.36
358.798	62.2
359.007	61.31
359.217	61.14
359.426	60.4
359.635	61.49
359.845	60.59
360.054	59.55
360.263	60.36
360.472	60.46
360.682	59.94
360.891	58.74
361.1	59.18
361.309	59.12
361.519	58.95
361.728	58.3
361.937	58.46
362.146	58.04
362.355	57.82
362.564	58.44
362.774	57.37
362.983	57.18
363.192	58.36
363.401	58.24
363.61	58.32
363.819	58.96
364.028	61.51
364.237	62.39
364.446	62.84
364.655	63.86
364.864	62.88
365.073	64.09
365.282	63.66
365.491	63.33
365.7	62.17
365.909	61.17
366.118	60.32
366.327	59.98
366.536	59.93
366.745	59.88
366.954	60.97
367.162	60.88
367.371	58.65
367.58	60.07
367.789	59.47
367.998	60.76
368.207	61.28
368.415	60.85
368.624	59.83
368.833	58.82
369.042	59.83
369.25	58.32
369.459	57.97
369.668	58.96
369.877	58.5
370.085	58.47
370.294	58.61
370.503	59.55
370.711	59.35
370.92	58.73
371.129	58.52
371.337	57.2
371.546	56.01
371.754	57.83
371.963	58.42
372.171	57.63
372.38	58.48
372.589	58.41
372.797	56.81
373.006	58.23
373.214	58.43
373.423	58.63
373.631	59.91
373.84	61.39
374.048	60.17
374.256	58.74
374.465	59.48
374.673	58.53
374.882	58.22
375.09	57.44
375.298	57.26
375.507	56.88
375.715	56
375.923	55.5
376.132	54.51
376.34	53.49
376.548	53.51
376.757	53.01
376.965	52.83
377.173	53.2
377.381	53.87
377.59	53.22
377.798	53.35
378.006	53.76
378.214	53.35
378.423	53.8
378.631	53.48
378.839	53.59
379.047	53.7
379.255	53.79
379.463	52.47
379.671	54.15
379.879	53.62
380.088	53.22
380.296	52.86
380.504	53.01
380.712	52.18
380.92	52.67
381.128	52.41
381.336	52.64
381.544	52.39
381.752	52.73
381.96	51.42
382.168	53.01
382.376	53.27
382.584	54.22
382.791	54.08
382.999	53.85
383.207	53.35
383.415	54.01
383.623	53.42
383.831	54.47
384.039	53.89
384.247	53.6
384.454	52.29
384.662	53.01
384.87	52.12
385.078	51.35
385.285	51.39
385.493	51.1
385.701	50.79
385.909	50.92
386.116	49.52
386.324	50.48
386.532	50.22
386.739	50.05
386.947	49.41
387.155	50.08
387.362	51.11
387.57	52.08
387.778	52.26
387.985	51.55
388.193	51.93
388.4	51.81
388.608	50.52
388.816	50.09
389.023	50.06
389.231	50.39
389.438	49.48
389.646	49.25
389.853	48.27
390.061	48.44
390.268	48.42
390.475	48.04
390.683	48.82
390.89	50.02
391.098	50.42
391.305	50.72
391.512	50.25
391.72	50.67
391.927	50.01
392.135	49.07
392.342	48.88
392.549	48.98
392.756	48.9
392.964	48.86
393.171	47.69
393.378	47.29
393.586	47.36
393.793	47.7
394	46.71
394.207	47.07
394.414	48.98
394.622	48.88
394.829	48.46
395.036	47.83
395.243	47.11
395.45	48.11
395.657	48.13
395.864	48.35
396.072	48.5
396.279	49.18
396.486	48.99
396.693	48.16
396.9	48.31
397.107	48.49
397.314	49.5
397.521	49.95
397.728	49.01
397.935	49.61
398.142	48.68
398.349	48.02
398.556	48.35
398.763	48.69
398.97	48.01
399.177	48.43
399.383	48.03
399.59	47.88
399.797	47.59
400.004	48.05
400.211	47.8
400.418	48.55
400.625	49.12
400.831	48.21
401.038	48.2
401.245	49.36
401.452	48.16
401.658	49.14
401.865	48.3
402.072	48.74
402.279	48.93
402.485	47.67
402.692	47.34
402.899	46.81
403.105	46.44
403.312	46.17
403.519	45.61
403.725	45.83
403.932	45.58
404.138	45.05
404.345	44.63
404.552	44.39
404.758	44.87
404.965	44.74
405.171	43.91
405.378	44.76
405.584	44.91
405.791	45.39
405.997	46.34
406.204	46.24
406.41	46.96
406.617	47.05
406.823	47
407.029	47.77
407.236	47.36
407.442	48.4
407.649	48.56
407.855	47.58
408.061	46.99
408.268	46.68
408.474	47.11
408.68	46.41
408.887	46.59
409.093	46.51
409.299	46.44
409.505	46.61
409.712	46.3
409.918	45.83
410.124	46.49
410.33	46.7
410.537	46.01
410.743	45.94
410.949	47.17
411.155	46.57
411.361	46.71
411.567	46.13
411.773	46.2
411.98	46.33
412.186	46.8
412.392	47.32
412.598	47.65
412.804	48.33
413.01	46.93
413.216	46.19
413.422	46.99
413.628	46.04
413.834	45.37
414.04	45.2
414.246	44.99
414.452	44.79
414.658	44.63
414.864	43.22
415.07	43.11
415.275	43.1
415.481	42.54
415.687	42.2
415.893	42.47
416.099	43.34
416.305	42.94
416.511	42.68
416.716	42.01
416.922	41.57
417.128	41.42
417.334	40.71
417.539	41.01
417.745	40.92
417.951	39.76
418.157	39.71
418.362	38.99
418.568	38.27
418.774	37.59
418.979	37.49
419.185	36.82
419.391	37.29
419.596	37.63
419.802	37.29
420.008	36.92
420.213	32.02
420.419	32.01
420.624	31.8
420.83	32.1
421.035	32.23
421.241	32.55
421.446	32.52
421.652	32.44
421.857	32
422.063	31.98
422.268	32.2
422.474	37.26
422.679	37.34
422.885	38.23
423.09	38.48
423.295	38.67
423.501	38.44
423.706	38.42
423.911	37.92
424.117	37.69
424.322	37.81
424.527	38.04
424.733	37.76
424.938	37.37
425.143	36.91
425.349	36.62
425.554	36.68
425.759	36.8
425.964	37.02
426.169	37.43
426.375	38.32
426.58	38.84
426.785	38.9
426.99	39.9
427.195	39.87
427.4	40.04
427.605	40.2
427.811	40.54
428.016	40.23
428.221	40.93
428.426	40.6
428.631	39.9
428.836	39.45
429.041	39.27
429.246	38.67
429.451	39.46
429.656	39.88
429.861	40.5
430.066	40.55
430.271	40.75
430.476	40.11
430.681	40.8
430.886	40.66
431.09	40.36
431.295	40.51
431.5	40.43
431.705	40.47
431.91	39.75
432.115	38.89
432.32	38.02
432.524	37.76
432.729	37.92
432.934	37.36
433.139	37.42
433.343	37.37
433.548	36.8
433.753	36.99
433.958	36.53
434.162	36.02
434.367	36.11
434.572	36.5
434.776	36.45
434.981	36.42
435.186	36.16
435.39	36.47
435.595	36.99
435.799	37.46
436.004	37.26
436.209	37.69
436.413	37.98
436.618	38.19
436.822	38.14
437.027	37.87
437.231	37.34
437.436	37.02
437.64	36.07
437.845	35.72
438.049	35.17
438.253	35.16
438.458	35.07
438.662	35.26
438.867	35.29
439.071	35.61
439.275	35.43
439.48	35.12
439.684	35.5
439.888	36.05
440.093	35.75
440.297	35.95
440.501	35.83
440.706	35.36
440.91	35
441.114	34.76
441.318	34.44
441.523	34.76
441.727	35.32
441.931	35.06
442.135	34.63
442.339	34.77
442.543	34.56
442.748	34.68
442.952	34.71
443.156	34.94
443.36	35.54
443.564	35.53
443.768	35.33
443.972	35.55
444.176	35.82
444.38	36.15
444.584	35.75
444.788	35.56
444.992	35.55
445.196	35.41
445.4	34.94
445.604	33.97
445.808	34.03
446.012	34.43
446.216	33.76
446.42	33.53
446.624	33.24
446.828	33.29
447.032	33.39
447.235	33.08
447.439	32.96
447.643	33.22
447.847	33.62
448.051	33.21
448.254	33.38
448.458	33.92
448.662	34.35
448.866	34.95
449.069	35.59
449.273	35.4
449.477	35.47
449.681	35.9
449.884	36.49
450.088	36.5
450.292	36.99
450.495	36.73
450.699	37.25
450.902	36.85
451.106	36.2
451.31	36.47
451.513	37.27
451.717	37.76
451.92	37.47
452.124	37.19
452.327	37.71
452.531	36.86
452.734	36.81
452.938	35.98
453.141	36.4
453.345	36.44
453.548	36.48
453.752	36.48
453.955	36.44
454.158	36.85
454.362	36.87
454.565	36.3
454.769	37.39
454.972	37.15
455.175	37.3
455.379	37.61
455.582	37.98
455.785	37.47
455.988	37.94
456.192	37.62
456.395	37.3
456.598	37.83
456.801	37.78
457.005	37.6
457.208	37.73
457.411	37.58
457.614	36.83
457.817	36.44
458.021	36
458.224	35.19
458.427	34.98
458.63	35.2
458.833	34.41
459.036	34.47
459.239	34.57
459.442	34.2
459.645	34.31
459.848	34.36
460.051	34.81
460.254	34.97
460.457	34.63
460.66	35.12
460.863	35.06
461.066	35.3
461.269	35.04
461.472	34.79
461.675	35.02
461.878	35
462.081	34.91
462.284	34.5
462.486	34.1
462.689	34.39
462.892	34.19
463.095	34.51
463.298	34.83
463.5	35.63
463.703	35.35
463.906	35.45
464.109	35.78
464.311	36.22
464.514	36.26
464.717	37.28
464.92	37.14
465.122	36.8
465.325	36.57
465.528	36.34
465.73	35.8
465.933	36.33
466.135	36.44
466.338	36.01
466.541	36.2
466.743	36.13
466.946	35.9
467.148	35.91
467.351	36.58
467.553	36.08
467.756	36.37
467.958	36.61
468.161	35.94
468.363	35.5
468.566	35.57
468.768	35.11
468.971	35.5
469.173	35.47
469.375	35.8
469.578	35.53
469.78	35.66
469.983	35.8
470.185	36.07
470.387	36.84
470.59	37.1
470.792	37.42
470.994	37.47
471.196	37.19
471.399	37.3
471.601	37.56
471.803	37.2
472.005	37.37
472.208	36.76
472.41	36.46
472.612	36.37
472.814	36.12
473.016	36.27
473.218	36.19
473.421	35.84
473.623	35.54
473.825	35.49
474.027	35.7
474.229	35.56
474.431	35.91
474.633	35.58
474.835	35.45
475.037	35.62
475.239	35.08
475.441	35.26
475.643	35.69
475.845	35.71
476.047	35.75
476.249	35.53
476.451	35.42
476.653	35.12
476.855	35.59
477.057	35.54
477.258	35.49
477.46	35.63
477.662	35.47
477.864	35.5
478.066	35.32
478.268	34.94
478.469	34.93
478.671	34.59
478.873	34.4
479.075	34.09
479.276	34.03
479.478	33.65
479.68	33.18
479.882	32.96
480.083	32.62
480.285	32.79
480.487	32.81
480.688	32.16
480.89	32.47
481.091	32.15
481.293	32.07
481.495	31.66
481.696	31.62
481.898	31.41
482.099	31.32
482.301	30.94
482.502	30.65
482.704	30.56
482.905	30.39
483.107	30.17
483.308	30.2
483.51	29.81
483.711	29.82
483.913	29.68
484.114	29.71
484.315	29.77
484.517	29.85
484.718	29.89
484.92	29.77
485.121	29.95
485.322	29.91
485.524	30.01
485.725	30.25
485.926	30.22
486.127	30.3
486.329	30.29
486.53	29.85
486.731	29.65
486.932	29.54
487.134	29.38
487.335	29.45
487.536	29.45
487.737	29.32
487.938	29.51
488.139	29.53
488.341	29.59
488.542	29.66
488.743	30.01
488.944	30.31
489.145	30.35
489.346	30.65
489.547	30.67
489.748	30.8
489.949	31.23
490.15	31.06
490.351	30.98
490.552	31.11
490.753	31.07
490.954	31.01
491.155	31.13
491.356	31.15
491.557	31.12
491.758	31.17
491.959	31.29
492.159	31.2
492.36	31.38
492.561	31.57
492.762	31.74
492.963	31.85
493.164	32.4
493.364	32.4
493.565	32.72
493.766	33.28
493.967	33.51
494.167	33.3
494.368	33.21
494.569	33.37
494.769	33.64
494.97	33.71
495.171	33.87
495.371	33.46
495.572	33.53
495.773	33.3
495.973	32.78
496.174	33.03
496.375	33.62
496.575	33.63
496.776	33.4
496.976	33.22
497.177	33.06
497.377	33.23
497.578	33.42
497.778	33.28
497.979	33.72
498.179	33.8
498.38	33.49
498.58	33.37
498.78	33.3
498.981	33.71
499.181	33.98
499.382	33.98
499.582	33.77
499.782	33.7
499.983	34.26
500.183	34.39
500.383	34.86
500.584	34.84
500.784	34.91
500.984	35
501.184	34.67
501.385	34.72
501.585	34.52
501.785	34.55
501.985	34.64
502.185	34.37
502.386	34.69
502.586	34.26
502.786	34.32
502.986	34.02
503.186	33.98
503.386	34.27
503.586	33.67
503.786	33.78
503.987	33.56
504.187	33.09
504.387	33.43
504.587	33.31
504.787	33.63
504.987	33.94
505.187	34.11
505.387	34.31
505.587	34.17
505.786	34.76
505.986	35.1
506.186	35.3
506.386	35.89
506.586	35.75
506.786	35.42
506.986	35.35
507.186	34.82
507.386	34.68
507.585	34.7
507.785	34.78
507.985	34.6
508.185	34.6
508.384	34.81
508.584	34.49
508.784	34.41
508.984	34.52
509.183	34.2
509.383	34.5
509.583	34.84
509.782	34.94
509.982	34.93
510.182	34.89
510.381	34.56
510.581	34.41
510.781	34.87
510.98	34.97
511.18	34.81
511.379	34.69
511.579	34.54
511.778	34.37
511.978	34.49
512.177	34.24
512.377	34.19
512.576	34.47
512.776	34.73
512.975	34.65
513.175	34.37
513.374	34.66
513.573	35.85
513.773	36.36
513.972	36.71
514.172	36.5
514.371	36.71
514.57	37.2
514.77	37.45
514.969	37.23
515.168	37.24
515.367	37.54
515.567	36.91
515.766	36.21
515.965	36.36
516.164	36.48
516.364	36.54
516.563	36.49
516.762	35.74
516.961	35.24
517.16	34.86
517.359	34.63
517.559	34.56
517.758	35.05
517.957	35.04
518.156	34.76
518.355	34.33
518.554	34.58
518.753	34.56
518.952	35.14
519.151	35.57
519.35	36.2
519.549	36.5
519.748	36.79
519.947	36.88
520.146	37.33
520.345	37.31
520.544	37.64
520.743	37.58
520.942	37.84
521.141	37.6
521.339	37.61
521.538	37.46
521.737	37.44
521.936	37.51
522.135	37.27
522.333	37.02
522.532	37.46
522.731	37.09
522.93	37.11
523.129	37.11
523.327	37.39
523.526	37.27
523.725	37.5
523.923	37.25
524.122	37.18
524.321	37.19
524.519	37.38
524.718	37.05
524.917	37.2
525.115	37.14
525.314	37.09
525.512	36.97
525.711	36.87
525.909	36.4
526.108	36.15
526.306	36.07
526.505	36.02
526.703	35.81
526.902	35.84
527.1	35.94
527.299	35.89
527.497	35.96
527.696	35.77
527.894	35.71
528.092	35.97
528.291	36.16
528.489	36.26
528.688	36.39
528.886	36.57
529.084	36.81
529.283	36.9
529.481	37.19
529.679	37.4
529.877	37.89
530.076	38.12
530.274	38.49
530.472	38.93
530.67	39.03
530.869	39.04
531.067	39.03
531.265	38.93
531.463	39.15
531.661	38.96
531.859	38.74
532.057	38.5
532.255	38.74
532.454	38.52
532.652	38.57
532.85	38.64
533.048	38.77
533.246	38.8
533.444	38.97
533.642	39.02
533.84	39.35
534.038	39.5
534.236	40.22
534.434	40.51
534.632	40.8
534.83	40.9
535.027	40.77
535.225	41.12
535.423	41.66
535.621	41.94
535.819	41.68
536.017	41.76
536.215	42
536.412	41.67
536.61	41.55
536.808	42.02
537.006	42.23
537.203	42.8
537.401	42.78
537.599	42.98
537.797	43.03
537.994	43.68
538.192	44.1
538.39	44.1
538.587	44.05
538.785	44.47
538.983	44.45
539.18	44.44
539.378	44.64
539.575	44.69
539.773	44.33
539.97	44.14
540.168	44.19
540.366	43.94
540.563	44.15
540.761	44.23
540.958	44.39
541.155	44.26
541.353	44.2
541.55	43.99
541.748	44.22
541.945	44.31
542.143	44.71
542.34	44.65
542.537	44.96
542.735	44.99
542.932	45.45
543.129	45.54
543.327	45.53
543.524	46
543.721	46.19
543.919	46.28
544.116	46.74
544.313	46.56
544.51	46.61
544.708	46.67
544.905	46.94
545.102	47.33
545.299	47.07
545.496	47.11
545.693	46.98
545.891	47.3
546.088	47.12
546.285	47.31
546.482	47.67
546.679	47.98
546.876	48.08
547.073	48.05
547.27	47.66
547.467	47.88
547.664	48.58
547.861	48.97
548.058	48.98
548.255	49.64
548.452	49.55
548.649	50.03
548.846	50.22
549.043	50.39
549.24	50.86
549.437	50.91
549.633	50.9
549.83	51.08
550.027	50.98
550.224	51.24
550.421	50.97
550.618	51.14
550.814	50.81
551.011	50.98
551.208	51.14
551.405	51.32
551.601	51.41
551.798	51.8
551.995	51.17
552.191	51.25
552.388	51.17
552.585	51.51
552.781	51.2
552.978	51.43
553.175	51.89
553.371	52.12
553.568	51.87
553.764	52.26
553.961	52.95
554.157	53.38
554.354	53.54
554.55	53.86
554.747	54.3
554.943	54.91
555.14	55.16
555.336	54.85
555.533	54.84
555.729	55.67
555.926	55.84
556.122	55.17
556.318	55.59
556.515	55.91
556.711	55.68
556.907	55.76
557.104	56.27
557.3	56.72
557.496	56.74
557.693	56.79
557.889	56.68
558.085	56.6
558.281	56.79
558.478	57.01
558.674	57.34
558.87	58.38
559.066	57.76
559.262	57.38
559.459	56.86
559.655	56.42
559.851	56.6
560.047	56.55
560.243	56.5
560.439	56.82
560.635	56.66
560.831	56.31
561.027	55.24
561.223	55.46
561.419	55.68
561.615	56.26
561.811	57.11
562.007	57.08
562.203	57.22
562.399	58.01
562.595	58.58
562.791	58.86
562.987	58.92
563.183	59.39
563.379	59.56
563.575	59.47
563.771	59.1
563.966	58.51
564.162	58.79
564.358	58.84
564.554	58.26
564.75	57.16
564.945	56.91
565.141	57.28
565.337	57.31
565.533	57.55
565.728	57.17
565.924	57.2
566.12	57.62
566.315	57.6
566.511	57.33
566.707	57.4
566.902	58.26
567.098	58.67
567.293	58.09
567.489	58.49
567.684	58.75
567.88	58.96
568.076	58.89
568.271	59.52
568.467	59.35
568.662	59.7
568.858	59.53
569.053	58.94
569.248	58.84
569.444	58.91
569.639	58.81
569.835	58.53
570.03	58.89
570.225	58.67
570.421	58.55
570.616	58.36
570.812	58.4
571.007	58.85
571.202	59.03
571.397	59.3
571.593	59.25
571.788	59.14
571.983	59.02
572.178	58.9
572.374	59.31
572.569	59.16
572.764	59.96
572.959	59.75
573.154	59.69
573.35	59.89
573.545	59.84
573.74	60.15
573.935	60.18
574.13	60.71
574.325	60.79
574.52	60.83
574.715	60.36
574.91	59.91
575.105	59.83
575.3	59.92
575.495	59.68
575.69	60.13
575.885	60.14
576.08	60.7
576.275	60.64
576.47	60.97
576.665	61.21
576.86	61.6
577.055	61.3
577.25	61
577.444	61.36
577.639	61.69
577.834	61.05
578.029	61.72
578.224	61.86
578.418	61.55
578.613	60.89
578.808	60.49
579.003	60.64
579.197	60.7
579.392	61.53
579.587	61.06
579.781	61.03
579.976	61.53
580.171	60.95
580.365	60.99
580.56	61.26
580.755	62.51
580.949	62.68
581.144	62.97
581.338	63.26
581.533	62.86
581.727	63.07
581.922	63.04
582.116	63.28
582.311	63.82
582.505	63.04
582.7	63.26
582.894	61.94
583.089	61.7
583.283	62.36
583.478	63.01
583.672	63.53
583.866	63.49
584.061	63.32
584.255	62.75
584.449	62.62
584.644	62.59
584.838	63.01
585.032	63.62
585.226	64.04
585.421	63.66
585.615	63.26
585.809	63.12
586.003	62.97
586.198	63.58
586.392	63.19
586.586	63.74
586.78	64.43
586.974	63.68
587.168	63.57
587.363	63.34
587.557	62.89
587.751	62.48
587.945	62.26
588.139	62.82
588.333	62.84
588.527	63.6
588.721	62.66
588.915	62.88
589.109	62.95
589.303	63.34
589.497	63.66
589.691	63.96
589.885	64.01
590.079	64.66
590.273	63.98
590.466	63.63
590.66	63.82
590.854	64.97
591.048	64.74
591.242	64.96
591.436	64.96
591.629	65.17
591.823	64.89
592.017	65.19
592.211	65.12
592.404	66.29
592.598	66.34
592.792	65.69
592.986	64.84
593.179	64.25
593.373	64.09
593.567	63.89
593.76	63.29
593.954	62.54
594.147	62.56
594.341	62.82
594.535	62.17
594.728	62.15
594.922	62.2
595.115	61.88
595.309	62.27
595.502	61.83
595.696	62.25
595.889	62.24
596.083	63.13
596.276	63.08
596.47	62.78
596.663	62.52
596.856	62.67
597.05	62.32
597.243	62.6
597.437	62.51
597.63	62.97
597.823	62.7
598.017	63.25
598.21	62.94
598.403	63.45
598.596	62.86
598.79	63.21
598.983	63.62
599.176	64.07
599.369	64.78
599.563	65.08
599.756	65.47
599.949	65.77
600.142	65.81
600.335	66.14
600.528	65.93
600.722	66.72
600.915	66.85
601.108	66.69
601.301	66.67
601.494	66.5
601.687	66
601.88	65.4
602.073	65.75
602.266	65.95
602.459	66.1
602.652	65.91
602.845	65.84
603.038	65.98
603.231	65.94
603.424	66.34
603.617	65.66
603.809	65.65
604.002	65.41
604.195	64.22
604.388	63.91
604.581	63.91
604.774	64.22
604.966	63.68
605.159	63.53
605.352	63.53
605.545	63.4
605.737	64.52
605.93	64.61
606.123	65.38
606.316	65.97
606.508	66.51
606.701	65.89
606.894	65.72
607.086	66.29
607.279	66.36
607.471	66.05
607.664	65.67
607.857	64.45
608.049	64.72
608.242	63.89
608.434	63.99
608.627	63.47
608.819	64.39
609.012	63.97
609.204	64.2
609.397	63.88
609.589	64.23
609.782	64.84
609.974	65.32
610.166	65.94
610.359	67.21
610.551	67.3
610.743	67.79
610.936	67.43
611.128	68.23
611.32	68.67
611.513	68.64
611.705	68.83
611.897	68.37
612.09	69.12
612.282	68.96
612.474	69.14
612.666	69.03
612.858	69.33
613.051	68.75
613.243	68.65
613.435	68.7
613.627	68.71
613.819	68.33
614.011	68.74
614.203	68.04
614.395	67.27
614.588	66.81
614.78	67.98
614.972	67.97
615.164	68.92
615.356	69.28
615.548	68.97
615.74	70.12
615.932	70.09
616.124	69.96
616.315	70.48
616.507	71.46
616.699	71.47
616.891	71.47
617.083	71.39
617.275	71.4
617.467	71.48
617.659	71.38
617.85	71.09
618.042	71.62
618.234	71.65
618.426	71.28
618.618	71.46
618.809	70.63
619.001	69.64
619.193	70.4
619.384	69.3
619.576	68.76
619.768	67.6
619.959	67.22
620.151	67.5
620.343	67.64
620.534	67.36
620.726	67.26
620.917	68.76
621.109	69.33
621.301	68.44
621.492	69.38
621.684	69.58
621.875	70.71
622.067	70.05
622.258	69.48
622.45	69.17
622.641	69.68
622.832	68.48
623.024	68.29
623.215	68.19
623.407	68.38
623.598	68.31
623.789	67.95
623.981	68.54
624.172	69.59
624.363	68.81
624.555	68.95
624.746	69
624.937	69.13
625.129	68.79
625.32	68.27
625.511	68.55
625.702	67.75
625.893	68.41
626.085	67.37
626.276	66.68
626.467	67.35
626.658	67.38
626.849	67.16
627.04	67.61
627.231	67.11
627.422	67.73
627.614	67.19
627.805	68.23
627.996	68.2
628.187	68.55
628.378	69.16
628.569	69.37
628.76	69.29
628.951	70.18
629.142	69.63
629.332	69.92
629.523	69.48
629.714	70.46
629.905	69.46
630.096	69.31
630.287	70.25
630.478	69.9
630.669	69.93
630.859	69.41
631.05	68.92
631.241	70.02
631.432	70.47
631.623	70.76
631.813	69.37
632.004	70.02
632.195	69.16
632.385	68.48
632.576	69.09
632.767	68.99
632.957	70.04
633.148	69.67
633.339	69.19
633.529	68.97
633.72	69.46
633.91	69.71
634.101	69.24
634.292	70.31
634.482	70.3
634.673	69.8
634.863	70.09
635.054	69.43
635.244	69.62
635.435	69.37
635.625	69.26
635.815	68.41
636.006	68.77
636.196	69.18
636.387	69.24
636.577	68.97
636.767	70.78
636.958	69.92
637.148	69.97
637.338	69.85
637.529	69.98
637.719	70.4
637.909	70.94
638.099	69.91
638.29	69.93
638.48	68.37
638.67	68.26
638.86	66.94
639.05	67.69
639.241	67.99
639.431	68.8
639.621	68.63
639.811	68.79
640.001	68.92
640.191	69
640.381	69.41
640.571	70.04
640.761	70.48
640.951	70.55
641.141	70.27
641.331	69.82
641.521	69.21
641.711	69.5
641.901	69.74
642.091	70.79
642.281	71.8
642.471	71.6
642.661	72.38
642.851	72.39
643.041	72
643.231	72.08
643.42	72.2
643.61	72.79
643.8	73.28
643.99	73.66
644.18	72.58
644.369	72.98
644.559	74.07
644.749	73.23
644.939	73
645.128	73.51
645.318	74.19
645.508	73.69
645.697	73
645.887	73.57
646.076	72.75
646.266	73.44
646.456	73.36
646.645	72.33
646.835	72.32
647.024	72.85
647.214	72.08
647.403	71.73
647.593	71.93
647.782	72.5
647.972	71.57
648.161	70.81
648.351	69.24
648.54	68.67
648.73	69.81
648.919	69.58
649.108	68.9
649.298	69.87
649.487	69.57
649.677	69.27
649.866	69.05
650.055	69.62
650.244	69.69
650.434	69.93
650.623	70.59
650.812	69.88
651.002	70.39
651.191	70.59
651.38	71.45
651.569	71.23
651.758	72.51
651.947	71.45
652.137	71.56
652.326	72.7
652.515	73.43
652.704	73.18
652.893	72.49
653.082	73.24
653.271	73.78
653.46	71.91
653.649	71.84
653.838	72.05
654.027	73.19
654.216	73.18
654.405	73.46
654.594	73.15
654.783	73.34
654.972	73.12
655.161	73.38
655.35	73.17
655.539	73.65
655.728	74.18
655.916	73.53
656.105	73.79
656.294	74
656.483	72.83
656.672	72.42
656.86	72.1
657.049	72.89
657.238	72.65
657.427	73.59
657.615	73.53
657.804	72.84
657.993	72.15
658.181	71.92
658.37	71.73
658.559	72.2
658.747	72.9
658.936	73.36
659.125	71.03
659.313	70.63
659.502	69.47
659.69	70.05
659.879	70.57
660.067	70.77
660.256	70.3
660.444	69.63
660.633	69.58
660.821	69.86
661.01	68.26
661.198	70.07
661.387	70.45
661.575	70.2
661.763	69.26
661.952	68.8
662.14	69.77
662.328	70.17
662.517	70.71
662.705	70.97
662.893	69.81
663.082	71.59
663.27	72.44
663.458	71.82
663.646	73.85
663.834	74.74
664.023	76.42
664.211	76.59
664.399	76.18
664.587	75.57
664.775	75.45
664.963	75.86
665.152	75.1
665.34	74.02
665.528	74.62
665.716	75.23
665.904	76.46
666.092	75.78
666.28	76.31
666.468	76.23
666.656	76.77
666.844	76.28
667.032	77.48
667.22	77.82
667.408	78.91
667.596	78.26
667.784	77.12
667.971	76.24
668.159	76.58
668.347	76.03
668.535	76.02
668.723	76.57
668.911	75.4
669.098	73.6
669.286	73.99
669.474	72.37
669.662	72.98
669.849	72.02
670.037	72.34
670.225	71.62
670.413	72.05
670.6	72.92
670.788	71.39
670.976	73.74
671.163	74.31
671.351	74.74
671.538	77.12
671.726	76.29
671.913	77.13
672.101	76.12
672.289	76.06
672.476	75.79
672.664	75.13
672.851	76.35
673.039	76.32
673.226	76.33
673.413	75.48
673.601	74.67
673.788	75.08
673.976	75.17
674.163	75.46
674.35	75.99
674.538	74.45
674.725	75.93
674.912	76.12
675.1	75.63
675.287	76.8
675.474	76.66
675.662	76.36
675.849	76.97
676.036	76.61
676.223	76.84
676.411	76.53
676.598	76.8
676.785	75.7
676.972	74.48
677.159	74.16
677.346	73.57
677.533	73.38
677.721	72.94
677.908	72.52
678.095	72.34
678.282	71.99
678.469	72.51
678.656	73.66
678.843	72.79
679.03	72.6
679.217	72.34
679.404	72.41
679.591	72.33
679.778	73.21
679.964	73.23
680.151	74.11
680.338	73.29
680.525	72.4
680.712	71.94
680.899	72.76
681.086	74.13
681.272	74.42
681.459	74.55
681.646	75.03
681.833	75.03
682.02	76.06
682.206	74.88
682.393	75.96
682.58	77.18
682.766	78.42
682.953	77.89
683.14	76.83
683.326	76.08
683.513	76.72
683.7	77.28
683.886	76.47
684.073	75.96
684.259	77.39
684.446	77.24
684.632	76.16
684.819	75.63
685.005	76.84
685.192	77.51
685.378	78.57
685.565	76.65
685.751	76.36
685.938	76.35
686.124	75.32
686.31	74.84
686.497	74.42
686.683	75.23
686.87	74.41
687.056	74.04
687.242	74.78
687.429	75.31
687.615	75.87
687.801	74.9
687.987	75.21
688.174	75.72
688.36	76.69
688.546	76.51
688.732	76
688.918	75.25
689.105	73.63
689.291	73.4
689.477	72.38
689.663	72.96
689.849	73.96
690.035	73.52
690.221	73.1
690.407	71.11
690.593	73.1
690.779	73.04
690.965	72.95
691.151	75.3
691.337	73.98
691.523	74.82
691.709	75.5
691.895	74.86
692.081	74.52
692.267	74.95
692.453	75.25
692.639	74.36
692.825	74.48
693.011	76.55
693.196	77.13
693.382	78.36
693.568	78.25
693.754	77.83
693.94	77.98
694.125	79.49
694.311	80.81
694.497	80.96
694.682	81.08
694.868	80.56
695.054	79.66
695.239	77.64
695.425	76.94
695.611	75.8
695.796	75.25
695.982	75.76
696.168	74.94
696.353	73.76
696.539	73.63
696.724	73.02
696.91	72.5
697.095	72.17
697.281	70.81
697.466	70.92
697.652	72.03
697.837	72.8
698.023	72.26
698.208	71.89
698.393	71.6
698.579	71.96
698.764	71.26
698.949	71.62
699.135	70.8
699.32	72.65
699.505	72.42
699.691	72.15
699.876	70.75
700.061	71.04
700.246	72.05
700.432	72.36
700.617	72.45
700.802	74.53
700.987	75.97
701.172	77.2
701.358	76.61
701.543	77.3
701.728	76.7
701.913	75
702.098	75.05
702.283	75.03
702.468	74.95
702.653	75.55
702.838	72.95
703.023	72.94
703.208	73.86
703.393	73.81
703.578	73.5
703.763	73.74
703.948	75.23
704.133	75.32
704.318	76.17
704.503	77.63
704.688	78.87
704.873	81.21
705.057	79.87
705.242	78.29
705.427	80.17
705.612	78.96
705.797	78.68
705.981	80.79
706.166	82.62
706.351	81.76
706.536	81.02
706.72	80.43
706.905	80.4
707.09	82
707.274	83.66
707.459	83.59
707.644	84.83
707.828	86.13
708.013	83.63
708.197	81.38
708.382	80.72
708.567	80.47
708.751	80.47
708.936	80.51
709.12	79.17
709.305	78.07
709.489	78
709.673	78.45
709.858	79.21
710.042	80.75
710.227	80.29
710.411	79.58
710.596	80.19
710.78	79.77
710.964	81.08
711.149	82.01
711.333	82.99
711.517	81.55
711.702	79.5
711.886	79.32
712.07	78.21
712.254	78.4
712.438	78.28
712.623	78.27
712.807	78.38
712.991	77.05
713.175	76.96
713.359	77.34
713.544	77.37
713.728	79.2
713.912	78.03
714.096	79.02
714.28	79.35
714.464	80.73
714.648	79.47
714.832	78.92
715.016	77.11
715.2	76.42
715.384	75.73
715.568	76.89
715.752	76.88
715.936	77.07
716.12	76.75
716.304	78.33
716.488	77.96
716.671	79.84
716.855	80.64
717.039	81.02
717.223	81.45
717.407	82.64
717.59	81.44
717.774	81.02
717.958	80.99
718.142	84.05
718.325	82.22
718.509	82.32
718.693	81.27
718.877	78.92
719.06	79.32
719.244	78
719.428	77.62
719.611	78.75
719.795	78.46
719.978	77.91
720.162	76
720.345	76.77
720.529	76.65
720.713	76.72
720.896	76.82
721.08	78.42
721.263	80.64
721.446	80.63
721.63	80.83
721.813	81.78
721.997	80.1
722.18	81.38
722.364	79.56
722.547	81.46
722.73	82.05
722.914	81.66
723.097	79.28
723.28	78.21
723.464	76.77
723.647	76.94
723.83	76.13
724.013	78.26
724.197	76.77
724.38	77.92
724.563	76.45
724.746	76.32
724.929	78.99
725.112	80.29
725.296	79.39
725.479	79.92
725.662	80.34
725.845	80.86
726.028	79.62
726.211	79.05
726.394	78.44
726.577	78.65
726.76	79.54
726.943	77.58
727.126	78
727.309	78.02
727.492	77.61
727.675	75.36
727.858	73.12
728.041	75.52
728.224	74.85
728.407	74.55
728.589	75.26
728.772	73.93
728.955	75.42
729.138	76.63
729.321	77.1
729.503	76.8
729.686	78.55
729.869	79.33
730.052	79.25
730.234	80.69
730.417	81.98
730.6	80.92
730.782	80.71
730.965	81.03
731.148	80.78
731.33	80.51
731.513	80.68
731.695	80.21
731.878	81.65
732.061	81.33
732.243	81.38
732.426	80.35
732.608	80.76
732.791	82.29
732.973	81.06
733.156	78.66
733.338	78.65
733.52	79.95
733.703	80.08
733.885	79.97
734.068	80.73
734.25	82.59
734.432	83.12
734.615	83.44
734.797	82.96
734.979	81.58
735.162	81.7
735.344	81.82
735.526	81.15
735.708	81.01
735.891	81.1
736.073	78.59
736.255	76.91
736.437	75.55
736.619	75.89
736.802	77.18
736.984	78.1
737.166	79.01
737.348	80.36
737.53	79.39
737.712	80.79
737.894	80.43
738.076	80.77
738.258	81.27
738.44	83.82
738.622	84.51
738.804	81.98
738.986	81.96
739.168	81.98
739.35	82.77
739.532	86.36
739.714	86.2
739.896	86.77
740.078	90.16
740.259	88.31
740.441	87.03
740.623	87.26
740.805	88.67
740.987	89.56
741.168	91.18
741.35	91.06
741.532	90.64
741.714	86.97
741.895	86.56
742.077	84.31
742.259	85.07
742.44	87.26
742.622	86.28
742.804	87.48
742.985	87.32
743.167	85.99
743.348	83.83
743.53	82.38
743.711	86.49
743.893	87.14
744.075	87.14
744.256	86.37
744.438	86.2
744.619	84.8
744.8	83.48
744.982	82.6
745.163	82.44
745.345	86.24
745.526	85.54
745.707	85.08
745.889	83.46
746.07	85.03
746.252	88.45
746.433	87.36
746.614	87.77
746.795	89.36
746.977	90.22
747.158	91.77
747.339	91.26
747.52	92.17
747.702	91.6
747.883	90.74
748.064	90.71
748.245	88.18
748.426	87.06
748.607	89.58
748.788	85.72
748.97	87.66
749.151	86.56
749.332	86.92
749.513	88.53
749.694	90.15
749.875	97.59
750.056	97.16
750.237	97.1
750.418	100.75
750.599	97.96
750.78	103.09
750.96	102.72
751.141	104.03
751.322	103.43
751.503	100.37
751.684	96.12
751.865	90.05
752.046	87.89
752.226	87.63
752.407	85.81
752.588	88.57
752.769	87.94
752.949	85.71
753.13	84.61
753.311	84.56
753.492	88.34
753.672	89.37
753.853	90.5
754.034	89.83
754.214	90.59
754.395	87.78
754.575	84.56
754.756	84.13
754.937	83.55
755.117	83.72
755.298	82.57
755.478	77.7
755.659	79.48
755.839	79.7
756.02	80.11
756.2	78.57
756.381	79.77
756.561	84.17
756.741	85.55
756.922	87.03
757.102	86.37
757.283	88.52
757.463	89.03
757.643	86.9
757.823	88.69
758.004	87.43
758.184	89.41
758.364	92.31
758.545	87.67
758.725	85.74
758.905	86.41
759.085	86.93
759.265	82.23
759.446	81.49
759.626	84.52
759.806	82.61
759.986	84.71
760.166	84.63
760.346	82.23
760.526	84.2
760.706	84.64
760.886	83.39
761.066	85.62
761.246	87.56
761.426	88.1
761.606	86.13
761.786	85.28
761.966	84.5
762.146	82.07
762.326	81.48
762.506	79.46
762.686	78.41
762.866	77.48
763.046	76.15
763.225	76.27
763.405	76.28
763.585	76.82
763.765	78.75
763.945	81.24
764.124	82.78
764.304	84.14
764.484	85.48
764.664	87.68
764.843	88.91
765.023	90.64
765.203	90.5
765.382	92.42
765.562	91.87
765.741	90.84
765.921	89.16
766.101	90.91
766.28	91.21
766.46	91.15
766.639	88.02
766.819	89.52
766.998	87.93
767.178	88.53
767.357	88.13
767.537	91.98
767.716	92.7
767.896	94.14
768.075	95.32
768.254	95.11
768.434	96.65
768.613	97.96
768.792	97.65
768.972	98
769.151	101.16
769.33	101.99
769.51	99.84
769.689	99.72
769.868	98.48
770.047	98.35
770.226	97.66
770.406	100.03
770.585	104.2
770.764	103.44
770.943	105.36
771.122	103.6
771.301	102.69
771.48	102.26
771.66	104.75
771.839	104.28
772.018	101.7
772.197	101.42
772.376	102.7
772.555	101.64
772.734	99.9
772.913	97.69
773.092	97.74
773.271	96.63
773.449	98.43
773.628	93.47
773.807	95.36
773.986	97.33
774.165	103.37
774.344	101.46
774.523	97.38
774.701	100.38
774.88	101.57
775.059	97.86
775.238	99.42
775.417	94.58
775.595	95.96
775.774	94.44
775.953	91.81
776.131	85.44
776.31	83.99
776.489	82.1
776.667	82.83
776.846	80.88
777.025	81.2
777.203	79.92
777.382	78.76
777.56	79.18
777.739	79.26
777.917	80.2
778.096	81.64
778.274	80.71
778.453	84.93
778.631	82.88
778.81	82.37
778.988	84.37
779.166	87.35
779.345	88.85
779.523	88.48
779.702	87.81
779.88	88.92
780.058	90.36
780.237	93.66
780.415	94.98
780.593	94.09
780.771	91.92
780.95	91.48
781.128	90.56
781.306	92.68
781.484	98.22
781.662	97.29
781.841	93.48
782.019	92.82
782.197	91.69
782.375	93.07
782.553	96.34
782.731	99.26
782.909	100.32
783.087	102.23
783.265	102.3
783.443	95.08
783.621	97.61
783.799	105.3
783.977	108.02
784.155	108.34
784.333	105.58
784.511	104.52
784.689	103.33
784.867	102.53
785.045	104.69
785.223	102.93
785.4	104.35
785.578	105.93
785.756	100.9
785.934	97.55
786.112	99.21
786.289	98.97
786.467	97.04
786.645	97.79
786.823	96.34
787	90.22
787.178	92.9
787.356	96.99
787.533	96.19
787.711	96.39
787.889	95.57
788.066	95.86
788.244	93.82
788.421	94.55
788.599	95.72
788.776	96.69
788.954	97.16
789.131	97.63
789.309	94.2
789.486	96.44
789.664	96.89
789.841	97.24
790.019	95.82
790.196	98.63
790.373	100.25
790.551	98.13
790.728	97.14
790.906	99.49
791.083	97.08
791.26	95.03
791.437	92.25
791.615	94.66
791.792	97.23
791.969	96.97
792.146	95.52
792.324	96.53
792.501	100
792.678	102.96
792.855	98.87
793.032	101.38
793.209	103.68
793.387	103.7
793.564	99.25
793.741	95.99
793.918	96.89
794.095	99.53
794.272	99.23
794.449	95.1
794.626	93.93
794.803	93.16
794.98	94.01
795.157	95.87
795.334	97.25
795.511	101.47
795.688	102.13
795.864	103.41
796.041	97.15
796.218	94.76
796.395	98.53
796.572	97.1
796.749	97.66
796.925	93.84
797.102	90.36
797.279	87.45
797.456	85.62
797.632	83.31
797.809	79.4
797.986	81.68
798.162	84.42
798.339	80.88
798.516	81.1
798.692	81.62
798.869	85.41
799.046	85.78
799.222	88.47
799.399	89.78
799.575	93
799.752	92.71
799.928	91.7
800.105	92.59
800.281	96.98
800.458	95.6
800.634	97.89
800.811	95.38
800.987	94.76
801.163	95.62
801.34	93.13
801.516	94.26
801.692	97.54
801.869	102.22
802.045	98.94
802.221	99.43
802.398	102.68
802.574	104.36
802.75	106.81
802.926	109.58
803.103	105.49
803.279	108.75
803.455	104.85
803.631	103.44
803.807	105.58
803.983	109.99
804.16	107.64
804.336	110.38
804.512	108.64
804.688	110.01
804.864	105.02
805.04	103.19
805.216	104.14
805.392	103.74
805.568	101.43
805.744	100.64
805.92	95.55
806.096	95.95
806.272	92.15
806.448	94.61
806.623	90.67
806.799	93.37
806.975	98.19
807.151	96.6
807.327	103.87
807.503	103.19
807.678	105.95
807.854	106.19
808.03	103.81
808.206	109.75
808.381	107.2
808.557	106.08
808.733	110.88
808.908	107.7
809.084	105.96
809.26	99.69
809.435	100.13
809.611	99.62
809.787	100.92
809.962	100.43
810.138	96.59
810.313	96.66
810.489	100.6
810.664	95.46
810.84	96.91
811.015	104.59
811.191	105.38
811.366	108.82
811.542	108.52
811.717	106.09
811.892	104.06
812.068	102.63
812.243	102.77
812.419	103.92
812.594	107.76
812.769	104.41
812.944	99.95
813.12	98.84
813.295	95.92
813.47	95.08
813.645	95.8
813.821	103.15
813.996	102.96
814.171	102.57
814.346	98.72
814.521	96.13
814.697	96.66
814.872	94.49
815.047	100.97
815.222	104.48
815.397	104.16
815.572	104.72
815.747	94.77
815.922	95.15
816.097	96.86
816.272	97.15
816.447	101.15
816.622	106.09
816.797	105.12
816.972	108.96
817.147	104.03
817.322	103.86
817.496	104.37
817.671	107.76
817.846	111.67
818.021	108.62
818.196	108.95
818.371	103.55
818.545	101.89
818.72	100.7
818.895	95.88
819.069	97.25
819.244	94.24
819.419	94.43
819.594	92.46
819.768	88.34
819.943	89.33
820.117	85.5
820.292	85.13
820.467	82.57
820.641	80.7
820.816	76.81
820.99	74.04
821.165	71.88
821.339	70.01
821.514	69.22
821.688	67.61
821.863	67.48
822.037	66.41
822.212	65.89
822.386	65.25
822.56	64.59
822.735	64.89
822.909	65.02
823.084	65.38
823.258	65.9
823.432	67.86
823.606	68.62
823.781	68.59
823.955	70.68
824.129	71.71
824.303	73.73
824.478	74.36
824.652	74.56
824.826	75.35
825	76.54
825.174	77.06
825.348	75.02
825.523	76.59
825.697	77.25
825.871	76.32
826.045	75.54
826.219	75.65
826.393	74.73
826.567	73.11
826.741	71.89
826.915	73.77
827.089	73.5
827.263	75.52
827.437	76.24
827.611	76.18
827.784	77.77
827.958	77.26
828.132	74.69
828.306	78.43
828.48	84.79
828.654	87.03
828.827	84.04
829.001	88.66
829.175	89.8
829.349	89.89
829.522	87.41
829.696	88.27
829.87	91.44
830.044	95.78
830.217	97.93
830.391	95.62
830.565	98.51
830.738	98.2
830.912	97.61
831.085	96.41
831.259	97.1
831.432	100.23
831.606	96.19
831.779	94.14
831.953	94.06
832.126	89.37
832.3	84.34
832.473	82.43
832.647	84.27
832.82	81.06
832.994	82.11
833.167	80.73
833.34	80.38
833.514	80.97
833.687	80.58
833.86	76.89
834.034	80.05
834.207	83.66
834.38	86.34
834.553	85.94
834.727	87.74
834.9	86.55
835.073	87.64
835.246	89.24
835.419	90.35
835.593	92.41
835.766	97.59
835.939	97.62
836.112	100.82
836.285	100.66
836.458	101.75
836.631	104.49
836.804	110.02
836.977	113.69
837.15	110.57
837.323	113.55
837.496	122.37
837.669	126.38
837.842	125.14
838.015	125.24
838.188	120.74
838.361	125.1
838.533	116.39
838.706	105.73
838.879	103.48
839.052	108.48
839.225	107.5
839.398	105.51
839.57	97.08
839.743	95.61
839.916	96.54
840.088	96.81
840.261	94.93
840.434	101.99
840.607	107.47
840.779	110.84
840.952	108.73
841.124	110.1
841.297	106.35
841.47	115.13
841.642	122.42
841.815	120.5
841.987	124.37
842.16	127.03
842.332	122.03
842.505	121.94
842.677	125.95
842.85	126.16
843.022	128.88
843.194	133.22
843.367	128.3
843.539	122.67
843.712	119
843.884	120.52
844.056	121.53
844.229	122.29
844.401	122.3
844.573	111.48
844.745	113.21
844.918	105.95
845.09	104.11
845.262	107.05
845.434	112.85
845.606	115.4
845.779	115.27
845.951	113.75
846.123	112.81
846.295	115.52
846.467	121.7
846.639	119.18
846.811	131.01
846.983	131.3
847.155	136.06
847.327	126.72
847.499	133.1
847.671	125.19
847.843	124.6
848.015	118.39
848.187	112.11
848.359	113.91
848.531	113.1
848.703	104.33
848.875	97.7
849.047	91.78
849.218	98.69
849.39	96.55
849.562	97.18
849.734	100.11
849.905	103.33
850.077	102.51
850.249	103.01
850.421	108.21
850.592	106.16
850.764	112.95
850.936	114.85
851.107	111.18
851.279	116.17
851.451	129.07
851.622	128.01
851.794	129.68
851.965	139.55
852.137	128.54
852.308	126.02
852.48	125.31
852.651	121.25
852.823	121.58
852.994	117.78
853.166	110.88
853.337	103.07
853.509	101.06
853.68	101.37
853.851	98.75
854.023	104.93
854.194	101.99
854.365	105.88
854.537	106.38
854.708	108.37
854.879	109.95
855.05	107.21
855.222	104.11
855.393	109.39
855.564	112.6
855.735	114.4
855.906	118.56
856.078	126.32
856.249	129.79
856.42	140.35
856.591	137.38
856.762	145.48
856.933	149.75
857.104	159.98
857.275	147.15
857.446	143.69
857.617	144.36
857.788	143.45
857.959	134.56
858.13	132.26
858.301	122.49
858.472	125.37
858.643	112.33
858.814	113.53
858.985	114.49
859.155	122.43
859.326	123.76
859.497	122.33
859.668	125.24
859.839	130.04
860.009	131.9
860.18	128.25
860.351	126.99
860.522	133.91
860.692	139.13
860.863	130.8
861.034	136.19
861.204	137.71
861.375	131.24
861.546	121.18
861.716	118.37
861.887	113.91
862.057	112.12
862.228	114.82
862.398	121.46
862.569	115.36
862.739	119.16
862.91	112.91
863.08	110.4
863.251	116
863.421	114.34
863.592	115.93
863.762	119.1
863.932	119.1
864.103	122.69
864.273	119.59
864.443	122.68
864.614	121.04
864.784	119.55
864.954	121.4
865.125	120.65
865.295	125.26
865.465	119.15
865.635	120.78
865.805	126.96
865.976	121.37
866.146	120.66
866.316	118.45
866.486	122.54
866.656	129.83
866.826	124.78
866.996	123.78
867.166	123.7
867.336	137.98
867.506	130.41
867.676	122.03
867.846	117.03
868.016	117.35
868.186	123.42
868.356	123.75
868.526	115.77
868.696	117.54
868.866	122.82
869.036	126.98
869.206	115.01
869.376	118.03
869.545	122.28
869.715	127.12
869.885	132.52
870.055	129.13
870.224	120.14
870.394	128.17
870.564	124.88
870.734	117.23
870.903	117.03
871.073	123.96
871.243	122.79
871.412	130.91
871.582	133.35
871.751	126.98
871.921	129.17
872.091	128.45
872.26	120.38
872.43	125.4
872.599	138.79
872.769	131.59
872.938	133.13
873.108	133.71
873.277	120.45
873.446	119.79
873.616	119.02
873.785	114.4
873.955	124.9
874.124	133.32
874.293	132.84
874.463	123.24
874.632	129.08
874.801	121.03
874.971	122.49
875.14	127.53
875.309	134.12
875.478	137.36
875.647	135.74
875.817	130.81
875.986	129.69
876.155	134.8
876.324	136.56
876.493	130.09
876.662	129.85
876.831	125.66
877	128.37
877.17	120.47
877.339	116.22
877.508	119.92
877.677	118.18
877.846	113.45
878.015	108.8
878.184	115.96
878.352	115.76
878.521	120.45
878.69	121.32
878.859	118
879.028	119.09
879.197	122.79
879.366	116.97
879.534	120.01
879.703	119.13
879.872	111.75
880.041	106.74
880.21	105.54
880.378	103.74
880.547	103.3
880.716	99.7
880.884	94.83
881.053	89.21
881.222	89.09
881.39	87.49
881.559	85.42
881.727	86.72
881.896	85.39
882.065	83.78
882.233	80.25
882.402	77.51
882.57	76.69
882.739	78.28
882.907	78.58
883.076	78.18
883.244	78.46
883.412	81.63
883.581	82.77
883.749	81.28
883.918	85.25
884.086	86.87
884.254	90.2
884.423	95.17
884.591	99.35
884.759	101.89
884.927	105.22
885.096	106.15
885.264	109.65
885.432	117.64
885.6	121.14
885.769	114.47
885.937	118.65
886.105	123.15
886.273	128.16
886.441	126.62
886.609	134.4
886.777	137.09
886.945	136.35
887.113	132.78
887.281	124.16
887.449	127.63
887.617	129.13
887.785	132.38
887.953	124.84
888.121	126.34
888.289	128.99
888.457	129.6
888.625	124.8
888.793	123.69
888.961	126.9
889.129	130.32
889.296	137.55
889.464	144.49
889.632	141.43
889.8	144.51
889.967	139.33
890.135	136.79
