Data from JASIL_3192_Reflection_02.txt Node
Date: Fri Nov 13 14:00:06 EST 2015
User: Geneva
Spectrometer: USB4E03002
Autoset integration time: false
Trigger mode: 4
Integration Time (sec): 1.000000E-1
Scans to average: 10
Electric dark correction enabled: false
Nonlinearity correction enabled: false
Boxcar width: 5
Stray light correction enabled: false
XAxis mode: Wavelengths
Stop averaging: false
Number of Pixels in Spectrum: 3648
>>>>>Begin Spectral Data<<<<<
177.575	-54.27
177.794	-104.15
178.014	-82.8
178.233	-43.64
178.452	-74.73
178.672	-65.59
178.891	-17.47
179.11	700
179.33	-364.52
179.549	-323.46
179.768	-270.11
179.987	-3966.67
180.207	-25.54
180.426	-63.57
180.645	-129.17
180.864	-64.09
181.084	-70.5
181.303	-136.17
181.522	-13.91
181.741	-47.76
181.96	-74.39
182.179	1000
182.398	11700
182.618	163.54
182.837	-683.67
183.056	545.76
183.275	607.14
183.494	5950
183.713	-464.41
183.932	-818.37
184.151	-39200
184.37	-142.86
184.589	-70.73
184.808	8.38
185.027	-20.56
185.246	-16.05
185.465	25.8
185.684	1.69
185.903	-24.23
186.122	-16.67
186.341	31.34
186.56	13.04
186.779	113.82
186.998	151.36
187.216	174.38
187.435	134.33
187.654	133.42
187.873	110.66
188.092	141.56
188.311	165.19
188.53	246.78
188.748	282.16
188.967	258.5
189.186	292.58
189.405	261.62
189.623	493.71
189.842	357.81
190.061	658.59
190.28	-3726.32
190.498	414.71
190.717	235.38
190.936	304.36
191.154	275.35
191.373	364.14
191.592	442.22
191.81	521.79
192.029	1373.47
192.248	-312.82
192.466	-513.01
192.685	-924.1
192.904	-183.78
193.122	-141.39
193.341	-310.31
193.559	-299.6
193.778	-422.63
193.996	-257.04
194.215	-334.16
194.433	-235.69
194.652	3264
194.87	1212.5
195.089	-1620.59
195.307	378.75
195.526	543.59
195.744	-648.72
195.963	-4514.29
196.181	-277.04
196.399	-225.58
196.618	-160.92
196.836	4081.82
197.055	-251.91
197.273	-244.93
197.491	-55.72
197.71	-38.87
197.928	-7.96
198.146	-103.23
198.365	26.87
198.583	25.71
198.801	38.62
199.019	70.24
199.238	56.8
199.456	-185.71
199.674	-25.32
199.892	379.49
200.111	-229.11
200.329	-146.49
200.547	-141.33
200.765	-15.84
200.983	-3.58
201.202	-20.72
201.42	-17.45
201.638	-62.6
201.856	-109.56
202.074	-171.32
202.292	-587.32
202.51	-2004.55
202.728	-598.72
202.946	-166
203.165	-176.68
203.383	-217.65
203.601	-332.82
203.819	-349.25
204.037	-119.16
204.255	-62.31
204.473	-114.43
204.691	-66.05
204.909	-45.75
205.127	-33.26
205.345	-0.52
205.562	-5.95
205.78	-36.21
205.998	12.25
206.216	7.99
206.434	12.95
206.652	-24.18
206.87	4.84
207.088	-458.73
207.306	-255.28
207.523	-280.89
207.741	1522.22
207.959	-536.36
208.177	-151.09
208.395	-1028.57
208.612	-135.05
208.83	-645.45
209.048	1352.38
209.266	446.09
209.483	-271.59
209.701	-243.33
209.919	-172.56
210.136	-9.55
210.354	-43.64
210.572	-71.6
210.79	-68.31
211.007	-176.92
211.225	-42.06
211.442	47.55
211.66	70.9
211.878	81.36
212.095	62.24
212.313	54.72
212.53	-16.31
212.748	-92.86
212.966	13.25
213.183	100
213.401	53.91
213.618	12300
213.836	-486.57
214.053	281.42
214.271	229.29
214.488	476.74
214.705	513.79
214.923	2022.22
215.14	-109.78
215.358	-51
215.575	-79.53
215.793	-112.02
216.01	-44.95
216.227	-75.97
216.445	-50.95
216.662	-32.7
216.879	-90.91
217.097	-97.08
217.314	-209.65
217.531	-165.2
217.749	-1079.49
217.966	-203.49
218.183	-1172.41
218.4	-364.08
218.618	-431.03
218.835	1608.33
219.052	398.23
219.269	-2791.67
219.487	232.24
219.704	115.38
219.921	187.38
220.138	-119.58
220.355	-126.89
220.572	-63.18
220.79	-222.5
221.007	-31.69
221.224	-3.17
221.441	66.47
221.658	39.53
221.875	88.89
222.092	66.34
222.309	-185.71
222.526	-1.82
222.743	30.9
222.96	47.81
223.177	44.18
223.394	44.03
223.611	48.43
223.828	94.85
224.045	91.71
224.262	145.01
224.479	150.4
224.696	128.35
224.913	148.17
225.13	154.73
225.347	132.66
225.564	122.29
225.781	130.41
225.997	114.15
226.214	90.63
226.431	79.7
226.648	18.3
226.865	11.86
227.082	25.93
227.298	29.79
227.515	-3.33
227.732	3.24
227.949	0
228.165	4.7
228.382	7.46
228.599	7.4
228.816	7.52
229.032	10.45
229.249	10.2
229.466	9.72
229.682	13.53
229.899	26.86
230.116	17.65
230.332	25.57
230.549	35.82
230.765	47.02
230.982	53.42
231.199	55.24
231.415	55.93
231.632	68.52
231.848	68.51
232.065	55.77
232.281	56.39
232.498	74.96
232.714	64.15
232.931	58.3
233.147	39.36
233.364	25.64
233.58	45.93
233.797	48.09
234.013	50.99
234.23	36.73
234.446	37.8
234.662	41.49
234.879	61.34
235.095	59.42
235.312	69.51
235.528	80.27
235.744	86.44
235.961	68.15
236.177	77.2
236.393	60.19
236.61	72.39
236.826	80.85
237.042	87.71
237.258	59.7
237.475	68.9
237.691	60.88
237.907	54.85
238.123	44.3
238.339	50.45
238.556	56.54
238.772	51.73
238.988	38.69
239.204	22.19
239.42	35.02
239.636	37.28
239.853	39.14
240.069	34.83
240.285	38.44
240.501	41.27
240.717	38.96
240.933	29.28
241.149	32.07
241.365	26.52
241.581	29.23
241.797	25.33
242.013	23.64
242.229	22.69
242.445	25.34
242.661	23.22
242.877	24.78
243.093	20.63
243.309	22.06
243.525	21.43
243.741	18.85
243.957	17.44
244.173	15.41
244.388	10.61
244.604	-0.04
244.82	-2.74
245.036	-7.35
245.252	-5.08
245.468	-2.54
245.683	-4.47
245.899	-8.64
246.115	-3.37
246.331	-4.7
246.547	-4.73
246.762	1.4
246.978	6.06
247.194	7.94
247.409	13.77
247.625	11.8
247.841	6.89
248.057	9.67
248.272	14.62
248.488	15.48
248.703	17.23
248.919	22.26
249.135	16.26
249.35	15.09
249.566	16.48
249.782	17.76
249.997	20.47
250.213	29.31
250.428	31.55
250.644	32.82
250.859	29.42
251.075	23.99
251.29	21.87
251.506	26.05
251.721	29.68
251.937	26.84
252.152	22.61
252.368	20.95
252.583	18.8
252.798	17.95
253.014	17.08
253.229	11.86
253.445	20.11
253.66	20.53
253.875	21.15
254.091	16.62
254.306	17.47
254.521	26.85
254.737	31.2
254.952	26.54
255.167	23.59
255.383	28.06
255.598	26.37
255.813	25.21
256.028	22.1
256.244	18.79
256.459	17.94
256.674	21
256.889	15.46
257.104	9.55
257.32	14
257.535	13.2
257.75	9.2
257.965	13.95
258.18	13.02
258.395	16.75
258.61	14.64
258.826	15.01
259.041	13.99
259.256	11.47
259.471	13.2
259.686	14.52
259.901	14.63
260.116	14.92
260.331	13.94
260.546	13.65
260.761	8.77
260.976	12.8
261.191	11.64
261.406	14.41
261.621	19.54
261.836	21.88
262.05	17.47
262.265	13.97
262.48	14.57
262.695	15.06
262.91	17.26
263.125	25.08
263.34	20.39
263.555	19.01
263.769	15.1
263.984	9.73
264.199	7.73
264.414	7.9
264.629	13.53
264.843	14.62
265.058	16.59
265.273	17.74
265.488	14.51
265.702	13.59
265.917	11.07
266.132	13.57
266.346	10.57
266.561	12.82
266.776	12.98
266.99	12.6
267.205	11.26
267.42	6.66
267.634	5.19
267.849	5.09
268.063	7.27
268.278	11.79
268.492	7.19
268.707	10.96
268.922	9.4
269.136	14.05
269.351	12.96
269.565	13.06
269.78	16.29
269.994	18.43
270.209	16.44
270.423	14.84
270.637	15.05
270.852	16.36
271.066	17.77
271.281	16.99
271.495	12.88
271.709	13.33
271.924	13.78
272.138	15.61
272.353	13.52
272.567	16.68
272.781	16.82
272.996	16.59
273.21	14.05
273.424	14.42
273.638	14.56
273.853	16.64
274.067	16.71
274.281	12.8
274.495	9.59
274.71	10.73
274.924	7.94
275.138	8.5
275.352	8.89
275.566	13.35
275.781	10.37
275.995	10.27
276.209	10.33
276.423	9.18
276.637	12.92
276.851	12.13
277.065	11.73
277.279	9.33
277.493	9.13
277.707	9.36
277.921	8.41
278.135	10.56
278.349	11.37
278.563	10.51
278.777	11.3
278.991	9.5
279.205	11.03
279.419	11.44
279.633	12
279.847	11.67
280.061	11.23
280.275	11.57
280.489	8.25
280.703	7.69
280.917	7.33
281.131	4.76
281.344	6.36
281.558	6.45
281.772	4.3
281.986	6.5
282.2	7
282.414	3.99
282.627	2.52
282.841	6.08
283.055	5.23
283.269	6.14
283.482	7.59
283.696	7.98
283.91	7.75
284.123	9.68
284.337	7.63
284.551	6.87
284.764	9.52
284.978	9.02
285.192	10.35
285.405	11.89
285.619	11.42
285.833	12.5
286.046	11.59
286.26	9.53
286.473	8.92
286.687	11.17
286.9	13.27
287.114	13.8
287.327	15.47
287.541	13.43
287.754	11.17
287.968	12.41
288.181	11.02
288.395	10.56
288.608	12.6
288.822	10.94
289.035	8.64
289.248	7.04
289.462	6.36
289.675	6.44
289.889	6.08
290.102	7.28
290.315	5.18
290.529	6.45
290.742	8.36
290.955	11.57
291.169	13.03
291.382	13.54
291.595	13.5
291.808	13.9
292.022	14.57
292.235	15.05
292.448	14.23
292.661	13.18
292.875	13.57
293.088	13.06
293.301	9.79
293.514	9.96
293.727	12.86
293.94	13.51
294.153	11.34
294.367	9.06
294.58	9.85
294.793	10.18
295.006	12.44
295.219	10.38
295.432	8.83
295.645	9.25
295.858	8.39
296.071	6.99
296.284	5.19
296.497	7.76
296.71	7.05
296.923	7.3
297.136	6.95
297.349	6.81
297.562	6.27
297.775	6.73
297.988	6.66
298.201	5.7
298.414	5.53
298.626	7.89
298.839	5.39
299.052	5.98
299.265	4.75
299.478	7.44
299.691	5.95
299.903	8.62
300.116	8.33
300.329	7.75
300.542	8.93
300.755	8.11
300.967	5.95
301.18	7.13
301.393	8.43
301.605	9.11
301.818	10.21
302.031	12.91
302.243	14.24
302.456	18.82
302.669	20.84
302.881	22.65
303.094	24.06
303.307	27.1
303.519	27.84
303.732	27.63
303.944	27.18
304.157	24.65
304.37	24.32
304.582	24.64
304.795	21.47
305.007	21.96
305.22	20.97
305.432	21.45
305.645	19.83
305.857	19.59
306.069	20.63
306.282	20.01
306.494	20.54
306.707	20.39
306.919	18.89
307.132	18.03
307.344	17.48
307.556	18.23
307.769	18.63
307.981	18.25
308.193	16.76
308.406	15.9
308.618	17.13
308.83	15.67
309.043	16.52
309.255	17.52
309.467	17.45
309.679	16.04
309.892	15.72
310.104	15.64
310.316	14.99
310.528	14.88
310.74	14.74
310.953	13.22
311.165	15.05
311.377	13.89
311.589	11.81
311.801	11.5
312.013	15.07
312.225	15.07
312.437	14.49
312.649	16.69
312.862	15.87
313.074	17.43
313.286	18.3
313.498	19.23
313.71	20.66
313.922	21.71
314.134	24.66
314.346	20.67
314.558	21.1
314.77	22.23
314.982	20.89
315.193	21.8
315.405	19.45
315.617	18.23
315.829	16.85
316.041	13.96
316.253	15.59
316.465	14.67
316.677	13.24
316.888	14.53
317.1	12.14
317.312	14.18
317.524	13.23
317.736	15.02
317.947	17.9
318.159	17.95
318.371	19.22
318.583	18.88
318.794	16.66
319.006	17.32
319.218	15.43
319.43	17.43
319.641	16.05
319.853	16.59
320.064	15.31
320.276	13.35
320.488	13.81
320.699	14.54
320.911	12.7
321.123	17.32
321.334	17.71
321.546	19.08
321.757	18.17
321.969	18.39
322.18	18.16
322.392	18.93
322.603	19.92
322.815	20.79
323.026	22.96
323.238	24.06
323.449	22.69
323.661	23.13
323.872	21.82
324.083	24.34
324.295	23.4
324.506	24.4
324.718	25.58
324.929	24.45
325.14	23.23
325.352	21.69
325.563	19.43
325.774	18.91
325.986	20.34
326.197	19.46
326.408	17.13
326.62	19.48
326.831	19.7
327.042	18.66
327.253	19.36
327.464	19.49
327.676	17.82
327.887	19.35
328.098	20.09
328.309	19.61
328.52	21.56
328.732	21.25
328.943	22.13
329.154	20.76
329.365	20.68
329.576	19.56
329.787	22.98
329.998	25.72
330.209	27.84
330.42	25.82
330.631	25.24
330.842	25.62
331.053	26.42
331.264	20.88
331.475	23.11
331.686	24.31
331.897	27.27
332.108	23.47
332.319	21.91
332.53	21.81
332.741	23.14
332.952	24.63
333.163	21.1
333.374	19.54
333.585	23.44
333.795	22.28
334.006	20.84
334.217	19.06
334.428	18.74
334.639	20.41
334.849	17.46
335.06	15.67
335.271	14.59
335.482	18.05
335.692	19.71
335.903	19.53
336.114	20.56
336.325	23.09
336.535	23.81
336.746	23.32
336.957	22.03
337.167	24.03
337.378	23.74
337.589	23.44
337.799	22.18
338.01	23.24
338.22	23.67
338.431	20.66
338.642	20.97
338.852	21.21
339.063	23.08
339.273	23.43
339.484	21.86
339.694	23.82
339.905	21.73
340.115	23.84
340.326	22.07
340.536	21.45
340.746	21.96
340.957	20.19
341.167	19.92
341.378	19.52
341.588	18.65
341.799	17.67
342.009	16.66
342.219	16.6
342.43	16.6
342.64	17.75
342.85	19.05
343.061	19.47
343.271	19.33
343.481	18.28
343.691	18.34
343.902	18.05
344.112	19.16
344.322	20.41
344.532	22.32
344.743	21.62
344.953	22
345.163	20.24
345.373	19.86
345.583	19.48
345.793	19.78
346.004	20.63
346.214	21.15
346.424	20.13
346.634	17.83
346.844	17.53
347.054	17.18
347.264	18.3
347.474	16.73
347.684	17.84
347.894	17.49
348.104	17.63
348.314	16.81
348.524	16.25
348.734	18.18
348.944	19.45
349.154	20.35
349.364	19.42
349.574	16.68
349.784	19.75
349.994	20.18
350.204	21.13
350.413	19.6
350.623	19.02
350.833	18.93
351.043	17.59
351.253	17.01
351.463	16.63
351.672	16.82
351.882	17.78
352.092	16.8
352.302	17.73
352.511	18.15
352.721	19.2
352.931	18.27
353.141	17.23
353.35	15.5
353.56	15.61
353.77	15.56
353.979	16.99
354.189	17.59
354.399	17.63
354.608	16.41
354.818	16.65
355.027	17.18
355.237	18.36
355.447	19.71
355.656	20.27
355.866	20.54
356.075	19.72
356.285	19.82
356.494	19.49
356.704	20.17
356.913	20.39
357.123	18.82
357.332	17.86
357.542	17.52
357.751	17.84
357.96	18.44
358.17	18.07
358.379	17.83
358.589	18.37
358.798	17.53
359.007	17.45
359.217	17.88
359.426	19.39
359.635	19.28
359.845	19.39
360.054	18.71
360.263	19.56
360.472	20.16
360.682	20.75
360.891	19.18
361.1	19.78
361.309	20
361.519	19.36
361.728	17.77
361.937	18.34
362.146	19.09
362.355	19.35
362.564	19.25
362.774	18.33
362.983	18.04
363.192	18.63
363.401	19.98
363.61	17.78
363.819	17.38
364.028	18.77
364.237	19.21
364.446	19.11
364.655	19.68
364.864	21.02
365.073	22.25
365.282	23.11
365.491	22.92
365.7	21.65
365.909	22.59
366.118	22.54
366.327	21.46
366.536	20.94
366.745	19.25
366.954	18.73
367.162	18.19
367.371	17.56
367.58	18.32
367.789	18.48
367.998	19.39
368.207	20.25
368.415	20.96
368.624	20.69
368.833	19.7
369.042	20.73
369.25	20.95
369.459	20.12
369.668	20.33
369.877	19.12
370.085	19.76
370.294	18.93
370.503	19.07
370.711	18.06
370.92	18.24
371.129	19.51
371.337	20.07
371.546	18.82
371.754	18.22
371.963	17.19
372.171	17.38
372.38	16.83
372.589	15.09
372.797	13.17
373.006	14.04
373.214	13.78
373.423	13.57
373.631	13.32
373.84	14.42
374.048	14.6
374.256	15.53
374.465	15.14
374.673	14.06
374.882	16
375.09	15.67
375.298	16.66
375.507	16.1
375.715	16.24
375.923	14.24
376.132	13.83
376.34	14.26
376.548	13.81
376.757	13.46
376.965	14.68
377.173	14.33
377.381	15.33
377.59	14.31
377.798	15.39
378.006	14.8
378.214	16.72
378.423	17.68
378.631	16.51
378.839	16.4
379.047	17.39
379.255	16.36
379.463	16.01
379.671	17.39
379.879	17.45
380.088	17.14
380.296	16.27
380.504	15.89
380.712	14.54
380.92	14.51
381.128	15.26
381.336	15.35
381.544	15.97
381.752	15.24
381.96	13.81
382.168	14.72
382.376	13.81
382.584	14.53
382.791	14.39
382.999	14.5
383.207	16.1
383.415	16.54
383.623	16.77
383.831	16.16
384.039	17.65
384.247	18.15
384.454	18.1
384.662	18.54
384.87	17.78
385.078	18.04
385.285	18.75
385.493	16.75
385.701	16.53
385.909	15.63
386.116	16.55
386.324	15.46
386.532	14.65
386.739	14.5
386.947	15.07
387.155	16.38
387.362	16.71
387.57	17.15
387.778	17.24
387.985	16.32
388.193	16.13
388.4	15.72
388.608	14.92
388.816	15.12
389.023	13.82
389.231	13.05
389.438	12.63
389.646	12.08
389.853	11.14
390.061	11.56
390.268	11.16
390.475	10.68
390.683	11.17
390.89	12.58
391.098	12.61
391.305	13.81
391.512	15.07
391.72	14.81
391.927	15.16
392.135	14.6
392.342	15
392.549	16.07
392.756	16.68
392.964	16.02
393.171	15.73
393.378	15.76
393.586	14.28
393.793	12.43
394	11.98
394.207	11.4
394.414	11.51
394.622	11.62
394.829	10.69
395.036	10.05
395.243	10.44
395.45	10.1
395.657	9.8
395.864	12.12
396.072	13.94
396.279	14.24
396.486	13.81
396.693	14.1
396.9	13.7
397.107	13.86
397.314	14.95
397.521	14.89
397.728	13.94
397.935	14.57
398.142	13.07
398.349	12.05
398.556	12.81
398.763	13.86
398.97	14.5
399.177	14.71
399.383	13.78
399.59	13.56
399.797	14.13
400.004	14.67
400.211	14.67
400.418	15.66
400.625	16.52
400.831	16.24
401.038	15.63
401.245	15.16
401.452	15.69
401.658	16.29
401.865	15.6
402.072	14.86
402.279	15.23
402.485	14.29
402.692	13.29
402.899	13.33
403.105	13.59
403.312	14.04
403.519	14.15
403.725	13.32
403.932	13.58
404.138	13.44
404.345	13.54
404.552	13.81
404.758	14.36
404.965	14.38
405.171	13.61
405.378	14.24
405.584	14.39
405.791	14.42
405.997	15.09
406.204	15.6
406.41	15.77
406.617	15.79
406.823	15.87
407.029	16.24
407.236	16.02
407.442	16.04
407.649	15.38
407.855	15.39
408.061	15.31
408.268	15.52
408.474	16.07
408.68	16.48
408.887	16
409.093	15.74
409.299	15.58
409.505	15.94
409.712	17.09
409.918	16.27
410.124	16.08
410.33	16.52
410.537	16.12
410.743	15.12
410.949	15.19
411.155	15.54
411.361	15.66
411.567	15.3
411.773	15.05
411.98	14.41
412.186	15.23
412.392	15.23
412.598	15.59
412.804	16.11
413.01	16.41
413.216	16.25
413.422	15.96
413.628	15.47
413.834	15.55
414.04	15.58
414.246	14.95
414.452	14.9
414.658	14.98
414.864	14.75
415.07	15.21
415.275	14.62
415.481	15.03
415.687	15.58
415.893	15.72
416.099	15.7
416.305	15.88
416.511	16.07
416.716	15.37
416.922	15.24
417.128	14.54
417.334	13.64
417.539	13.88
417.745	13.42
417.951	12.34
418.157	12.41
418.362	11.9
418.568	11.15
418.774	10.85
418.979	11.31
419.185	11.03
419.391	11.31
419.596	11.52
419.802	11.38
420.008	11.15
420.213	6.68
420.419	7.04
420.624	7.48
420.83	8.23
421.035	8.19
421.241	8.23
421.446	8.31
421.652	8.37
421.857	8.11
422.063	8.29
422.268	8.5
422.474	13.52
422.679	13.2
422.885	13.5
423.09	13.13
423.295	13.14
423.501	12.96
423.706	12.78
423.911	12.69
424.117	12.67
424.322	12.91
424.527	13.12
424.733	13.19
424.938	12.78
425.143	12.49
425.349	12.57
425.554	13.21
425.759	13.25
425.964	13.18
426.169	12.95
426.375	12.62
426.58	12.29
426.785	12.22
426.99	11.59
427.195	11.75
427.4	11.99
427.605	12.43
427.811	12.98
428.016	12.55
428.221	12.98
428.426	12.67
428.631	13.45
428.836	13.72
429.041	14.25
429.246	14.5
429.451	15.04
429.656	14.88
429.861	14.81
430.066	14.53
430.271	15.17
430.476	15.22
430.681	16.01
430.886	15.42
431.09	14.99
431.295	14.21
431.5	14.02
431.705	13.43
431.91	13.32
432.115	13.08
432.32	12.19
432.524	11.73
432.729	11.39
432.934	11.74
433.139	11.84
433.343	11.64
433.548	11.74
433.753	11.71
433.958	11.45
434.162	10.92
434.367	10.86
434.572	10.81
434.776	10.78
434.981	10.97
435.186	10.05
435.39	10.14
435.595	10.71
435.799	11.04
436.004	11.04
436.209	11.94
436.413	12.3
436.618	12.16
436.822	12.22
437.027	12.16
437.231	12.65
437.436	11.95
437.64	11.71
437.845	11.27
438.049	10.71
438.253	10.67
438.458	10.53
438.662	10.17
438.867	10.27
439.071	10.4
439.275	10.78
439.48	10.5
439.684	11.24
439.888	11.46
440.093	11.33
440.297	11.26
440.501	11.76
440.706	11.44
440.91	11.82
441.114	12.24
441.318	12.24
441.523	11.96
441.727	11.74
441.931	11.59
442.135	11.35
442.339	11.96
442.543	12.29
442.748	12.39
442.952	12.58
443.156	12.59
443.36	12.37
443.564	12.41
443.768	12.24
443.972	12.74
444.176	12.75
444.38	13.07
444.584	13.04
444.788	12.53
444.992	12.48
445.196	12.38
445.4	12.42
445.604	12.14
445.808	11.94
446.012	12.34
446.216	12.03
446.42	12.18
446.624	12.14
446.828	12.17
447.032	12.55
447.235	12.19
447.439	12.19
447.643	12.25
447.847	12.13
448.051	12.88
448.254	12.73
448.458	13
448.662	13.02
448.866	12.71
449.069	12.18
449.273	12.52
449.477	12.93
449.681	13.29
449.884	13.35
450.088	13.78
450.292	13.02
450.495	13.29
450.699	12.94
450.902	12.41
451.106	12.68
451.31	12.99
451.513	12.48
451.717	12.21
451.92	12.01
452.124	11.64
452.327	11.6
452.531	10.97
452.734	11.03
452.938	11.13
453.141	11.62
453.345	11.84
453.548	11.94
453.752	12.46
453.955	12.49
454.158	12.92
454.362	13.42
454.565	13.3
454.769	14.56
454.972	14.01
455.175	14.41
455.379	14.55
455.582	13.95
455.785	13.33
455.988	13.12
456.192	13.33
456.395	12.66
456.598	12.13
456.801	11.98
457.005	11.46
457.208	11.93
457.411	11.09
457.614	10.63
457.817	11.1
458.021	11.33
458.224	11.18
458.427	10.81
458.63	11.17
458.833	11.09
459.036	11.1
459.239	11.32
459.442	11.04
459.645	11.42
459.848	11.35
460.051	11.27
460.254	11.08
460.457	11.2
460.66	11.32
460.863	11.06
461.066	11.33
461.269	11.1
461.472	10.71
461.675	10.36
461.878	10.47
462.081	11.31
462.284	11.57
462.486	11.38
462.689	10.58
462.892	10.56
463.095	10.63
463.298	10.65
463.5	11.42
463.703	11.83
463.906	12.54
464.109	12.47
464.311	11.94
464.514	12.15
464.717	13.14
464.92	13.27
465.122	12.76
465.325	13.1
465.528	13.04
465.73	12.68
465.933	12.59
466.135	12.39
466.338	12.29
466.541	12.54
466.743	12.02
466.946	11.75
467.148	12.49
467.351	13.1
467.553	12.58
467.756	12.58
467.958	12.38
468.161	12.01
468.363	12.37
468.566	12.41
468.768	12.45
468.971	13.13
469.173	13.09
469.375	12.62
469.578	12.97
469.78	13.31
469.983	13.39
470.185	13.88
470.387	14.02
470.59	14.05
470.792	13.87
470.994	13.55
471.196	13.2
471.399	13.64
471.601	14.06
471.803	13.01
472.005	13.22
472.208	12.71
472.41	13.1
472.612	12.97
472.814	12.58
473.016	12.98
473.218	13.19
473.421	12.68
473.623	12.33
473.825	12.44
474.027	12.96
474.229	12.98
474.431	13.5
474.633	12.81
474.835	13.12
475.037	13.25
475.239	13.05
475.441	12.97
475.643	13.44
475.845	13.32
476.047	13.07
476.249	13.32
476.451	13.47
476.653	13.52
476.855	13.92
477.057	13.66
477.258	13.4
477.46	13.54
477.662	13.58
477.864	13.57
478.066	13.22
478.268	13.02
478.469	12.87
478.671	12.15
478.873	12.31
479.075	12.15
479.276	12.32
479.478	12.21
479.68	11.5
479.882	11.61
480.083	11.44
480.285	11.6
480.487	11.9
480.688	11.6
480.89	11.89
481.091	11.59
481.293	11.35
481.495	10.86
481.696	10.72
481.898	10.79
482.099	10.38
482.301	10.29
482.502	10.3
482.704	10.1
482.905	9.95
483.107	9.83
483.308	9.72
483.51	9.49
483.711	9.63
483.913	9.61
484.114	9.65
484.315	9.64
484.517	9.55
484.718	9.52
484.92	9.47
485.121	9.57
485.322	9.63
485.524	9.91
485.725	10.31
485.926	10.2
486.127	10.41
486.329	10.45
486.53	10.52
486.731	10.57
486.932	10.63
487.134	10.53
487.335	10.74
487.536	10.76
487.737	10.52
487.938	10.55
488.139	10.78
488.341	10.72
488.542	10.7
488.743	11.04
488.944	11.18
489.145	11.15
489.346	11.45
489.547	11.27
489.748	11.39
489.949	11.64
490.15	11.44
490.351	11.09
490.552	11.08
490.753	11.3
490.954	11.09
491.155	11.13
491.356	11.04
491.557	10.97
491.758	10.9
491.959	10.75
492.159	10.58
492.36	10.81
492.561	11.04
492.762	11.35
492.963	11.18
493.164	11.31
493.364	11.21
493.565	11.43
493.766	11.67
493.967	11.92
494.167	12.16
494.368	12.31
494.569	12.12
494.769	12.84
494.97	12.75
495.171	12.94
495.371	12.91
495.572	12.98
495.773	12.71
495.973	12.42
496.174	12.57
496.375	12.55
496.575	12.75
496.776	12.75
496.976	12.4
497.177	12.22
497.377	11.74
497.578	11.73
497.778	11.83
497.979	12.38
498.179	12.53
498.38	12.49
498.58	12.44
498.78	12.29
498.981	12.49
499.181	12.72
499.382	12.98
499.582	13.82
499.782	14.06
499.983	14.3
500.183	13.88
500.383	14.03
500.584	14.37
500.784	14.28
500.984	14.34
501.184	14.06
501.385	14.11
501.585	14.2
501.785	14.08
501.985	14.44
502.185	14.26
502.386	14.43
502.586	14.04
502.786	14.11
502.986	13.82
503.186	13.48
503.386	14.08
503.586	13.86
503.786	13.76
503.987	13.88
504.187	13.42
504.387	13.99
504.587	14.62
504.787	14.97
504.987	14.78
505.187	15.63
505.387	16.37
505.587	16.52
505.786	16.32
505.986	16.49
506.186	16.22
506.386	16.5
506.586	16.43
506.786	15.83
506.986	16.12
507.186	16.13
507.386	15.74
507.585	14.95
507.785	14.41
507.985	14.88
508.185	14.97
508.384	15.57
508.584	15.15
508.784	15.15
508.984	15.53
509.183	15.19
509.383	15.09
509.583	15.47
509.782	15.83
509.982	16.03
510.182	15.84
510.381	15.42
510.581	14.78
510.781	15.13
510.98	15.16
511.18	15.09
511.379	15.01
511.579	15.05
511.778	15.08
511.978	15.36
512.177	15.41
512.377	15.17
512.576	15.86
512.776	16.22
512.975	16.13
513.175	16.16
513.374	16.15
513.573	16.95
513.773	16.81
513.972	16.81
514.172	17.16
514.371	17.39
514.57	18.31
514.77	18.76
514.969	18.61
515.168	19.23
515.367	19.24
515.567	19.35
515.766	19.25
515.965	19.75
516.164	20.19
516.364	19.64
516.563	19.93
516.762	19.79
516.961	19.36
517.16	19.26
517.359	18.78
517.559	18.78
517.758	18.62
517.957	18.43
518.156	18.56
518.355	18.52
518.554	19.3
518.753	19.29
518.952	19.26
519.151	19.24
519.35	19.88
519.549	20.58
519.748	20.82
519.947	21.36
520.146	21.62
520.345	21.75
520.544	21.78
520.743	21.57
520.942	21.55
521.141	21.53
521.339	21.75
521.538	21.56
521.737	21.36
521.936	21.32
522.135	21.29
522.333	21.12
522.532	21.11
522.731	20.59
522.93	20.24
523.129	20.54
523.327	20.82
523.526	20.95
523.725	21.52
523.923	21.49
524.122	21.62
524.321	21.72
524.519	22.32
524.718	22.29
524.917	22.71
525.115	22.94
525.314	22.77
525.512	22.7
525.711	22.61
525.909	22.24
526.108	22.36
526.306	22.26
526.505	22.21
526.703	22.1
526.902	22.09
527.1	22.04
527.299	22.2
527.497	22.28
527.696	22.23
527.894	22.28
528.092	22.47
528.291	22.6
528.489	22.79
528.688	22.94
528.886	23.07
529.084	23.37
529.283	23.51
529.481	23.6
529.679	23.94
529.877	24.28
530.076	24.5
530.274	24.51
530.472	24.62
530.67	24.8
530.869	24.65
531.067	24.66
531.265	24.78
531.463	25.28
531.661	25.2
531.859	24.97
532.057	24.91
532.255	25.1
532.454	25.36
532.652	25.47
532.85	25.72
533.048	25.99
533.246	26.09
533.444	26.2
533.642	25.89
533.84	26.28
534.038	26.6
534.236	26.92
534.434	27.39
534.632	27.43
534.83	27.58
535.027	27.39
535.225	27.53
535.423	27.78
535.621	27.74
535.819	27.6
536.017	27.66
536.215	27.75
536.412	27.93
536.61	27.96
536.808	28.6
537.006	28.88
537.203	29.37
537.401	29.65
537.599	29.7
537.797	29.98
537.994	30.83
538.192	30.65
538.39	30.58
538.587	30.36
538.785	30.13
538.983	29.83
539.18	29.75
539.378	29.25
539.575	29.21
539.773	29.35
539.97	29.27
540.168	29.35
540.366	29.48
540.563	29.54
540.761	29.58
540.958	29.55
541.155	29.35
541.353	29.48
541.55	29.64
541.748	29.68
541.945	29.65
542.143	29.63
542.34	29.86
542.537	29.98
542.735	30.06
542.932	30.35
543.129	30.59
543.327	31.02
543.524	30.72
543.721	30.94
543.919	31.26
544.116	31.53
544.313	31.97
544.51	31.68
544.708	31.94
544.905	32.24
545.102	32.34
545.299	32.39
545.496	32.57
545.693	32.93
545.891	32.99
546.088	32.98
546.285	32.87
546.482	33.17
546.679	33.14
546.876	33.3
547.073	33.6
547.27	33.79
547.467	33.93
547.664	33.97
547.861	34.34
548.058	34.69
548.255	34.83
548.452	35.24
548.649	35.23
548.846	35.9
549.043	35.97
549.24	36.12
549.437	35.65
549.633	35.6
549.83	36.36
550.027	36.29
550.224	36.15
550.421	35.86
550.618	36.27
550.814	36.33
551.011	35.99
551.208	36.19
551.405	35.82
551.601	35.97
551.798	36.14
551.995	35.09
552.191	35.18
552.388	35.54
552.585	36
552.781	35.74
552.978	35.9
553.175	36.05
553.371	36.03
553.568	36.17
553.764	36.61
553.961	36.88
554.157	37.39
554.354	37.28
554.55	37.66
554.747	37.88
554.943	38.74
555.14	38.79
555.336	39.2
555.533	39.15
555.729	39.73
555.926	39.99
556.122	39.96
556.318	40.09
556.515	40.97
556.711	40.58
556.907	40.55
557.104	40.02
557.3	39.93
557.496	40.08
557.693	40.6
557.889	40.46
558.085	40.78
558.281	41.3
558.478	41.73
558.674	40.99
558.87	40.92
559.066	41.13
559.262	41.82
559.459	42.41
559.655	42.91
559.851	42.37
560.047	42.24
560.243	42.08
560.439	42.1
560.635	42.46
560.831	42.63
561.027	42.99
561.223	43.24
561.419	42.82
561.615	42.85
561.811	42.28
562.007	42.48
562.203	42.79
562.399	42.99
562.595	43.34
562.791	42.83
562.987	42.83
563.183	42.64
563.379	42.55
563.575	42.2
563.771	41.98
563.966	41.6
564.162	41.26
564.358	41.02
564.554	40.98
564.75	40.36
564.945	40.56
565.141	40.62
565.337	40.4
565.533	40.21
565.728	40.52
565.924	40.53
566.12	40.94
566.315	41.28
566.511	41.37
566.707	41.11
566.902	41.12
567.098	41.18
567.293	41.58
567.489	41.9
567.684	42.34
567.88	42.21
568.076	42.12
568.271	42.03
568.467	42.5
568.662	42.28
568.858	42.21
569.053	42.18
569.248	41.6
569.444	41.52
569.639	41.29
569.835	41.16
570.03	41.06
570.225	41.17
570.421	41.16
570.616	40.77
570.812	41.45
571.007	41.61
571.202	40.93
571.397	41.66
571.593	41.78
571.788	42.09
571.983	41.9
572.178	42.58
572.374	42.56
572.569	42.87
572.764	43.44
572.959	43.28
573.154	44.03
573.35	45.45
573.545	45.28
573.74	44.99
573.935	45.16
574.13	45.78
574.325	45.38
574.52	45.39
574.715	45.48
574.91	45.46
575.105	45.3
575.3	45.05
575.495	45.02
575.69	45.17
575.885	45.61
576.08	45.56
576.275	45.72
576.47	45.92
576.665	45.98
576.86	46.21
577.055	45.66
577.25	46.28
577.444	46.53
577.639	47.24
577.834	47.31
578.029	47.67
578.224	48.14
578.418	48.17
578.613	48.29
578.808	49
579.003	48.64
579.197	49.51
579.392	49.73
579.587	49.9
579.781	49.26
579.976	49.65
580.171	49.79
580.365	50.04
580.56	50.17
580.755	51.14
580.949	50.8
581.144	51.27
581.338	51.54
581.533	51.38
581.727	51.48
581.922	51.28
582.116	51.53
582.311	50.93
582.505	51.21
582.7	51.19
582.894	50.46
583.089	51.04
583.283	51.34
583.478	51.39
583.672	51.75
583.866	51.31
584.061	51.58
584.255	51.77
584.449	52.85
584.644	52.53
584.838	52.9
585.032	52.9
585.226	52.47
585.421	52.49
585.615	52.61
585.809	52.73
586.003	52.49
586.198	52.3
586.392	51.77
586.586	51.61
586.78	51.7
586.974	51.37
587.168	51.6
587.363	51.14
587.557	50.81
587.751	50.18
587.945	49.55
588.139	50.2
588.333	50.54
588.527	50.66
588.721	50.08
588.915	49.64
589.109	49.89
589.303	49.71
589.497	50.61
589.691	51.37
589.885	51.89
590.079	51.94
590.273	51.49
590.466	51.97
590.66	52.25
590.854	52.97
591.048	54.17
591.242	53.74
591.436	54.54
591.629	53.86
591.823	53.45
592.017	53.23
592.211	53.33
592.404	53.91
592.598	52.91
592.792	52.74
592.986	52.28
593.179	51.02
593.373	50.36
593.567	50.18
593.76	50.19
593.954	49.77
594.147	50.28
594.341	50.57
594.535	49.71
594.728	49.31
594.922	49.07
595.115	48.71
595.309	48.94
595.502	49.42
595.696	48.82
595.889	48.69
596.083	48.9
596.276	48.85
596.47	48.82
596.663	49.15
596.856	49.27
597.05	49.15
597.243	49.59
597.437	49.51
597.63	49.44
597.823	50.19
598.017	50.88
598.21	52.05
598.403	51.67
598.596	51.87
598.79	52.08
598.983	52.67
599.176	53.72
599.369	54.27
599.563	54.86
599.756	55.39
599.949	55.2
600.142	55.55
600.335	54.62
600.528	55.02
600.722	55.29
600.915	55.7
601.108	55.5
601.301	54.89
601.494	54.67
601.687	54.05
601.88	53.8
602.073	53.41
602.266	53.06
602.459	52.53
602.652	51.56
602.845	51.12
603.038	50.58
603.231	50.63
603.424	50.14
603.617	49.67
603.809	49.74
604.002	49.31
604.195	48.71
604.388	48.84
604.581	49.28
604.774	50.43
604.966	50.55
605.159	51.48
605.352	52.25
605.545	52.49
605.737	52.83
605.93	52.91
606.123	54.06
606.316	55.09
606.508	54.66
606.701	54.04
606.894	52.77
607.086	52.86
607.279	52.88
607.471	52.8
607.664	53.02
607.857	52.63
608.049	52.38
608.242	51.84
608.434	51.7
608.627	52.14
608.819	52.56
609.012	52.55
609.204	52.63
609.397	52.32
609.589	51.92
609.782	52.27
609.974	52.3
610.166	52.98
610.359	53.6
610.551	53.97
610.743	54.04
610.936	54.79
611.128	55.6
611.32	55.52
611.513	55.06
611.705	55.2
611.897	55.08
612.09	55.88
612.282	56.84
612.474	57.26
612.666	57.63
612.858	57.82
613.051	57.41
613.243	59.22
613.435	59.7
613.627	59.48
613.819	60.41
614.011	60.94
614.203	60.81
614.395	59.6
614.588	58.85
614.78	58.47
614.972	59.4
615.164	59.24
615.356	57.22
615.548	56.91
615.74	58.18
615.932	57.22
616.124	56.64
616.315	57.65
616.507	57.81
616.699	58.16
616.891	57.27
617.083	56.52
617.275	57.17
617.467	57.91
617.659	58.21
617.85	58.06
618.042	58.7
618.234	59.57
618.426	59.18
618.618	60.5
618.809	60.37
619.001	61.47
619.193	61.99
619.384	61.9
619.576	62.01
619.768	61.99
619.959	62.22
620.151	62.2
620.343	61.84
620.534	62.01
620.726	60.94
620.917	61.52
621.109	61.05
621.301	60.72
621.492	60.79
621.684	59.94
621.875	59.72
622.067	59.19
622.258	58.78
622.45	59.66
622.641	60.64
622.832	60.6
623.024	60.66
623.215	61.66
623.407	61
623.598	61.04
623.789	61.42
623.981	61.44
624.172	61.87
624.363	61.67
624.555	60.72
624.746	59.12
624.937	59.33
625.129	58.65
625.32	58.35
625.511	58.93
625.702	57.59
625.893	56.89
626.085	57.05
626.276	57
626.467	56.7
626.658	56.01
626.849	55.93
627.04	55.27
627.231	55.4
627.422	55.57
627.614	55.38
627.805	56.85
627.996	57.34
628.187	57.93
628.378	57.8
628.569	57.83
628.76	58.06
628.951	58.21
629.142	58.76
629.332	58.36
629.523	58.5
629.714	58.32
629.905	58.63
630.096	58.62
630.287	58.7
630.478	59.1
630.669	60.61
630.859	61.58
631.05	61.68
631.241	61.41
631.432	62.37
631.623	62.58
631.813	63
632.004	61.62
632.195	62.47
632.385	62.02
632.576	62.28
632.767	62.13
632.957	61.31
633.148	61.61
633.339	62.07
633.529	61.54
633.72	61.03
633.91	60.48
634.101	61.45
634.292	61.69
634.482	61.42
634.673	61.43
634.863	60.79
635.054	62.46
635.244	62.84
635.435	62.92
635.625	62.83
635.815	63.61
636.006	65.03
636.196	64.6
636.387	63.87
636.577	64.23
636.767	64.71
636.958	64.86
637.148	63.84
637.338	63.59
637.529	63.44
637.719	63.91
637.909	63.33
638.099	62.21
638.29	62.64
638.48	63.79
638.67	63.99
638.86	63.28
639.05	63.27
639.241	63.33
639.431	63.22
639.621	64.18
639.811	64.12
640.001	64.66
640.191	65.2
640.381	65.58
640.571	64.88
640.761	63.71
640.951	63.93
641.141	64.75
641.331	64.17
641.521	64.14
641.711	63.29
641.901	64.61
642.091	63.98
642.281	63.61
642.471	63
642.661	63.89
642.851	64.71
643.041	64.81
643.231	65.08
643.42	65.99
643.61	66.74
643.8	67.75
643.99	65.46
644.18	65.79
644.369	66.43
644.559	66.34
644.749	65.9
644.939	67.59
645.128	67.34
645.318	67.07
645.508	66.49
645.697	66.54
645.887	66.71
646.076	67.86
646.266	68.02
646.456	67.63
646.645	67.43
646.835	66.96
647.024	65.95
647.214	64.96
647.403	64.88
647.593	66.21
647.782	66.34
647.972	66.14
648.161	65.13
648.351	64.65
648.54	64.47
648.73	65.03
648.919	65.44
649.108	65.33
649.298	65.39
649.487	65.22
649.677	64.48
649.866	63.47
650.055	63.38
650.244	64.75
650.434	65.82
650.623	65.82
650.812	66.21
651.002	65.86
651.191	66.47
651.38	67.94
651.569	68.99
651.758	68.5
651.947	69.92
652.137	70.82
652.326	70.07
652.515	69.75
652.704	69.84
652.893	69.87
653.082	70.6
653.271	69.57
653.46	67.35
653.649	65.6
653.838	66.6
654.027	65.55
654.216	63.39
654.405	64.2
654.594	63.97
654.783	64.57
654.972	63.49
655.161	63.2
655.35	64.14
655.539	65.01
655.728	66.03
655.916	64.8
656.105	65.65
656.294	67.31
656.483	66.61
656.672	66.02
656.86	65.01
657.049	65.02
657.238	64.48
657.427	63.9
657.615	64.13
657.804	63.06
657.993	63.72
658.181	62.8
658.37	62.49
658.559	62.26
658.747	62.27
658.936	62.64
659.125	63.82
659.313	64.34
659.502	64.18
659.69	64.59
659.879	65.88
660.067	66.54
660.256	67.29
660.444	67.17
660.633	68.89
660.821	69.43
661.01	70.53
661.198	69.67
661.387	69.06
661.575	70.13
661.763	71
661.952	70.96
662.14	71.13
662.328	71.21
662.517	70.84
662.705	70.13
662.893	70.1
663.082	69.98
663.27	70.98
663.458	72.19
663.646	71.84
663.834	72.07
664.023	71.7
664.211	72.33
664.399	72.4
664.587	72.81
664.775	71.91
664.963	72.45
665.152	72.57
665.34	72.31
665.528	72.15
665.716	71.63
665.904	70.11
666.092	70.44
666.28	69.43
666.468	69.65
666.656	69.36
666.844	69.78
667.032	69.8
667.22	68.46
667.408	68.74
667.596	67.86
667.784	68.56
667.971	69.03
668.159	69.33
668.347	69.68
668.535	68.62
668.723	69.2
668.911	69.73
669.098	69.91
669.286	70.31
669.474	69.91
669.662	70.85
669.849	70.74
670.037	70.49
670.225	69.94
670.413	69.41
670.6	70.77
670.788	71.6
670.976	71.85
671.163	72.16
671.351	73.38
671.538	74.31
671.726	74.54
671.913	75.11
672.101	74.85
672.289	75.38
672.476	75.74
672.664	75.63
672.851	75.08
673.039	74.11
673.226	73.58
673.413	72.11
673.601	71.75
673.788	70.88
673.976	70.59
674.163	71.07
674.35	70.25
674.538	70.42
674.725	70.6
674.912	69.87
675.1	71.68
675.287	71.62
675.474	71.84
675.662	70.98
675.849	72.08
676.036	72.21
676.223	73.09
676.411	74.02
676.598	74.78
676.785	73.46
676.972	74.22
677.159	73.45
677.346	73.17
677.533	73.19
677.721	73.94
677.908	73.4
678.095	73.12
678.282	73.25
678.469	73.65
678.656	73.12
678.843	73.84
679.03	73.15
679.217	71.63
679.404	70.58
679.591	70.41
679.778	70.18
679.964	69.98
680.151	69.45
680.338	68.08
680.525	67.54
680.712	67.28
680.899	68
681.086	67.59
681.272	68.77
681.459	71.18
681.646	71.02
681.833	71.42
682.02	71.68
682.206	71.56
682.393	71.8
682.58	70.17
682.766	70.3
682.953	69.27
683.14	70.02
683.326	71.2
683.513	69.93
683.7	70.14
683.886	68.97
684.073	68.72
684.259	69.41
684.446	69.72
684.632	72.01
684.819	71.65
685.005	71.54
685.192	71.93
685.378	70.34
685.565	69.74
685.751	69.98
685.938	69.84
686.124	69.84
686.31	69.75
686.497	69.64
686.683	67.89
686.87	66.8
687.056	67.1
687.242	66.64
687.429	65.79
687.615	65.21
687.801	65.25
687.987	64.04
688.174	63.94
688.36	63.87
688.546	64.65
688.732	66.04
688.918	67.25
689.105	67.2
689.291	66.75
689.477	67.41
689.663	70.09
689.849	70.42
690.035	72.95
690.221	74.08
690.407	73.97
690.593	73.85
690.779	74.04
690.965	73.92
691.151	74.56
691.337	75.22
691.523	74.57
691.709	72.96
691.895	73.01
692.081	72.33
692.267	72.48
692.453	74.05
692.639	72.34
692.825	71.74
693.011	71.73
693.196	70.48
693.382	71.04
693.568	72.63
693.754	71.08
693.94	71.01
694.125	71.77
694.311	68.31
694.497	66.31
694.682	67.26
694.868	68.05
695.054	68.17
695.239	68.34
695.425	68.74
695.611	67.18
695.796	67.84
695.982	67.1
696.168	66.38
696.353	67.89
696.539	66.99
696.724	66.78
696.91	66.06
697.095	64.87
697.281	64.29
697.466	63.5
697.652	63.91
697.837	64.6
698.023	64.71
698.208	64.76
698.393	65.06
698.579	65.72
698.764	66.57
698.949	67.2
699.135	68.5
699.32	68.74
699.505	68.59
699.691	68.89
699.876	69.05
700.061	69.7
700.246	70.44
700.432	70.89
700.617	71.76
700.802	69.4
700.987	67.94
701.172	70.39
701.358	70.38
701.543	71.84
701.728	72.95
701.913	73.17
702.098	73.85
702.283	73.25
702.468	74.1
702.653	76.5
702.838	80.07
703.023	81.11
703.208	78.65
703.393	80.87
703.578	82.87
703.763	83.26
703.948	82.13
704.133	81.8
704.318	83.67
704.503	82.3
704.688	80.65
704.873	79.84
705.057	79.75
705.242	79.92
705.427	80.18
705.612	77.56
705.797	78.17
705.981	79.66
706.166	79.16
706.351	78.78
706.536	80.24
706.72	80.09
706.905	81.34
707.09	81.12
707.274	82.44
707.459	82.37
707.644	83.37
707.828	81.62
708.013	79.07
708.197	79.94
708.382	80.68
708.567	81.84
708.751	81.81
708.936	82.39
709.12	83.86
709.305	81.8
709.489	80.48
709.673	80
709.858	80.63
710.042	82.03
710.227	81.29
710.411	79.96
710.596	78.76
710.78	79.3
710.964	77.56
711.149	77.05
711.333	77.51
711.517	79.4
711.702	80.25
711.886	80.84
712.07	80.33
712.254	79.68
712.438	79.43
712.623	78.96
712.807	78.32
712.991	77.93
713.175	76.56
713.359	77.26
713.544	76.02
713.728	73.96
713.912	71.8
714.096	72.94
714.28	74.13
714.464	73.89
714.648	73.7
714.832	72.44
715.016	71.03
715.2	71.38
715.384	69.91
715.568	68.27
715.752	67.9
715.936	69.25
716.12	68.45
716.304	66.51
716.488	65.94
716.671	63.39
716.855	63.36
717.039	62.37
717.223	61.05
717.407	61.42
717.59	63.88
717.774	64.23
717.958	64.34
718.142	64.21
718.325	66.88
718.509	67.44
718.693	70.6
718.877	73.01
719.06	77.65
719.244	78.05
719.428	77.58
719.611	77.36
719.795	80.79
719.978	79.99
720.162	82.16
720.345	81.74
720.529	79.94
720.713	79.99
720.896	76.73
721.08	76.64
721.263	79.63
721.446	80.19
721.63	80.72
721.813	77.81
721.997	78.67
722.18	78.08
722.364	78.08
722.547	81.27
722.73	79.43
722.914	81.04
723.097	78.41
723.28	76.75
723.464	74.28
723.647	73.81
723.83	72.83
724.013	72.96
724.197	70.83
724.38	72.21
724.563	71.15
724.746	73.82
724.929	73.05
725.112	73.01
725.296	74.46
725.479	76.23
725.662	72.39
725.845	72.39
726.028	69.45
726.211	69.14
726.394	66.5
726.577	66.99
726.76	64.81
726.943	66.41
727.126	67.66
727.309	65.9
727.492	65.82
727.675	66.57
727.858	67.86
728.041	71.22
728.224	72.43
728.407	73.06
728.589	71.6
728.772	73.18
728.955	75.06
729.138	74.03
729.321	75.34
729.503	74.54
729.686	76.4
729.869	79.06
730.052	78.93
730.234	79.9
730.417	81.78
730.6	82.66
730.782	84.04
730.965	82.05
731.148	83.19
731.33	83.06
731.513	85.39
731.695	85.84
731.878	83.81
732.061	83.33
732.243	83.15
732.426	82.06
732.608	84.96
732.791	83.87
732.973	84.1
733.156	82.3
733.338	81.73
733.52	81.42
733.703	82.12
733.885	81.97
734.068	81.49
734.25	82.78
734.432	83.78
734.615	82.75
734.797	82.85
734.979	82.3
735.162	85.3
735.344	89.29
735.526	89.52
735.708	90.08
735.891	89.56
736.073	91.59
736.255	92.67
736.437	94.2
736.619	91.14
736.802	92.35
736.984	93.88
737.166	92.3
737.348	91.63
737.53	90.1
737.712	89.83
737.894	91.81
738.076	91.55
738.258	86.49
738.44	88.65
738.622	91.17
738.804	88.7
738.986	88.81
739.168	88.82
739.35	87.7
739.532	90.19
739.714	89.46
739.896	90.51
740.078	88.85
740.259	92.5
740.441	87.75
740.623	85.92
740.805	86.68
740.987	88.17
741.168	87.79
741.35	89.21
741.532	87.39
741.714	86.9
741.895	85.83
742.077	87.94
742.259	86.24
742.44	87.07
742.622	89.12
742.804	91.19
742.985	91.42
743.167	92.09
743.348	93.15
743.53	93.88
743.711	94.91
743.893	94.17
744.075	93.95
744.256	94.77
744.438	95.07
744.619	94.86
744.8	92.18
744.982	89.61
745.163	89.33
745.345	90.7
745.526	93.21
745.707	92.06
745.889	93
746.07	92.57
746.252	95.66
746.433	94.51
746.614	95.1
746.795	95.4
746.977	98.32
747.158	100.57
747.339	99.73
747.52	96.01
747.702	99.65
747.883	97.9
748.064	100.47
748.245	100.74
748.426	102.83
748.607	101.44
748.788	102.89
748.97	102.53
749.151	100.86
749.332	94.04
749.513	96.18
749.694	95.23
749.875	95.21
750.056	90.5
750.237	89.4
750.418	92.37
750.599	92.88
750.78	91.99
750.96	91.53
751.141	95.95
751.322	99.02
751.503	99.31
751.684	98.06
751.865	98.41
752.046	102.25
752.226	98.02
752.407	94.41
752.588	95.6
752.769	98.71
752.949	98.32
753.13	92.58
753.311	91.6
753.492	91.33
753.672	91.48
753.853	93.34
754.034	95.83
754.214	100.14
754.395	100.64
754.575	99.89
754.756	97.46
754.937	99.49
755.117	101.94
755.298	105.07
755.478	101.94
755.659	102.94
755.839	99.93
756.02	99.41
756.2	97.43
756.381	97.81
756.561	95.76
756.741	93.73
756.922	91.93
757.102	90.85
757.283	87.27
757.463	91.79
757.643	89.01
757.823	85.48
758.004	80.37
758.184	79.49
758.364	77.83
758.545	76.06
758.725	75.45
758.905	75.45
759.085	75.92
759.265	76.44
759.446	71.74
759.626	70.3
759.806	71.79
759.986	71.01
760.166	70.62
760.346	68.79
760.526	72.23
760.706	71.23
760.886	69.1
761.066	69.01
761.246	67.55
761.426	67.44
761.606	68.94
761.786	66.01
761.966	66.25
762.146	64.42
762.326	63.45
762.506	61.56
762.686	61.28
762.866	60.43
763.046	57.79
763.225	58.89
763.405	59.71
763.585	58.61
763.765	60.48
763.945	61.5
764.124	63.09
764.304	64.91
764.484	66.69
764.664	67.36
764.843	69.59
765.023	74.91
765.203	74.23
765.382	75.28
765.562	78.05
765.741	77.23
765.921	75.65
766.101	75.58
766.28	75.32
766.46	74.71
766.639	77.8
766.819	77.45
766.998	74.94
767.178	78.29
767.357	78.59
767.537	76.79
767.716	80.17
767.896	85.51
768.075	89.07
768.254	89.17
768.434	92.46
768.613	94.93
768.792	96.59
768.972	97.7
769.151	101.36
769.33	106.28
769.51	109.25
769.689	112.97
769.868	112.88
770.047	110.48
770.226	113.17
770.406	112.12
770.585	111.41
770.764	109.41
770.943	107.6
771.122	103.92
771.301	102.71
771.48	103.22
771.66	97.8
771.839	96.8
772.018	99.34
772.197	102.5
772.376	102.72
772.555	96.74
772.734	100.34
772.913	102.22
773.092	101.87
773.271	105.42
773.449	103.06
773.628	108.03
773.807	105.97
773.986	104.64
774.165	104.64
774.344	102.17
774.523	107.61
774.701	102.96
774.88	102.88
775.059	104.16
775.238	97.29
775.417	101.1
775.595	99.44
775.774	99.14
775.953	100.49
776.131	99.41
776.31	101.3
776.489	99.15
776.667	101.55
776.846	104.57
777.025	105.1
777.203	104.2
777.382	102.99
777.56	103.99
777.739	104.14
777.917	99.75
778.096	99.62
778.274	99.42
778.453	99.91
778.631	99.03
778.81	99.57
778.988	100.57
779.166	105.29
779.345	112.22
779.523	114.91
779.702	115.27
779.88	116.49
780.058	115.9
780.237	114.81
780.415	115.5
780.593	117.56
780.771	116.37
780.95	120.89
781.128	123.61
781.306	119.84
781.484	116.45
781.662	119.55
781.841	121.28
782.019	123.92
782.197	125.58
782.375	123.19
782.553	122.63
782.731	122.91
782.909	118.34
783.087	114.44
783.265	113.74
783.443	117.2
783.621	108.9
783.799	106.64
783.977	103.79
784.155	105.56
784.333	110.69
784.511	112.16
784.689	114.33
784.867	109.61
785.045	103.97
785.223	102.62
785.4	104.76
785.578	109.61
785.756	108.33
785.934	109.44
786.112	102.44
786.289	99.28
786.467	102.05
786.645	95.81
786.823	98.93
787	104.79
787.178	103.48
787.356	97.3
787.533	91.49
787.711	92.3
787.889	93.06
788.066	97.58
788.244	95.12
788.421	89.21
788.599	88.92
788.776	87.73
788.954	86.19
789.131	89.08
789.309	90.94
789.486	99.59
789.664	106.67
789.841	105.94
790.019	103.45
790.196	105.6
790.373	106.94
790.551	108.07
790.728	104.97
790.906	109.02
791.083	97.59
791.26	95.19
791.437	94.58
791.615	95.59
791.792	92.85
791.969	86.12
792.146	91.06
792.324	90.59
792.501	99.09
792.678	100.54
792.855	98.77
793.032	102.63
793.209	111.07
793.387	105.83
793.564	98.04
793.741	94.06
793.918	104.11
794.095	101.53
794.272	99.21
794.449	93.62
794.626	93
794.803	82.54
794.98	85.46
795.157	79.95
795.334	80.49
795.511	77.32
795.688	79.12
795.864	77.16
796.041	75.98
796.218	79.14
796.395	77.45
796.572	80.07
796.749	88.85
796.925	91.03
797.102	92.76
797.279	97.09
797.456	102.93
797.632	102.9
797.809	98.44
797.986	95.98
798.162	101.41
798.339	104.74
798.516	103.15
798.692	102.56
798.869	95.13
799.046	92.56
799.222	90.31
799.399	88.89
799.575	90.67
799.752	99.8
799.928	101.3
800.105	97.96
800.281	96.32
800.458	92.04
800.634	97.36
800.811	102.43
800.987	103.67
801.163	100.44
801.34	100.44
801.516	105.51
801.692	98.1
801.869	98.07
802.045	96.6
802.221	111.44
802.398	121.98
802.574	118.95
802.75	121.4
802.926	118.49
803.103	120.99
803.279	123.16
803.455	125.12
803.631	126.35
803.807	135.75
803.983	135.5
804.16	110.84
804.336	114.84
804.512	113.91
804.688	115.91
804.864	115.88
805.04	115.84
805.216	121.11
805.392	124.16
805.568	129.67
805.744	126.81
805.92	119.67
806.096	131.67
806.272	128.32
806.448	136.66
806.623	116.1
806.799	131.15
806.975	136.61
807.151	127.09
807.327	124.2
807.503	116.31
807.678	127.91
807.854	131.19
808.03	131.5
808.206	133.31
808.381	119.4
808.557	127.42
808.733	116.08
808.908	117.28
809.084	123.71
809.26	108.93
809.435	108.01
809.611	102.48
809.787	108.54
809.962	96.21
810.138	90.84
810.313	95.22
810.489	93.78
810.664	96.88
810.84	89.49
811.015	86.58
811.191	89.47
811.366	95.32
811.542	91.39
811.717	89.99
811.892	97.02
812.068	98.17
812.243	97.06
812.419	99.49
812.594	98.12
812.769	102.83
812.944	97.29
813.12	101.01
813.295	95.62
813.47	92.99
813.645	93.56
813.821	82.94
813.996	87.12
814.171	85.4
814.346	88.15
814.521	87.8
814.697	87.81
814.872	89.72
815.047	88.12
815.222	87.97
815.397	91.84
815.572	89.82
815.747	96.36
815.922	95.44
816.097	88.75
816.272	79.33
816.447	84.42
816.622	87.1
816.797	88.18
816.972	86.92
817.147	87.8
817.322	85.28
817.496	77.82
817.671	78.47
817.846	76.96
818.021	84.07
818.196	85.6
818.371	80.73
818.545	79.14
818.72	77.11
818.895	75.29
819.069	72.92
819.244	74.11
819.419	78.82
819.594	76.42
819.768	71.52
819.943	66.74
820.117	63.69
820.292	58.19
820.467	57.29
820.641	55.89
820.816	54.41
820.99	52.71
821.165	50.85
821.339	48.33
821.514	48.19
821.688	46.45
821.863	46.56
822.037	46.83
822.212	47.36
822.386	45.93
822.56	46.28
822.735	47.07
822.909	47.63
823.084	47.31
823.258	47.48
823.432	48.08
823.606	49.22
823.781	49.35
823.955	49.58
824.129	51.51
824.303	52.96
824.478	51.79
824.652	51.37
824.826	50.68
825	52.25
825.174	53.64
825.348	52.41
825.523	52.91
825.697	55.53
825.871	56.1
826.045	53.64
826.219	54.15
826.393	54.54
826.567	54.16
826.741	55.48
826.915	55.56
827.089	54.8
827.263	58.77
827.437	59.29
827.611	56.64
827.784	54.87
827.958	55.75
828.132	55.4
828.306	58.04
828.48	58.95
828.654	57.59
828.827	56.48
829.001	60.62
829.175	57.53
829.349	59.66
829.522	66.71
829.696	70.86
829.87	70.68
830.044	73.58
830.217	71.41
830.391	70.48
830.565	84.07
830.738	87.59
830.912	82.5
831.085	75.75
831.259	70.79
831.432	66.25
831.606	68.14
831.779	68.85
831.953	64.53
832.126	64.77
832.3	66.47
832.473	60.62
832.647	62
832.82	59.05
832.994	61.21
833.167	60.75
833.34	60.33
833.514	58.46
833.687	61
833.86	63.91
834.034	62.05
834.207	63.43
834.38	62.72
834.553	60.57
834.727	61.84
834.9	64.14
835.073	65.28
835.246	67.73
835.419	68.54
835.593	71.7
835.766	69.15
835.939	77.88
836.112	83.79
836.285	86.53
836.458	86.74
836.631	95.01
836.804	93.49
836.977	95.89
837.15	96.41
837.323	99.26
837.496	88.47
837.669	95.45
837.842	95.44
838.015	84.13
838.188	84.55
838.361	84.14
838.533	85.69
838.706	90.33
838.879	86.45
839.052	86.85
839.225	92.96
839.398	105.43
839.57	109.21
839.743	98.11
839.916	100.27
840.088	105.47
840.261	100.05
840.434	97.48
840.607	95.78
840.779	110.05
840.952	114.25
841.124	111.84
841.297	99.95
841.47	100.93
841.642	118.91
841.815	113.7
841.987	114.81
842.16	133.06
842.332	132.77
842.505	142.83
842.677	133.26
842.85	126.91
843.022	126.5
843.194	133.15
843.367	133.06
843.539	121.62
843.712	129.58
843.884	119.12
844.056	118.02
844.229	124.7
844.401	123.37
844.573	125.48
844.745	132.83
844.918	131.53
845.09	133.79
845.262	128.53
845.434	127.85
845.606	132.9
845.779	137.9
845.951	151.44
846.123	141.86
846.295	143.97
846.467	145.72
846.639	133.09
846.811	147.84
846.983	165.07
847.155	157.65
847.327	143.69
847.499	116.67
847.671	113.63
847.843	115.68
848.015	105.93
848.187	104.43
848.359	110.01
848.531	109.84
848.703	116.03
848.875	104.04
849.047	131.09
849.218	165.23
849.39	277.81
849.562	370.45
849.734	460.52
849.905	575.41
850.077	493.55
850.249	267.01
850.421	242.93
850.592	176.48
850.764	178.32
850.936	166.6
851.107	168.71
851.279	132.51
851.451	122.58
851.622	117.95
851.794	126.4
851.965	127.77
852.137	118.27
852.308	136.35
852.48	157.93
852.651	146.4
852.823	143.52
852.994	99.39
853.166	136.36
853.337	116.28
853.509	114.23
853.68	113.68
853.851	120.78
854.023	138.5
854.194	139.71
854.365	145.6
854.537	161.25
854.708	145.03
854.879	163.99
855.05	148.53
855.222	226.15
855.393	185.2
855.564	163.51
855.735	188.34
855.906	189.63
856.078	175.68
856.249	177.33
856.42	182.36
856.591	201
856.762	282.55
856.933	307.09
857.104	323.31
857.275	677.42
857.446	1236.9
857.617	469.55
857.788	540.34
857.959	573.17
858.13	688.06
858.301	305.57
858.472	304.92
858.643	179.68
858.814	175.89
858.985	160.02
859.155	144.97
859.326	122.83
859.497	121.28
859.668	106.31
859.839	96.29
860.009	101.06
860.18	109.51
860.351	91.68
860.522	103.32
860.692	102.89
860.863	95.1
861.034	103.28
861.204	126.81
861.375	126.93
861.546	153.79
861.716	220
861.887	215.68
862.057	231.04
862.228	266.16
862.398	241.78
862.569	154.15
862.739	131.84
862.91	120.08
863.08	90.83
863.251	104.23
863.421	89.51
863.592	77.5
863.762	71.55
863.932	75.99
864.103	86.31
864.273	115.36
864.443	130.23
864.614	166.91
864.784	191.03
864.954	232.03
865.125	193.43
865.295	252.67
865.465	284.25
865.635	288.58
865.805	332.04
865.976	239.52
866.146	173.12
866.316	177.13
866.486	155.28
866.656	138.76
866.826	142.02
866.996	147.99
867.166	135.12
867.336	131.92
867.506	168.74
867.676	153.65
867.846	153.86
868.016	134.98
868.186	137.11
868.356	138.08
868.526	143.36
868.696	139.15
868.866	182.57
869.036	158.91
869.206	157.92
869.376	132.63
869.545	137.05
869.715	125.2
869.885	139.08
870.055	130.97
870.224	141.82
870.394	141.04
870.564	155.99
870.734	137.7
870.903	132.9
871.073	123.86
871.243	122.55
871.412	132.95
871.582	170.09
871.751	170.26
871.921	162.5
872.091	145.89
872.26	146.63
872.43	155.36
872.599	163.98
872.769	206.76
872.938	226.78
873.108	199.53
873.277	193.2
873.446	154.03
873.616	166.11
873.785	165.97
873.955	189.73
874.124	196.47
874.293	144.11
874.463	152.01
874.632	147.84
874.801	147.65
874.971	169.15
875.14	138.41
875.309	157.33
875.478	124.91
875.647	154.49
875.817	256.49
875.986	275.98
876.155	286.75
876.324	157.79
876.493	174.47
876.662	174.79
876.831	118.65
877	123.54
877.17	111.48
877.339	101.3
877.508	76.61
877.677	67.6
877.846	71.48
878.015	85.15
878.184	97.69
878.352	82.44
878.521	55.62
878.69	84.1
878.859	84.86
879.028	84.63
879.197	111.23
879.366	114.7
879.534	109.99
879.703	94.35
879.872	76.66
880.041	78.98
880.21	78.1
880.378	86.56
880.547	82.61
880.716	79.47
880.884	76.39
881.053	69.99
881.222	63.06
881.39	61.94
881.559	62.74
881.727	62.43
881.896	61.87
882.065	57.63
882.233	53.64
882.402	52.53
882.57	51.01
882.739	52.44
882.907	51.1
883.076	53.27
883.244	53.76
883.412	53.95
883.581	56.42
883.749	53.88
883.918	54.76
884.086	52.85
884.254	50.38
884.423	54.36
884.591	57.2
884.759	57.51
884.927	56.05
885.096	51.93
885.264	52.35
885.432	43.27
885.6	48.2
885.769	57.08
885.937	73.19
886.105	80.45
886.273	91.43
886.441	101.17
886.609	105.38
886.777	93.23
886.945	106.92
887.113	117.38
887.281	160.95
887.449	156.76
887.617	156.71
887.785	139.79
887.953	117.66
888.121	122.03
888.289	90.25
888.457	67.72
888.625	110.53
888.793	152.81
888.961	196.96
889.129	154.34
889.296	247.08
889.464	188.04
889.632	183.58
889.8	312.58
889.967	253.93
890.135	276.74
