Data from JASIL_2910_Reflection_2.txt Node
Date: Sat Nov 07 20:26:56 EST 2015
User: Geneva
Spectrometer: USB4E03002
Autoset integration time: false
Trigger mode: 4
Integration Time (sec): 1.000000E-1
Scans to average: 10
Electric dark correction enabled: true
Nonlinearity correction enabled: false
Boxcar width: 5
Stray light correction enabled: false
XAxis mode: Wavelengths
Stop averaging: false
Number of Pixels in Spectrum: 3648
>>>>>Begin Spectral Data<<<<<
177.575	252.04
177.794	268.97
178.014	177.3
178.233	140.92
178.452	112.97
178.672	134.05
178.891	-2025.58
179.11	391.28
179.33	229.05
179.549	204.27
179.768	182.54
179.987	150.43
180.207	141.82
180.426	110.43
180.645	96.28
180.864	91.45
181.084	84.32
181.303	94.41
181.522	104.73
181.741	121.02
181.96	112.39
182.179	110.86
182.398	131.77
182.618	142.91
182.837	137.59
183.056	118.71
183.275	122.35
183.494	117.1
183.713	101.88
183.932	90.11
184.151	92
184.37	101.2
184.589	111.02
184.808	94.11
185.027	82.73
185.246	86.15
185.465	96.43
185.684	83.75
185.903	91.9
186.122	87.24
186.341	90.76
186.56	81.98
186.779	85.45
186.998	92.41
187.216	94.98
187.435	94.45
187.654	92.15
187.873	100.89
188.092	118.64
188.311	106.97
188.53	116.62
188.748	109.72
188.967	111.05
189.186	106.97
189.405	107.61
189.623	100.65
189.842	105.67
190.061	109.89
190.28	99.53
190.498	92.38
190.717	97.64
190.936	93.2
191.154	90.73
191.373	98.05
191.592	106.14
191.81	101.69
192.029	106.13
192.248	98.65
192.466	93.43
192.685	99.4
192.904	103.49
193.122	98.58
193.341	96.97
193.559	95.57
193.778	98.13
193.996	84.79
194.215	87.28
194.433	90.83
194.652	96.83
194.87	101.75
195.089	102.26
195.307	103.15
195.526	104.58
195.744	102.94
195.963	108.5
196.181	98.74
196.399	99.8
196.618	94.67
196.836	96.21
197.055	91.21
197.273	88.18
197.491	88.26
197.71	86.24
197.928	89.96
198.146	88.69
198.365	80.65
198.583	71.44
198.801	66.59
199.019	72.02
199.238	67.31
199.456	69.8
199.674	78.15
199.892	80.3
200.111	86.49
200.329	81.18
200.547	71.4
200.765	78.01
200.983	89.18
201.202	91.82
201.42	92.89
201.638	89.64
201.856	87.12
202.074	77.8
202.292	69.46
202.51	71.33
202.728	77.7
202.946	90.25
203.165	89.43
203.383	96.18
203.601	95.62
203.819	84.79
204.037	94.71
204.255	96.93
204.473	93.55
204.691	89.75
204.909	83.21
205.127	75.29
205.345	68.22
205.562	76.04
205.78	67.01
205.998	64.47
206.216	68.63
206.434	61.32
206.652	62.21
206.87	64.89
207.088	69.99
207.306	69.86
207.523	68.76
207.741	68.94
207.959	68.43
208.177	69.82
208.395	73.77
208.612	73.04
208.83	74.94
209.048	83.27
209.266	80.64
209.483	81.64
209.701	82.71
209.919	86.06
210.136	81.96
210.354	78
210.572	73.55
210.79	69.71
211.007	66.46
211.225	63.86
211.442	49.55
211.66	49.51
211.878	54.16
212.095	90.49
212.313	79.29
212.53	82.47
212.748	80.07
212.966	77.79
213.183	80.6
213.401	87.93
213.618	90.8
213.836	99.65
214.053	102.57
214.271	95.52
214.488	54.9
214.705	60.72
214.923	60.05
215.14	56.5
215.358	60.01
215.575	58.23
215.793	58.42
216.01	62.17
216.227	58.45
216.445	59.97
216.662	67.29
216.879	72.07
217.097	68.95
217.314	65.41
217.531	71.62
217.749	69.94
217.966	70.93
218.183	68.59
218.4	58.96
218.618	63.1
218.835	59.42
219.052	52.52
219.269	49.04
219.487	50.04
219.704	53.96
219.921	48.13
220.138	46.45
220.355	41
220.572	40.74
220.79	43.67
221.007	39.45
221.224	37.4
221.441	42.95
221.658	43.62
221.875	45.44
222.092	43.45
222.309	43.24
222.526	43.01
222.743	48.21
222.96	48.43
223.177	46.04
223.394	45.03
223.611	46.2
223.828	39.14
224.045	37.98
224.262	37.44
224.479	34.33
224.696	35.07
224.913	33.36
225.13	29.27
225.347	28.08
225.564	27.61
225.781	27.46
225.997	24.99
226.214	24.25
226.431	22.03
226.648	19.85
226.865	19.62
227.082	18.5
227.298	18.23
227.515	18.77
227.732	18.39
227.949	17.97
228.165	17.44
228.382	17.19
228.599	17.07
228.816	17.63
229.032	17.92
229.249	18.23
229.466	18.69
229.682	19.13
229.899	18.86
230.116	18.85
230.332	19.08
230.549	19.15
230.765	20.25
230.982	19.79
231.199	18.98
231.415	18.96
231.632	19.54
231.848	19.47
232.065	18.48
232.281	18.5
232.498	19.51
232.714	19.03
232.931	19.31
233.147	19.96
233.364	20.22
233.58	20.07
233.797	21.09
234.013	20.36
234.23	20.11
234.446	20.01
234.662	19.85
234.879	19.02
235.095	19.26
235.312	19.39
235.528	19.55
235.744	19.73
235.961	21.39
236.177	19.74
236.393	20.07
236.61	21
236.826	21.02
237.042	20.81
237.258	20.84
237.475	21.31
237.691	21.3
237.907	19.44
238.123	19.69
238.339	17.96
238.556	18.43
238.772	18.1
238.988	17
239.204	16.66
239.42	16.7
239.636	16.5
239.853	15.33
240.069	14.92
240.285	14.71
240.501	13.93
240.717	14.19
240.933	13.85
241.149	13.44
241.365	13.23
241.581	13.52
241.797	13.29
242.013	13.12
242.229	13.61
242.445	13.39
242.661	13.5
242.877	13.72
243.093	13.55
243.309	13.41
243.525	13.61
243.741	14.05
243.957	13.78
244.173	13.64
244.388	13.29
244.604	12.49
244.82	12.04
245.036	11.7
245.252	11.53
245.468	11.38
245.683	11.63
245.899	11.23
246.115	11.07
246.331	10.88
246.547	10.58
246.762	10.59
246.978	10.66
247.194	10.7
247.409	10.85
247.625	10.93
247.841	10.88
248.057	10.88
248.272	10.92
248.488	10.79
248.703	10.88
248.919	11.59
249.135	11.44
249.35	11.56
249.566	12.36
249.782	12.47
249.997	12.24
250.213	12.2
250.428	11.64
250.644	12.35
250.859	12.29
251.075	12.57
251.29	11.8
251.506	12.08
251.721	11.76
251.937	11.51
252.152	11.29
252.368	11.71
252.583	12.12
252.798	12.36
253.014	11.89
253.229	11.96
253.445	11.74
253.66	12.86
253.875	12.41
254.091	13
254.306	12.37
254.521	12.45
254.737	12.17
254.952	11.56
255.167	11.23
255.383	11.01
255.598	11.08
255.813	10.75
256.028	10.3
256.244	10.46
256.459	10.23
256.674	9.98
256.889	9.34
257.104	9.01
257.32	9.42
257.535	9.26
257.75	9.17
257.965	9.09
258.18	8.98
258.395	8.77
258.61	8.66
258.826	8.39
259.041	8.49
259.256	8.64
259.471	8.71
259.686	8.45
259.901	8.6
260.116	8.63
260.331	8.52
260.546	8.62
260.761	8.61
260.976	8.83
261.191	9.04
261.406	9.23
261.621	9.16
261.836	9.24
262.05	9.17
262.265	9.13
262.48	8.71
262.695	8.9
262.91	8.79
263.125	9.01
263.34	9.34
263.555	9.6
263.769	9.7
263.984	10
264.199	9.86
264.414	10.02
264.629	10.03
264.843	10.53
265.058	10.35
265.273	9.93
265.488	9.79
265.702	9.43
265.917	9.46
266.132	9.21
266.346	9.15
266.561	9.13
266.776	9.23
266.99	9.06
267.205	9.23
267.42	9.35
267.634	9.59
267.849	9.75
268.063	9.6
268.278	9.54
268.492	9.38
268.707	9.24
268.922	9.34
269.136	9.22
269.351	9.02
269.565	8.63
269.78	8.67
269.994	8.7
270.209	8.66
270.423	8.59
270.637	8.54
270.852	8.47
271.066	8.54
271.281	8.43
271.495	8.58
271.709	8.84
271.924	8.86
272.138	9.04
272.353	9.06
272.567	8.91
272.781	8.97
272.996	9.03
273.21	9.45
273.424	9.2
273.638	9.26
273.853	9.24
274.067	9.07
274.281	9.28
274.495	8.95
274.71	8.71
274.924	8.75
275.138	8.9
275.352	8.88
275.566	8.76
275.781	8.82
275.995	9.04
276.209	8.93
276.423	8.89
276.637	8.74
276.851	8.77
277.065	8.74
277.279	8.62
277.493	8.61
277.707	8.76
277.921	8.48
278.135	8.34
278.349	7.72
278.563	7.66
278.777	7.74
278.991	8
279.205	7.89
279.419	7.86
279.633	8.29
279.847	8.23
280.061	7.97
280.275	7.91
280.489	8.34
280.703	8.52
280.917	8.47
281.131	8.24
281.344	8.1
281.558	8.05
281.772	8.18
281.986	7.7
282.2	7.68
282.414	7.76
282.627	7.93
282.841	7.84
283.055	7.93
283.269	7.93
283.482	7.93
283.696	7.72
283.91	7.52
284.123	7.43
284.337	7.53
284.551	7.34
284.764	7.28
284.978	7.13
285.192	6.89
285.405	6.77
285.619	6.8
285.833	7
286.046	6.95
286.26	7.13
286.473	7.18
286.687	7.15
286.9	7.39
287.114	7.38
287.327	7.46
287.541	7.56
287.754	7.76
287.968	7.63
288.181	7.44
288.395	7.72
288.608	7.81
288.822	7.87
289.035	7.82
289.248	7.72
289.462	7.86
289.675	7.82
289.889	7.8
290.102	7.61
290.315	7.76
290.529	7.73
290.742	7.58
290.955	7.67
291.169	7.64
291.382	7.66
291.595	7.84
291.808	7.57
292.022	7.34
292.235	7.66
292.448	7.78
292.661	7.6
292.875	7.5
293.088	7.56
293.301	7.34
293.514	7.19
293.727	7.19
293.94	7.01
294.153	7.05
294.367	7.43
294.58	7
294.793	6.99
295.006	7.14
295.219	7.27
295.432	7.05
295.645	6.99
295.858	6.96
296.071	6.94
296.284	6.85
296.497	6.92
296.71	6.78
296.923	6.99
297.136	6.82
297.349	6.84
297.562	6.71
297.775	6.83
297.988	6.88
298.201	6.89
298.414	7.01
298.626	7.19
298.839	7.16
299.052	7.32
299.265	7.32
299.478	7.44
299.691	7.47
299.903	7.7
300.116	7.68
300.329	7.66
300.542	7.76
300.755	7.8
300.967	7.69
301.18	7.65
301.393	7.55
301.605	7.52
301.818	7.63
302.031	7.64
302.243	7.46
302.456	7.69
302.669	7.77
302.881	7.9
303.094	7.68
303.307	7.61
303.519	7.78
303.732	7.77
303.944	7.68
304.157	7.66
304.37	7.59
304.582	7.82
304.795	7.6
305.007	7.72
305.22	7.79
305.432	7.93
305.645	8.03
305.857	7.97
306.069	7.92
306.282	8.24
306.494	8.43
306.707	8.39
306.919	8.18
307.132	8.19
307.344	8.12
307.556	8.1
307.769	8.27
307.981	8.37
308.193	8.32
308.406	8.33
308.618	8.12
308.83	7.92
309.043	7.86
309.255	8
309.467	8
309.679	7.97
309.892	7.78
310.104	7.63
310.316	7.47
310.528	7.52
310.74	7.61
310.953	7.61
311.165	7.69
311.377	7.62
311.589	7.6
311.801	7.66
312.013	7.81
312.225	8.02
312.437	8.25
312.649	8.43
312.862	8.45
313.074	8.41
313.286	8.5
313.498	8.63
313.71	8.97
313.922	9.09
314.134	9.17
314.346	9.09
314.558	9.16
314.77	9.32
314.982	9.46
315.193	9.34
315.405	9.44
315.617	9.32
315.829	9.32
316.041	9.15
316.253	9.04
316.465	9.11
316.677	9.15
316.888	9.01
317.1	8.8
317.312	8.59
317.524	8.9
317.736	9.07
317.947	9.47
318.159	9.48
318.371	9.55
318.583	9.77
318.794	9.75
319.006	9.85
319.218	9.81
319.43	9.83
319.641	10.15
319.853	10.11
320.064	10.07
320.276	9.8
320.488	9.79
320.699	9.99
320.911	9.89
321.123	9.98
321.334	10.18
321.546	10.52
321.757	10.66
321.969	10.5
322.18	10.45
322.392	10.53
322.603	10.54
322.815	10.63
323.026	10.46
323.238	10.47
323.449	10.5
323.661	10.33
323.872	10.39
324.083	10.39
324.295	10.53
324.506	10.7
324.718	10.77
324.929	10.91
325.14	11.14
325.352	11.46
325.563	11.62
325.774	11.51
325.986	11.74
326.197	11.85
326.408	12.12
326.62	12.16
326.831	12.22
327.042	12.21
327.253	12.25
327.464	12.2
327.676	12.17
327.887	12.17
328.098	12.48
328.309	12.47
328.52	12.48
328.732	12.32
328.943	12.45
329.154	12.61
329.365	12.83
329.576	12.83
329.787	12.87
329.998	13.05
330.209	13.23
330.42	13.31
330.631	13.56
330.842	13.66
331.053	13.89
331.264	13.95
331.475	13.87
331.686	13.76
331.897	14.04
332.108	14.1
332.319	13.98
332.53	14.12
332.741	14.09
332.952	14.17
333.163	14.18
333.374	14.24
333.585	14.27
333.795	14.45
334.006	14.74
334.217	14.63
334.428	14.75
334.639	14.83
334.849	14.71
335.06	14.7
335.271	14.63
335.482	14.76
335.692	14.64
335.903	14.72
336.114	14.76
336.325	14.51
336.535	14.85
336.746	15.01
336.957	15.15
337.167	15.25
337.378	15.4
337.589	15.46
337.799	15.3
338.01	15.27
338.22	15.19
338.431	15.02
338.642	15.2
338.852	14.91
339.063	14.51
339.273	14.31
339.484	14.18
339.694	14.25
339.905	14.25
340.115	14.45
340.326	14.56
340.536	14.56
340.746	14.77
340.957	14.68
341.167	14.77
341.378	14.93
341.588	14.94
341.799	14.96
342.009	14.78
342.219	14.69
342.43	14.58
342.64	14.46
342.85	14.28
343.061	14.05
343.271	14.23
343.481	14.13
343.691	14.12
343.902	14.04
344.112	14.01
344.322	14.02
344.532	14.01
344.743	13.78
344.953	13.68
345.163	13.71
345.373	13.87
345.583	13.64
345.793	13.6
346.004	13.79
346.214	13.93
346.424	14
346.634	14.05
346.844	14.1
347.054	14.22
347.264	14.43
347.474	14.52
347.684	14.4
347.894	14.48
348.104	14.54
348.314	14.36
348.524	14.3
348.734	14.18
348.944	14.05
349.154	13.89
349.364	13.88
349.574	13.77
349.784	13.77
349.994	13.76
350.204	13.61
350.413	13.52
350.623	13.43
350.833	13.23
351.043	13.08
351.253	13
351.463	13
351.672	12.91
351.882	12.78
352.092	12.73
352.302	12.79
352.511	12.89
352.721	12.83
352.931	12.81
353.141	13.08
353.35	13.29
353.56	13.31
353.77	13.25
353.979	13.31
354.189	13.4
354.399	13.35
354.608	13.12
354.818	13.04
355.027	13.09
355.237	13.04
355.447	12.88
355.656	12.74
355.866	12.74
356.075	12.72
356.285	12.79
356.494	12.75
356.704	12.66
356.913	12.8
357.123	12.8
357.332	12.77
357.542	12.83
357.751	12.83
357.96	12.97
358.17	12.85
358.379	12.81
358.589	12.79
358.798	12.62
359.007	12.71
359.217	12.66
359.426	12.48
359.635	12.38
359.845	12.38
360.054	12.31
360.263	12.21
360.472	12.28
360.682	12.3
360.891	12.07
361.1	12.11
361.309	12.09
361.519	12.02
361.728	12.09
361.937	12.17
362.146	12.09
362.355	12.16
362.564	12.08
362.774	12.08
362.983	12.03
363.192	12.18
363.401	12.35
363.61	12.28
363.819	12.39
364.028	12.42
364.237	12.39
364.446	12.35
364.655	12.31
364.864	12.35
365.073	12.44
365.282	12.45
365.491	12.47
365.7	12.43
365.909	12.55
366.118	12.46
366.327	12.39
366.536	12.39
366.745	12.39
366.954	12.41
367.162	12.5
367.371	12.39
367.58	12.33
367.789	12.37
367.998	12.25
368.207	12.21
368.415	12.3
368.624	12.38
368.833	12.37
369.042	12.35
369.25	12.33
369.459	12.35
369.668	12.37
369.877	12.45
370.085	12.33
370.294	12.29
370.503	12.15
370.711	12.04
370.92	12.05
371.129	12.05
371.337	12.07
371.546	11.96
371.754	11.89
371.963	11.82
372.171	11.75
372.38	11.79
372.589	11.87
372.797	11.9
373.006	12
373.214	11.93
373.423	11.92
373.631	11.91
373.84	11.96
374.048	11.98
374.256	11.88
374.465	11.9
374.673	11.78
374.882	11.7
375.09	11.64
375.298	11.62
375.507	11.46
375.715	11.46
375.923	11.35
376.132	11.37
376.34	11.25
376.548	11.32
376.757	11.32
376.965	11.37
377.173	11.36
377.381	11.47
377.59	11.42
377.798	11.52
378.006	11.32
378.214	11.39
378.423	11.4
378.631	11.45
378.839	11.4
379.047	11.34
379.255	11.35
379.463	11.36
379.671	11.21
379.879	11.11
380.088	11.19
380.296	11.28
380.504	11.22
380.712	11.14
380.92	11.12
381.128	11.21
381.336	11.09
381.544	11
381.752	10.95
381.96	11.02
382.168	11.03
382.376	10.97
382.584	10.99
382.791	11.02
382.999	11.17
383.207	11.21
383.415	11.12
383.623	11.23
383.831	11.29
384.039	11.27
384.247	11.11
384.454	11.09
384.662	10.97
384.87	11
385.078	10.93
385.285	10.71
385.493	10.52
385.701	10.41
385.909	10.38
386.116	10.33
386.324	10.33
386.532	10.34
386.739	10.24
386.947	10.31
387.155	10.34
387.362	10.31
387.57	10.3
387.778	10.35
387.985	10.43
388.193	10.46
388.4	10.48
388.608	10.5
388.816	10.51
389.023	10.58
389.231	10.43
389.438	10.25
389.646	10.19
389.853	10.16
390.061	10.05
390.268	9.93
390.475	9.81
390.683	9.78
390.89	9.63
391.098	9.59
391.305	9.61
391.512	9.64
391.72	9.64
391.927	9.66
392.135	9.68
392.342	9.68
392.549	9.69
392.756	9.66
392.964	9.63
393.171	9.7
393.378	9.67
393.586	9.53
393.793	9.6
394	9.61
394.207	9.61
394.414	9.58
394.622	9.65
394.829	9.59
395.036	9.66
395.243	9.58
395.45	9.42
395.657	9.43
395.864	9.44
396.072	9.34
396.279	9.29
396.486	9.24
396.693	9.17
396.9	9.06
397.107	9.12
397.314	9.08
397.521	9.03
397.728	9.19
397.935	9.23
398.142	9.17
398.349	9.15
398.556	9.05
398.763	8.98
398.97	9.05
399.177	9.08
399.383	9.05
399.59	8.98
399.797	9.07
400.004	8.95
400.211	8.93
400.418	8.92
400.625	8.96
400.831	9.07
401.038	9.02
401.245	8.89
401.452	8.84
401.658	8.73
401.865	8.71
402.072	8.63
402.279	8.62
402.485	8.46
402.692	8.43
402.899	8.42
403.105	8.42
403.312	8.56
403.519	8.6
403.725	8.56
403.932	8.6
404.138	8.57
404.345	8.55
404.552	8.56
404.758	8.69
404.965	8.68
405.171	8.55
405.378	8.45
405.584	8.41
405.791	8.29
405.997	8.31
406.204	8.36
406.41	8.4
406.617	8.35
406.823	8.33
407.029	8.27
407.236	8.28
407.442	8.37
407.649	8.4
407.855	8.22
408.061	8.33
408.268	8.3
408.474	8.15
408.68	8.06
408.887	8.1
409.093	8.03
409.299	8.04
409.505	7.94
409.712	7.82
409.918	7.78
410.124	7.84
410.33	7.78
410.537	7.76
410.743	7.73
410.949	7.72
411.155	7.61
411.361	7.65
411.567	7.59
411.773	7.69
411.98	7.75
412.186	7.89
412.392	7.94
412.598	7.91
412.804	7.9
413.01	7.93
413.216	7.98
413.422	8.03
413.628	7.96
413.834	7.89
414.04	7.86
414.246	7.79
414.452	7.64
414.658	7.6
414.864	7.58
415.07	7.58
415.275	7.63
415.481	7.51
415.687	7.48
415.893	7.5
416.099	7.49
416.305	7.42
416.511	7.4
416.716	7.36
416.922	7.3
417.128	7.25
417.334	7.23
417.539	7.17
417.745	7.15
417.951	7.13
418.157	7.09
418.362	7.04
418.568	7.04
418.774	7.02
418.979	7.05
419.185	7.05
419.391	7.05
419.596	7.01
419.802	7.01
420.008	7
420.213	6.72
420.419	6.72
420.624	6.72
420.83	6.71
421.035	6.69
421.241	6.64
421.446	6.62
421.652	6.59
421.857	6.57
422.063	6.52
422.268	6.52
422.474	6.72
422.679	6.69
422.885	6.71
423.09	6.65
423.295	6.64
423.501	6.63
423.706	6.62
423.911	6.58
424.117	6.56
424.322	6.57
424.527	6.57
424.733	6.56
424.938	6.58
425.143	6.58
425.349	6.6
425.554	6.62
425.759	6.6
425.964	6.61
426.169	6.62
426.375	6.62
426.58	6.65
426.785	6.63
426.99	6.67
427.195	6.65
427.4	6.62
427.605	6.68
427.811	6.69
428.016	6.75
428.221	6.74
428.426	6.76
428.631	6.82
428.836	6.73
429.041	6.76
429.246	6.76
429.451	6.76
429.656	6.86
429.861	6.82
430.066	6.83
430.271	6.74
430.476	6.69
430.681	6.7
430.886	6.69
431.09	6.69
431.295	6.63
431.5	6.6
431.705	6.5
431.91	6.41
432.115	6.38
432.32	6.32
432.524	6.32
432.729	6.29
432.934	6.27
433.139	6.27
433.343	6.28
433.548	6.35
433.753	6.4
433.958	6.43
434.162	6.44
434.367	6.44
434.572	6.45
434.776	6.45
434.981	6.51
435.186	6.49
435.39	6.48
435.595	6.51
435.799	6.46
436.004	6.43
436.209	6.47
436.413	6.46
436.618	6.39
436.822	6.37
437.027	6.38
437.231	6.36
437.436	6.35
437.64	6.29
437.845	6.3
438.049	6.29
438.253	6.27
438.458	6.2
438.662	6.2
438.867	6.22
439.071	6.23
439.275	6.25
439.48	6.25
439.684	6.24
439.888	6.26
440.093	6.22
440.297	6.21
440.501	6.22
440.706	6.24
440.91	6.24
441.114	6.24
441.318	6.23
441.523	6.21
441.727	6.18
441.931	6.21
442.135	6.2
442.339	6.21
442.543	6.24
442.748	6.21
442.952	6.15
443.156	6.16
443.36	6.19
443.564	6.18
443.768	6.11
443.972	6.11
444.176	6.03
444.38	6.04
444.584	6.04
444.788	5.99
444.992	5.95
445.196	5.95
445.4	5.89
445.604	5.86
445.808	5.85
446.012	5.89
446.216	5.89
446.42	5.93
446.624	5.91
446.828	5.87
447.032	5.87
447.235	5.89
447.439	5.92
447.643	5.98
447.847	6.04
448.051	6.06
448.254	6.08
448.458	6.11
448.662	6.12
448.866	6.12
449.069	6.09
449.273	6.17
449.477	6.19
449.681	6.2
449.884	6.13
450.088	6.08
450.292	6.07
450.495	5.97
450.699	5.95
450.902	5.99
451.106	5.97
451.31	6.03
451.513	5.94
451.717	5.96
451.92	5.98
452.124	6.01
452.327	6
452.531	6.01
452.734	6.07
452.938	6.05
453.141	6.03
453.345	6.08
453.548	6.09
453.752	6.12
453.955	6.12
454.158	6.08
454.362	6.06
454.565	6.13
454.769	6.14
454.972	6.17
455.175	6.19
455.379	6.15
455.582	6.06
455.785	6.05
455.988	6.03
456.192	5.99
456.395	6.01
456.598	6.03
456.801	5.93
457.005	5.89
457.208	5.86
457.411	5.84
457.614	5.79
457.817	5.82
458.021	5.77
458.224	5.79
458.427	5.78
458.63	5.75
458.833	5.74
459.036	5.72
459.239	5.71
459.442	5.67
459.645	5.67
459.848	5.7
460.051	5.7
460.254	5.73
460.457	5.72
460.66	5.75
460.863	5.8
461.066	5.78
461.269	5.82
461.472	5.88
461.675	5.92
461.878	5.96
462.081	6
462.284	6.01
462.486	6.02
462.689	6.03
462.892	5.98
463.095	5.97
463.298	5.98
463.5	6
463.703	5.93
463.906	5.89
464.109	5.88
464.311	5.85
464.514	5.9
464.717	5.93
464.92	5.92
465.122	5.93
465.325	5.93
465.528	5.96
465.73	5.95
465.933	5.96
466.135	5.93
466.338	5.91
466.541	5.93
466.743	5.86
466.946	5.88
467.148	5.91
467.351	5.97
467.553	5.96
467.756	5.97
467.958	5.95
468.161	5.94
468.363	5.97
468.566	5.94
468.768	5.94
468.971	5.97
469.173	5.94
469.375	5.89
469.578	5.75
469.78	5.77
469.983	5.76
470.185	5.73
470.387	5.74
470.59	5.8
470.792	5.87
470.994	5.85
471.196	5.82
471.399	5.83
471.601	5.79
471.803	5.86
472.005	5.82
472.208	5.86
472.41	5.9
472.612	5.89
472.814	5.88
473.016	5.89
473.218	5.97
473.421	5.97
473.623	5.96
473.825	6.02
474.027	6.06
474.229	6.08
474.431	6.07
474.633	6.11
474.835	6.14
475.037	6.13
475.239	6.13
475.441	6.06
475.643	6.1
475.845	6.05
476.047	6.05
476.249	6.05
476.451	6.03
476.653	6
476.855	6
477.057	5.98
477.258	5.97
477.46	5.93
477.662	5.93
477.864	5.92
478.066	5.96
478.268	5.95
478.469	5.94
478.671	5.96
478.873	5.96
479.075	5.93
479.276	5.92
479.478	5.94
479.68	5.93
479.882	5.94
480.083	5.92
480.285	5.92
480.487	5.9
480.688	5.89
480.89	5.88
481.091	5.85
481.293	5.85
481.495	5.84
481.696	5.8
481.898	5.79
482.099	5.74
482.301	5.73
482.502	5.7
482.704	5.67
482.905	5.66
483.107	5.63
483.308	5.62
483.51	5.61
483.711	5.63
483.913	5.64
484.114	5.64
484.315	5.65
484.517	5.66
484.718	5.68
484.92	5.71
485.121	5.72
485.322	5.72
485.524	5.72
485.725	5.71
485.926	5.7
486.127	5.68
486.329	5.67
486.53	5.68
486.731	5.65
486.932	5.65
487.134	5.63
487.335	5.64
487.536	5.66
487.737	5.66
487.938	5.67
488.139	5.67
488.341	5.67
488.542	5.69
488.743	5.69
488.944	5.71
489.145	5.7
489.346	5.72
489.547	5.72
489.748	5.71
489.949	5.71
490.15	5.72
490.351	5.7
490.552	5.7
490.753	5.68
490.954	5.66
491.155	5.66
491.356	5.67
491.557	5.67
491.758	5.68
491.959	5.7
492.159	5.71
492.36	5.72
492.561	5.74
492.762	5.78
492.963	5.81
493.164	5.86
493.364	5.88
493.565	5.95
493.766	5.99
493.967	5.99
494.167	6.03
494.368	6.04
494.569	6.03
494.769	6
494.97	6
495.171	6.04
495.371	6.01
495.572	6
495.773	5.95
495.973	5.98
496.174	6.02
496.375	6.03
496.575	6.03
496.776	6.05
496.976	6.1
497.177	6.09
497.377	6.1
497.578	6.1
497.778	6.12
497.979	6.14
498.179	6.14
498.38	6.14
498.58	6.15
498.78	6.17
498.981	6.21
499.181	6.19
499.382	6.22
499.582	6.2
499.782	6.25
499.983	6.26
500.183	6.31
500.383	6.31
500.584	6.32
500.784	6.29
500.984	6.31
501.184	6.3
501.385	6.37
501.585	6.37
501.785	6.38
501.985	6.43
502.185	6.47
502.386	6.45
502.586	6.44
502.786	6.48
502.986	6.53
503.186	6.56
503.386	6.61
503.586	6.63
503.786	6.64
503.987	6.67
504.187	6.67
504.387	6.66
504.587	6.67
504.787	6.71
504.987	6.73
505.187	6.74
505.387	6.71
505.587	6.73
505.786	6.75
505.986	6.78
506.186	6.78
506.386	6.77
506.586	6.77
506.786	6.78
506.986	6.77
507.186	6.76
507.386	6.8
507.585	6.8
507.785	6.81
507.985	6.82
508.185	6.84
508.384	6.83
508.584	6.83
508.784	6.85
508.984	6.91
509.183	6.97
509.383	6.98
509.583	6.99
509.782	7.04
509.982	7.04
510.182	7.03
510.381	7.06
510.581	7.14
510.781	7.2
510.98	7.25
511.18	7.26
511.379	7.25
511.579	7.33
511.778	7.36
511.978	7.42
512.177	7.48
512.377	7.5
512.576	7.56
512.776	7.59
512.975	7.68
513.175	7.69
513.374	7.74
513.573	7.81
513.773	7.81
513.972	7.8
514.172	7.85
514.371	7.89
514.57	7.99
514.77	7.99
514.969	8.02
515.168	8.03
515.367	8.07
515.567	8.09
515.766	8.07
515.965	8.1
516.164	8.17
516.364	8.18
516.563	8.16
516.762	8.14
516.961	8.18
517.16	8.23
517.359	8.21
517.559	8.24
517.758	8.24
517.957	8.3
518.156	8.35
518.355	8.4
518.554	8.42
518.753	8.49
518.952	8.49
519.151	8.53
519.35	8.52
519.549	8.58
519.748	8.62
519.947	8.68
520.146	8.71
520.345	8.72
520.544	8.76
520.743	8.76
520.942	8.77
521.141	8.87
521.339	8.92
521.538	9
521.737	9.02
521.936	9.04
522.135	9.1
522.333	9.16
522.532	9.21
522.731	9.24
522.93	9.31
523.129	9.37
523.327	9.4
523.526	9.44
523.725	9.44
523.923	9.48
524.122	9.51
524.321	9.5
524.519	9.52
524.718	9.54
524.917	9.56
525.115	9.62
525.314	9.64
525.512	9.7
525.711	9.71
525.909	9.77
526.108	9.78
526.306	9.8
526.505	9.82
526.703	9.83
526.902	9.85
527.1	9.87
527.299	9.85
527.497	9.87
527.696	9.88
527.894	9.89
528.092	9.9
528.291	9.93
528.489	9.97
528.688	10.01
528.886	10.06
529.084	10.11
529.283	10.15
529.481	10.2
529.679	10.27
529.877	10.35
530.076	10.42
530.274	10.49
530.472	10.55
530.67	10.6
530.869	10.64
531.067	10.69
531.265	10.7
531.463	10.75
531.661	10.76
531.859	10.79
532.057	10.78
532.255	10.78
532.454	10.79
532.652	10.82
532.85	10.87
533.048	10.89
533.246	10.92
533.444	10.97
533.642	11.01
533.84	11.07
534.038	11.12
534.236	11.16
534.434	11.22
534.632	11.27
534.83	11.31
535.027	11.37
535.225	11.39
535.423	11.41
535.621	11.44
535.819	11.44
536.017	11.48
536.215	11.46
536.412	11.49
536.61	11.54
536.808	11.57
537.006	11.63
537.203	11.63
537.401	11.71
537.599	11.75
537.797	11.79
537.994	11.84
538.192	11.9
538.39	11.98
538.587	12.01
538.785	12.04
538.983	12.07
539.18	12.1
539.378	12.15
539.575	12.18
539.773	12.18
539.97	12.18
540.168	12.23
540.366	12.24
540.563	12.27
540.761	12.29
540.958	12.31
541.155	12.32
541.353	12.33
541.55	12.36
541.748	12.38
541.945	12.42
542.143	12.47
542.34	12.51
542.537	12.52
542.735	12.56
542.932	12.61
543.129	12.67
543.327	12.75
543.524	12.83
543.721	12.85
543.919	12.92
544.116	13.01
544.313	13.1
544.51	13.14
544.708	13.24
544.905	13.26
545.102	13.32
545.299	13.35
545.496	13.35
545.693	13.38
545.891	13.46
546.088	13.49
546.285	13.51
546.482	13.52
546.679	13.58
546.876	13.63
547.073	13.71
547.27	13.75
547.467	13.8
547.664	13.87
547.861	13.9
548.058	13.96
548.255	14.02
548.452	14.07
548.649	14.14
548.846	14.22
549.043	14.21
549.24	14.24
549.437	14.27
549.633	14.28
549.83	14.32
550.027	14.38
550.224	14.37
550.421	14.37
550.618	14.38
550.814	14.38
551.011	14.36
551.208	14.43
551.405	14.46
551.601	14.52
551.798	14.57
551.995	14.63
552.191	14.67
552.388	14.71
552.585	14.76
552.781	14.77
552.978	14.88
553.175	14.97
553.371	14.99
553.568	15.04
553.764	15.1
553.961	15.13
554.157	15.12
554.354	15.15
554.55	15.21
554.747	15.28
554.943	15.41
555.14	15.41
555.336	15.36
555.533	15.41
555.729	15.46
555.926	15.47
556.122	15.53
556.318	15.6
556.515	15.67
556.711	15.65
556.907	15.68
557.104	15.66
557.3	15.71
557.496	15.77
557.693	15.73
557.889	15.77
558.085	15.8
558.281	15.89
558.478	15.95
558.674	16
558.87	16.08
559.066	16.11
559.262	16.13
559.459	16.12
559.655	16.22
559.851	16.31
560.047	16.37
560.243	16.38
560.439	16.38
560.635	16.38
560.831	16.42
561.027	16.47
561.223	16.48
561.419	16.54
561.615	16.62
561.811	16.66
562.007	16.73
562.203	16.74
562.399	16.78
562.595	16.8
562.791	16.88
562.987	16.84
563.183	16.88
563.379	16.94
563.575	16.94
563.771	16.95
563.966	16.94
564.162	16.97
564.358	16.97
564.554	16.99
564.75	17.01
564.945	17.01
565.141	17.07
565.337	17.07
565.533	17.08
565.728	17.1
565.924	17.12
566.12	17.18
566.315	17.22
566.511	17.26
566.707	17.31
566.902	17.37
567.098	17.39
567.293	17.39
567.489	17.44
567.684	17.51
567.88	17.52
568.076	17.55
568.271	17.58
568.467	17.54
568.662	17.52
568.858	17.55
569.053	17.52
569.248	17.54
569.444	17.54
569.639	17.52
569.835	17.51
570.03	17.58
570.225	17.61
570.421	17.63
570.616	17.68
570.812	17.75
571.007	17.71
571.202	17.75
571.397	17.73
571.593	17.74
571.788	17.81
571.983	17.86
572.178	17.84
572.374	17.88
572.569	17.84
572.764	17.81
572.959	17.77
573.154	17.82
573.35	17.8
573.545	17.89
573.74	17.94
573.935	17.95
574.13	17.9
574.325	17.96
574.52	17.94
574.715	18.02
574.91	18.04
575.105	18.12
575.3	18.15
575.495	18.24
575.69	18.18
575.885	18.21
576.08	18.24
576.275	18.3
576.47	18.3
576.665	18.33
576.86	18.32
577.055	18.33
577.25	18.33
577.444	18.33
577.639	18.35
577.834	18.37
578.029	18.4
578.224	18.36
578.418	18.4
578.613	18.43
578.808	18.37
579.003	18.35
579.197	18.45
579.392	18.37
579.587	18.41
579.781	18.42
579.976	18.54
580.171	18.58
580.365	18.56
580.56	18.57
580.755	18.56
580.949	18.56
581.144	18.58
581.338	18.53
581.533	18.65
581.727	18.65
581.922	18.62
582.116	18.57
582.311	18.5
582.505	18.52
582.7	18.54
582.894	18.58
583.089	18.65
583.283	18.72
583.478	18.8
583.672	18.81
583.866	18.79
584.061	18.85
584.255	18.89
584.449	18.99
584.644	19.02
584.838	19.07
585.032	19.1
585.226	19.14
585.421	19.11
585.615	19.1
585.809	19.15
586.003	19.18
586.198	19.14
586.392	19.16
586.586	19.09
586.78	19.09
586.974	19.09
587.168	19.03
587.363	19.02
587.557	19
587.751	18.96
587.945	18.93
588.139	19.01
588.333	19.05
588.527	19.04
588.721	19.11
588.915	19.18
589.109	19.15
589.303	19.17
589.497	19.16
589.691	19.22
589.885	19.27
590.079	19.25
590.273	19.17
590.466	19.2
590.66	19.16
590.854	19.19
591.048	19.12
591.242	19.08
591.436	19.13
591.629	19.19
591.823	19.19
592.017	19.21
592.211	19.24
592.404	19.25
592.598	19.21
592.792	19.27
592.986	19.21
593.179	19.29
593.373	19.32
593.567	19.33
593.76	19.3
593.954	19.33
594.147	19.32
594.341	19.3
594.535	19.33
594.728	19.31
594.922	19.3
595.115	19.32
595.309	19.28
595.502	19.29
595.696	19.27
595.889	19.3
596.083	19.23
596.276	19.23
596.47	19.26
596.663	19.26
596.856	19.3
597.05	19.29
597.243	19.29
597.437	19.31
597.63	19.33
597.823	19.36
598.017	19.34
598.21	19.4
598.403	19.42
598.596	19.47
598.79	19.49
598.983	19.5
599.176	19.46
599.369	19.49
599.563	19.49
599.756	19.53
599.949	19.58
600.142	19.56
600.335	19.61
600.528	19.63
600.722	19.57
600.915	19.67
601.108	19.65
601.301	19.72
601.494	19.69
601.687	19.71
601.88	19.66
602.073	19.55
602.266	19.53
602.459	19.48
602.652	19.45
602.845	19.48
603.038	19.35
603.231	19.35
603.424	19.34
603.617	19.35
603.809	19.34
604.002	19.34
604.195	19.4
604.388	19.42
604.581	19.45
604.774	19.48
604.966	19.46
605.159	19.51
605.352	19.52
605.545	19.55
605.737	19.56
605.93	19.61
606.123	19.65
606.316	19.65
606.508	19.7
606.701	19.75
606.894	19.63
607.086	19.66
607.279	19.7
607.471	19.72
607.664	19.76
607.857	19.77
608.049	19.76
608.242	19.81
608.434	19.77
608.627	19.78
608.819	19.74
609.012	19.86
609.204	19.94
609.397	19.95
609.589	20.01
609.782	19.99
609.974	19.99
610.166	20.03
610.359	20.05
610.551	20.07
610.743	20.05
610.936	20.08
611.128	20.05
611.32	20.02
611.513	19.99
611.705	19.91
611.897	19.94
612.09	19.93
612.282	19.95
612.474	19.87
612.666	19.94
612.858	20.06
613.051	20.06
613.243	20.06
613.435	20
613.627	20.09
613.819	20.2
614.011	20.35
614.203	20.42
614.395	20.37
614.588	20.35
614.78	20.29
614.972	20.23
615.164	20.17
615.356	20.2
615.548	20.22
615.74	20.22
615.932	20.13
616.124	19.89
616.315	19.89
616.507	19.92
616.699	19.97
616.891	19.99
617.083	20.02
617.275	20.04
617.467	20.04
617.659	20.07
617.85	20.07
618.042	20.07
618.234	20.09
618.426	20.15
618.618	20.11
618.809	20.1
619.001	20.11
619.193	20.19
619.384	20.25
619.576	20.28
619.768	20.25
619.959	20.14
620.151	20.17
620.343	20.24
620.534	20.12
620.726	20.15
620.917	20.14
621.109	20.1
621.301	20.06
621.492	20.03
621.684	20.06
621.875	20.07
622.067	20.11
622.258	20.08
622.45	20.05
622.641	20.02
622.832	20.04
623.024	20.01
623.215	20.04
623.407	19.9
623.598	19.93
623.789	19.89
623.981	19.89
624.172	19.95
624.363	19.91
624.555	19.95
624.746	19.98
624.937	19.93
625.129	20.01
625.32	19.98
625.511	20.02
625.702	19.91
625.893	19.88
626.085	19.87
626.276	19.84
626.467	19.87
626.658	19.79
626.849	19.83
627.04	19.81
627.231	19.79
627.422	19.86
627.614	19.87
627.805	20
627.996	19.94
628.187	19.92
628.378	19.9
628.569	19.87
628.76	19.91
628.951	19.89
629.142	19.91
629.332	19.92
629.523	19.93
629.714	19.9
629.905	19.84
630.096	19.92
630.287	19.98
630.478	20.01
630.669	20.08
630.859	20.11
631.05	20.09
631.241	20.12
631.432	20.13
631.623	20.16
631.813	20.24
632.004	20.21
632.195	20.19
632.385	20.17
632.576	20.17
632.767	20.14
632.957	20.1
633.148	20.19
633.339	20.15
633.529	20.16
633.72	20.03
633.91	20.04
634.101	20.03
634.292	20.02
634.482	19.9
634.673	19.95
634.863	19.98
635.054	20.04
635.244	19.92
635.435	19.95
635.625	19.86
635.815	19.83
636.006	19.74
636.196	19.89
636.387	20
636.577	20.14
636.767	20.12
636.958	20.16
637.148	20.11
637.338	20.23
637.529	20.18
637.719	20.28
637.909	20.44
638.099	20.51
638.29	20.37
638.48	20.24
638.67	20.23
638.86	20.29
639.05	20.19
639.241	20.14
639.431	20.12
639.621	20.12
639.811	20.09
640.001	20.01
640.191	19.92
640.381	19.95
640.571	19.98
640.761	20.04
640.951	20.03
641.141	20.14
641.331	20.21
641.521	20.19
641.711	20.26
641.901	20.17
642.091	20.13
642.281	20.19
642.471	20.18
642.661	20.24
642.851	20.31
643.041	20.37
643.231	20.24
643.42	20.34
643.61	20.48
643.8	20.48
643.99	20.53
644.18	20.63
644.369	20.76
644.559	20.78
644.749	20.74
644.939	20.66
645.128	20.49
645.318	20.5
645.508	20.41
645.697	20.27
645.887	20.24
646.076	20.28
646.266	20.2
646.456	20.17
646.645	20.17
646.835	20.2
647.024	20.11
647.214	20.14
647.403	20.25
647.593	20.27
647.782	20.34
647.972	20.36
648.161	20.37
648.351	20.44
648.54	20.39
648.73	20.36
648.919	20.28
649.108	20.23
649.298	20.3
649.487	20.14
649.677	20.08
649.866	20.04
650.055	20.07
650.244	19.93
650.434	19.96
650.623	19.97
650.812	19.98
651.002	20
651.191	20.09
651.38	20.11
651.569	20.16
651.758	20.19
651.947	20.27
652.137	20.28
652.326	20.37
652.515	20.32
652.704	20.33
652.893	20.29
653.082	20.39
653.271	20.43
653.46	20.39
653.649	20.52
653.838	20.59
654.027	20.54
654.216	20.53
654.405	20.52
654.594	20.55
654.783	20.56
654.972	20.52
655.161	20.47
655.35	20.41
655.539	20.33
655.728	20.28
655.916	20.23
656.105	20.14
656.294	20.15
656.483	20.23
656.672	20.14
656.86	20.11
657.049	20.19
657.238	20.1
657.427	20.14
657.615	20.14
657.804	20.11
657.993	20.16
658.181	20.22
658.37	20.15
658.559	20.07
658.747	20.05
658.936	20.1
659.125	20.06
659.313	20.09
659.502	20.11
659.69	20.11
659.879	20.12
660.067	20.17
660.256	20.17
660.444	20.2
660.633	20.28
660.821	20.38
661.01	20.4
661.198	20.49
661.387	20.47
661.575	20.44
661.763	20.58
661.952	20.55
662.14	20.5
662.328	20.51
662.517	20.48
662.705	20.47
662.893	20.46
663.082	20.49
663.27	20.44
663.458	20.53
663.646	20.5
663.834	20.41
664.023	20.49
664.211	20.53
664.399	20.45
664.587	20.51
664.775	20.51
664.963	20.45
665.152	20.44
665.34	20.47
665.528	20.41
665.716	20.38
665.904	20.48
666.092	20.41
666.28	20.29
666.468	20.25
666.656	20.25
666.844	20.27
667.032	20.3
667.22	20.24
667.408	20.24
667.596	20.39
667.784	20.45
667.971	20.33
668.159	20.37
668.347	20.45
668.535	20.46
668.723	20.52
668.911	20.47
669.098	20.51
669.286	20.49
669.474	20.47
669.662	20.31
669.849	20.35
670.037	20.34
670.225	20.3
670.413	20.29
670.6	20.43
670.788	20.26
670.976	20.29
671.163	20.26
671.351	20.26
671.538	20.21
671.726	20.22
671.913	20.21
672.101	20.29
672.289	20.33
672.476	20.31
672.664	20.25
672.851	20.36
673.039	20.32
673.226	20.37
673.413	20.44
673.601	20.54
673.788	20.56
673.976	20.55
674.163	20.47
674.35	20.48
674.538	20.46
674.725	20.51
674.912	20.47
675.1	20.62
675.287	20.6
675.474	20.46
675.662	20.36
675.849	20.42
676.036	20.41
676.223	20.45
676.411	20.48
676.598	20.46
676.785	20.39
676.972	20.36
677.159	20.32
677.346	20.2
677.533	20.38
677.721	20.41
677.908	20.41
678.095	20.39
678.282	20.39
678.469	20.3
678.656	20.37
678.843	20.31
679.03	20.45
679.217	20.45
679.404	20.5
679.591	20.34
679.778	20.43
679.964	20.43
680.151	20.5
680.338	20.58
680.525	20.5
680.712	20.42
680.899	20.55
681.086	20.52
681.272	20.49
681.459	20.52
681.646	20.73
681.833	20.74
682.02	20.64
682.206	20.64
682.393	20.63
682.58	20.78
682.766	20.93
682.953	20.97
683.14	20.94
683.326	20.94
683.513	21.04
683.7	20.99
683.886	20.83
684.073	20.87
684.259	20.76
684.446	20.88
684.632	20.82
684.819	20.79
685.005	20.66
685.192	20.62
685.378	20.61
685.565	20.54
685.751	20.47
685.938	20.48
686.124	20.6
686.31	20.64
686.497	20.44
686.683	20.41
686.87	20.34
687.056	20.33
687.242	20.22
687.429	20.16
687.615	20.24
687.801	20.29
687.987	20.44
688.174	20.34
688.36	20.33
688.546	20.42
688.732	20.49
688.918	20.32
689.105	20.35
689.291	20.44
689.477	20.47
689.663	20.43
689.849	20.34
690.035	20.36
690.221	20.47
690.407	20.61
690.593	20.61
690.779	20.52
690.965	20.73
691.151	20.82
691.337	20.81
691.523	20.96
691.709	21.03
691.895	21
692.081	20.96
692.267	20.94
692.453	20.84
692.639	20.91
692.825	20.78
693.011	20.73
693.196	20.7
693.382	20.62
693.568	20.42
693.754	20.46
693.94	20.42
694.125	20.41
694.311	20.44
694.497	20.41
694.682	20.29
694.868	20.38
695.054	20.43
695.239	20.43
695.425	20.41
695.611	20.7
695.796	20.55
695.982	20.55
696.168	20.45
696.353	20.46
696.539	20.45
696.724	20.4
696.91	20.52
697.095	20.57
697.281	20.44
697.466	20.46
697.652	20.26
697.837	20.26
698.023	20.23
698.208	20.3
698.393	20.22
698.579	20.2
698.764	20.21
698.949	20.18
699.135	20.17
699.32	20.24
699.505	20.36
699.691	20.35
699.876	20.31
700.061	20.45
700.246	20.33
700.432	20.23
700.617	20.11
700.802	20.15
700.987	20.19
701.172	20.13
701.358	20.11
701.543	20.29
701.728	20.29
701.913	20.46
702.098	20.47
702.283	20.6
702.468	20.67
702.653	21
702.838	21.2
703.023	21.15
703.208	21.18
703.393	21.34
703.578	21.12
703.763	21.3
703.948	21.28
704.133	21.37
704.318	21.5
704.503	21.67
704.688	21.63
704.873	21.24
705.057	21.32
705.242	21.28
705.427	21.05
705.612	21.01
705.797	21.09
705.981	21.07
706.166	21.07
706.351	20.77
706.536	20.68
706.72	20.58
706.905	20.84
707.09	20.77
707.274	20.83
707.459	20.93
707.644	21.02
707.828	20.96
708.013	20.82
708.197	20.8
708.382	20.89
708.567	20.85
708.751	20.88
708.936	20.62
709.12	20.67
709.305	20.61
709.489	20.6
709.673	20.36
709.858	20.26
710.042	20.3
710.227	20.23
710.411	20.43
710.596	20.38
710.78	20.48
710.964	20.81
711.149	20.77
711.333	20.77
711.517	20.72
711.702	20.98
711.886	21.01
712.07	21.03
712.254	21
712.438	20.82
712.623	20.95
712.807	20.8
712.991	20.57
713.175	20.66
713.359	20.75
713.544	20.74
713.728	20.56
713.912	20.62
714.096	20.65
714.28	20.75
714.464	20.81
714.648	20.77
714.832	20.77
715.016	20.82
715.2	20.77
715.384	20.8
715.568	20.94
715.752	20.71
715.936	20.72
716.12	20.74
716.304	20.63
716.488	20.6
716.671	20.66
716.855	20.75
717.039	20.8
717.223	20.81
717.407	20.7
717.59	20.77
717.774	21.06
717.958	21.14
718.142	21.12
718.325	21.05
718.509	21.16
718.693	21.07
718.877	21
719.06	20.87
719.244	20.9
719.428	21.06
719.611	20.81
719.795	20.85
719.978	20.79
720.162	20.77
720.345	20.97
720.529	21.05
720.713	21.14
720.896	21.06
721.08	21.16
721.263	21.19
721.446	21.14
721.63	21.22
721.813	21.05
721.997	21.13
722.18	21.12
722.364	20.99
722.547	20.8
722.73	20.56
722.914	20.75
723.097	20.81
723.28	20.65
723.464	20.61
723.647	20.72
723.83	20.97
724.013	20.86
724.197	21.01
724.38	21.33
724.563	21.38
724.746	21.62
724.929	21.68
725.112	21.81
725.296	21.81
725.479	21.82
725.662	21.62
725.845	21.65
726.028	21.49
726.211	21.37
726.394	21.09
726.577	20.98
726.76	20.84
726.943	20.82
727.126	20.66
727.309	20.67
727.492	20.69
727.675	20.8
727.858	20.55
728.041	20.76
728.224	21.04
728.407	20.92
728.589	21.03
728.772	21.07
728.955	21.03
729.138	21.02
729.321	21.07
729.503	21.29
729.686	21.31
729.869	21.31
730.052	21.14
730.234	20.88
730.417	21.12
730.6	21.09
730.782	21.23
730.965	21.2
731.148	21.37
731.33	21.4
731.513	21.14
731.695	21.28
731.878	21.33
732.061	21.33
732.243	21.34
732.426	21.12
732.608	21.12
732.791	21.1
732.973	21.17
733.156	21
733.338	20.85
733.52	20.82
733.703	20.63
733.885	20.7
734.068	20.64
734.25	20.82
734.432	20.96
734.615	20.96
734.797	20.77
734.979	20.51
735.162	20.51
735.344	20.72
735.526	20.84
735.708	20.69
735.891	20.83
736.073	20.9
736.255	20.8
736.437	20.71
736.619	20.86
736.802	21.02
736.984	21.01
737.166	21.28
737.348	21.15
737.53	21.01
737.712	21.1
737.894	21.18
738.076	21.3
738.258	21.33
738.44	21.36
738.622	21.43
738.804	21.21
738.986	21.41
739.168	21.14
739.35	21.31
739.532	21.31
739.714	21.65
739.896	21.41
740.078	21.36
740.259	21.26
740.441	21.52
740.623	21.28
740.805	21.35
740.987	21.27
741.168	21.2
741.35	21.14
741.532	21.24
741.714	21.05
741.895	21.14
742.077	20.96
742.259	20.83
742.44	20.56
742.622	20.76
742.804	20.67
742.985	20.76
743.167	20.76
743.348	20.77
743.53	20.59
743.711	20.69
743.893	20.93
744.075	21.11
744.256	21.13
744.438	21.38
744.619	21.19
744.8	21.56
744.982	21.59
745.163	21.29
745.345	21.13
745.526	21.41
745.707	21.56
745.889	21.19
746.07	21.28
746.252	21.45
746.433	21.21
746.614	21.1
746.795	20.59
746.977	20.83
747.158	21.32
747.339	21.4
747.52	21.39
747.702	20.87
747.883	21.01
748.064	21.17
748.245	20.9
748.426	20.84
748.607	21.26
748.788	21.27
748.97	21.02
749.151	21.08
749.332	21.29
749.513	21.2
749.694	21.67
749.875	21.8
750.056	21.62
750.237	21.96
750.418	22.08
750.599	21.84
750.78	22.19
750.96	22.2
751.141	22.18
751.322	21.94
751.503	22.2
751.684	21.83
751.865	21.62
752.046	21.39
752.226	21.27
752.407	21.18
752.588	21.34
752.769	21.53
752.949	21.48
753.13	21.54
753.311	21.34
753.492	20.81
753.672	21.3
753.853	21.74
754.034	21.77
754.214	21.82
754.395	21.76
754.575	21.59
754.756	21.4
754.937	21.28
755.117	21.27
755.298	21.47
755.478	21.59
755.659	21.23
755.839	20.75
756.02	20.85
756.2	20.74
756.381	20.51
756.561	20.48
756.741	20.69
756.922	21.01
757.102	21.03
757.283	21.16
757.463	21.33
757.643	21.36
757.823	21.29
758.004	21.09
758.184	21.17
758.364	21.95
758.545	22.03
758.725	21.89
758.905	21.67
759.085	21.59
759.265	21.43
759.446	21.35
759.626	21.47
759.806	21.38
759.986	21.78
760.166	21.68
760.346	21.18
760.526	21.11
760.706	21.12
760.886	21.13
761.066	21.27
761.246	21.08
761.426	21.34
761.606	21.1
761.786	21.06
761.966	21.04
762.146	21.09
762.326	21.26
762.506	21.23
762.686	21.25
762.866	21.33
763.046	21.22
763.225	21.5
763.405	21.13
763.585	21.16
763.765	21.28
763.945	21.28
764.124	21.22
764.304	21.16
764.484	21.12
764.664	20.97
764.843	20.89
765.023	20.9
765.203	20.87
765.382	20.89
765.562	21.15
765.741	21.3
765.921	21.05
766.101	21.3
766.28	21.21
766.46	21.44
766.639	21.69
766.819	21.73
766.998	21.86
767.178	21.83
767.357	21.99
767.537	21.92
767.716	21.95
767.896	22.17
768.075	22
768.254	21.81
768.434	21.99
768.613	22.11
768.792	22.36
768.972	22.52
769.151	22.27
769.33	22.17
769.51	22.42
769.689	22.69
769.868	22.72
770.047	22.94
770.226	23.13
770.406	23.21
770.585	22.98
770.764	22.69
770.943	22.39
771.122	22.59
771.301	23.34
771.48	22.91
771.66	22.86
771.839	22.83
772.018	22.44
772.197	22.44
772.376	22
772.555	22.02
772.734	22.1
772.913	22.2
773.092	21.91
773.271	21.05
773.449	21.09
773.628	20.91
773.807	20.79
773.986	21.33
774.165	21.42
774.344	21.6
774.523	21.45
774.701	21.41
774.88	21.51
775.059	21.41
775.238	22.38
775.417	22.6
775.595	22.67
775.774	22.65
775.953	22.27
776.131	22.67
776.31	22.67
776.489	22.75
776.667	22.78
776.846	22.45
777.025	22.88
777.203	22.26
777.382	22.3
777.56	21.83
777.739	21.79
777.917	21.66
778.096	21.33
778.274	21.26
778.453	21.43
778.631	21.27
778.81	21.22
778.988	20.72
779.166	20.4
779.345	20.19
779.523	20.49
779.702	21.17
779.88	21.53
780.058	21.79
780.237	21.78
780.415	21.75
780.593	21.83
780.771	22.23
780.95	23.08
781.128	23.52
781.306	23.59
781.484	23.94
781.662	23.08
781.841	23.3
782.019	22.89
782.197	23.43
782.375	23.36
782.553	23.44
782.731	23.09
782.909	22.84
783.087	23.27
783.265	23.45
783.443	22.85
783.621	23.27
783.799	22.89
783.977	23.29
784.155	22.69
784.333	23.11
784.511	22.87
784.689	23.17
784.867	22.85
785.045	22.22
785.223	21.94
785.4	22.09
785.578	21.76
785.756	21.6
785.934	21.24
786.112	21.24
786.289	21.16
786.467	21.48
786.645	21.29
786.823	21.46
787	21.65
787.178	21.65
787.356	21.76
787.533	22.13
787.711	22.34
787.889	22.43
788.066	22.64
788.244	22.56
788.421	22.95
788.599	22.76
788.776	22.69
788.954	22.71
789.131	22.7
789.309	22.46
789.486	22.79
789.664	22.86
789.841	23.29
790.019	23.01
790.196	23.08
790.373	22.65
790.551	23.47
790.728	23.72
790.906	24.37
791.083	24.04
791.26	24.37
791.437	23.77
791.615	23.6
791.792	23.48
791.969	23.66
792.146	23.11
792.324	23.24
792.501	23.41
792.678	23.14
792.855	22.35
793.032	22.84
793.209	22.78
793.387	22.95
793.564	23.22
793.741	22.83
793.918	23.07
794.095	23.6
794.272	23.33
794.449	22.35
794.626	23.04
794.803	23.24
794.98	23.19
795.157	23.08
795.334	23.1
795.511	22.6
795.688	22.62
795.864	22.33
796.041	22.13
796.218	22.32
796.395	22.39
796.572	21.8
796.749	21.33
796.925	21.39
797.102	21.84
797.279	21.92
797.456	22.37
797.632	22.67
797.809	23.01
797.986	22.99
798.162	22.96
798.339	23.04
798.516	23.77
798.692	24.53
798.869	24.31
799.046	24.24
799.222	24.2
799.399	23.56
799.575	23.34
799.752	22.94
799.928	23.09
800.105	23.04
800.281	23.01
800.458	22.53
800.634	21.83
800.811	22.35
800.987	21.63
801.163	21.06
801.34	21.73
801.516	21.84
801.692	22.34
801.869	22.66
802.045	22.84
802.221	22.84
802.398	22.49
802.574	23.18
802.75	23.18
802.926	24.37
803.103	25.02
803.279	24.98
803.455	25.13
803.631	24.57
803.807	24.51
803.983	24.7
804.16	24.66
804.336	24.97
804.512	25.19
804.688	24.85
804.864	24.13
805.04	24.31
805.216	24.36
805.392	24.51
805.568	24.86
805.744	24.83
805.92	25.41
806.096	25.85
806.272	25.98
806.448	25.58
806.623	25.32
806.799	24.68
806.975	24.87
807.151	25
807.327	24.37
807.503	24.03
807.678	23.65
807.854	23.26
808.03	23.17
808.206	23.06
808.381	23.14
808.557	23.66
808.733	24.24
808.908	23.48
809.084	23.47
809.26	23.89
809.435	24.86
809.611	24.98
809.787	24.19
809.962	24.52
810.138	24.8
810.313	25
810.489	24.94
810.664	24.74
810.84	24.86
811.015	25.37
811.191	25.17
811.366	25.34
811.542	26.01
811.717	26.65
811.892	27.6
812.068	27.12
812.243	27.16
812.419	27.06
812.594	27.41
812.769	27.98
812.944	27.75
813.12	27.79
813.295	27.07
813.47	26.97
813.645	27.16
813.821	26.09
813.996	27.21
814.171	27.04
814.346	27.47
814.521	27.65
814.697	28.06
814.872	27.13
815.047	27.36
815.222	27.65
815.397	26.29
815.572	26.26
815.747	26.49
815.922	25.55
816.097	25.84
816.272	25.59
816.447	24.52
816.622	23.72
816.797	24.35
816.972	24.19
817.147	23.32
817.322	23.87
817.496	23.81
817.671	23.86
817.846	23.5
818.021	22.67
818.196	23.2
818.371	23.97
818.545	24.12
818.72	24.34
818.895	23.99
819.069	23.98
819.244	24.28
819.419	23.58
819.594	22.86
819.768	22.99
819.943	22.8
820.117	22.07
820.292	21.72
820.467	21.57
820.641	21.36
820.816	21.44
820.99	21.41
821.165	21.36
821.339	21.49
821.514	21.62
821.688	21.44
821.863	21.27
822.037	21.13
822.212	21.18
822.386	21.07
822.56	21.05
822.735	21.09
822.909	21.17
823.084	21.03
823.258	20.94
823.432	20.76
823.606	20.84
823.781	21.02
823.955	21.32
824.129	21.3
824.303	21.35
824.478	21.43
824.652	21.21
824.826	21.15
825	21.06
825.174	21.2
825.348	21.1
825.523	20.81
825.697	20.92
825.871	21.03
826.045	21.31
826.219	21.31
826.393	21.32
826.567	21.51
826.741	21.58
826.915	21.59
827.089	21.68
827.263	22.03
827.437	22.3
827.611	22.38
827.784	22.49
827.958	22.31
828.132	22.68
828.306	22.6
828.48	23.05
828.654	23.12
828.827	23.53
829.001	23.03
829.175	23.16
829.349	23.7
829.522	23.67
829.696	23.41
829.87	23.99
830.044	24.66
830.217	25.06
830.391	24.34
830.565	23.67
830.738	24.17
830.912	24.7
831.085	24.56
831.259	24.88
831.432	24.95
831.606	25.05
831.779	23.93
831.953	23.02
832.126	22.84
832.3	23.01
832.473	23.82
832.647	23.32
832.82	23.19
832.994	22.96
833.167	22.58
833.34	22.2
833.514	22.23
833.687	22.46
833.86	22.83
834.034	23.09
834.207	23.05
834.38	22.89
834.553	22.93
834.727	23.31
834.9	23.33
835.073	23.51
835.246	23.96
835.419	24.07
835.593	24.18
835.766	24.04
835.939	23.45
836.112	23.01
836.285	23.04
836.458	23.79
836.631	23.36
836.804	24.41
836.977	23.53
837.15	23.65
837.323	23.02
837.496	23
837.669	22.18
837.842	23.58
838.015	24.31
838.188	23.89
838.361	23.66
838.533	23.82
838.706	23.43
838.879	24.48
839.052	24.99
839.225	25.67
839.398	25.67
839.57	26.66
839.743	25.74
839.916	25.18
840.088	25.55
840.261	24.65
840.434	25.01
840.607	24.23
840.779	24.52
840.952	24.33
841.124	23.77
841.297	25.37
841.47	25.49
841.642	26.43
841.815	27.6
841.987	27.95
842.16	28.45
842.332	27.99
842.505	28.85
842.677	28.33
842.85	27.24
843.022	28.26
843.194	27.4
843.367	27.85
843.539	27.79
843.712	27.95
843.884	27.37
844.056	29.04
844.229	30.12
844.401	30.74
844.573	31.11
844.745	33.73
844.918	32.51
845.09	32.04
845.262	29.01
845.434	27.53
845.606	26.35
845.779	28.75
845.951	27.95
846.123	25.8
846.295	24.78
846.467	26.57
846.639	25.65
846.811	25.82
846.983	23.52
847.155	26.16
847.327	27.71
847.499	27.98
847.671	26.23
847.843	25.08
848.015	27.62
848.187	29.05
848.359	26.08
848.531	26.29
848.703	26.71
848.875	28.35
849.047	26.74
849.218	26.99
849.39	26.7
849.562	26.56
849.734	27.9
849.905	28.12
850.077	27.67
850.249	28.05
850.421	26.06
850.592	25.57
850.764	27.51
850.936	30.01
851.107	28.71
851.279	30.04
851.451	29.75
851.622	30.69
851.794	29.54
851.965	30.09
852.137	31.03
852.308	33.48
852.48	34.62
852.651	34.36
852.823	33.75
852.994	32.88
853.166	34.04
853.337	36.35
853.509	33.46
853.68	34.18
853.851	34.27
854.023	33.65
854.194	33.8
854.365	33.67
854.537	32.18
854.708	32.63
854.879	36.45
855.05	34.88
855.222	33.5
855.393	36.78
855.564	36.21
855.735	34.84
855.906	33.65
856.078	30.96
856.249	32.78
856.42	32.82
856.591	32.73
856.762	30.22
856.933	31.37
857.104	29.81
857.275	29.67
857.446	29.38
857.617	29.23
857.788	31.56
857.959	34.99
858.13	33.88
858.301	36.4
858.472	35.85
858.643	37.76
858.814	37.9
858.985	38.82
859.155	39.03
859.326	40.2
859.497	41.8
859.668	41.7
859.839	42.55
860.009	42.38
860.18	42.34
860.351	40.63
860.522	38.65
860.692	36.28
860.863	36.27
861.034	34.76
861.204	35.94
861.375	36.47
861.546	38.09
861.716	36.25
861.887	37.43
862.057	35.36
862.228	35.67
862.398	36.38
862.569	37.26
862.739	39.39
862.91	37.92
863.08	35.66
863.251	35.19
863.421	34.81
863.592	33.48
863.762	32.92
863.932	32.25
864.103	33.96
864.273	33.42
864.443	33.51
864.614	31.6
864.784	32.22
864.954	33.97
865.125	34.01
865.295	33.95
865.465	34.94
865.635	32.39
865.805	34.11
865.976	32.53
866.146	33.25
866.316	33.31
866.486	35.2
866.656	34.65
866.826	32.44
866.996	31.47
867.166	31.56
867.336	32.03
867.506	31.81
867.676	32.9
867.846	34.8
868.016	33.75
868.186	33.71
868.356	31.36
868.526	32.06
868.696	33.4
868.866	34.09
869.036	32.79
869.206	30.44
869.376	31.69
869.545	29.97
869.715	29.14
869.885	30.16
870.055	30.31
870.224	30.83
870.394	33.07
870.564	33.72
870.734	34.07
870.903	33.28
871.073	33.43
871.243	35.11
871.412	35.05
871.582	37.06
871.751	37.18
871.921	37.12
872.091	36.24
872.26	33.89
872.43	31.6
872.599	30.89
872.769	30.51
872.938	32.59
873.108	31.83
873.277	30.87
873.446	28.49
873.616	27.74
873.785	29.7
873.955	31.74
874.124	31.9
874.293	33.09
874.463	33.77
874.632	34.87
874.801	34.47
874.971	33.52
875.14	35.51
875.309	35.77
875.478	35.28
875.647	32.95
875.817	32.72
875.986	33.29
876.155	34.17
876.324	33.49
876.493	33.27
876.662	33.54
876.831	31.76
877	33.15
877.17	32.56
877.339	32.01
877.508	32.37
877.677	33.11
877.846	32.2
878.015	31.51
878.184	31.52
878.352	30.5
878.521	29.9
878.69	32.29
878.859	30.79
879.028	31.39
879.197	33.11
879.366	31.86
879.534	30.94
879.703	29.81
879.872	29.51
880.041	28.13
880.21	27.36
880.378	26.7
880.547	25.26
880.716	24.63
880.884	23.98
881.053	23.25
881.222	22.84
881.39	22.73
881.559	22.96
881.727	22.75
881.896	22.8
882.065	22.94
882.233	22.92
882.402	23.39
882.57	23.44
882.739	23.39
882.907	23.27
883.076	23.45
883.244	23.01
883.412	22.84
883.581	23.06
883.749	23.3
883.918	22.72
884.086	22.82
884.254	23.32
884.423	24.02
884.591	25.37
884.759	25.97
884.927	26.84
885.096	26.99
885.264	28.86
885.432	29.7
885.6	30.11
885.769	31.18
885.937	32.29
886.105	31.38
886.273	29.84
886.441	27.4
886.609	28.65
886.777	28.24
886.945	29.8
887.113	28.73
887.281	26.21
887.449	27.52
887.617	30.54
887.785	30.72
887.953	33.02
888.121	34.66
888.289	36.34
888.457	35.42
888.625	35.36
888.793	36.18
888.961	37.54
889.129	38.63
889.296	39.08
889.464	38.3
889.632	38.37
889.8	36.52
889.967	36.88
890.135	39.09
