Data from JASIL_3075_Reflection_02.txt Node
Date: Mon Nov 09 11:43:10 EST 2015
User: Geneva
Spectrometer: USB4E03002
Autoset integration time: false
Trigger mode: 4
Integration Time (sec): 1.000000E-1
Scans to average: 10
Electric dark correction enabled: false
Nonlinearity correction enabled: false
Boxcar width: 5
Stray light correction enabled: false
XAxis mode: Wavelengths
Stop averaging: false
Number of Pixels in Spectrum: 3648
>>>>>Begin Spectral Data<<<<<
177.575	-108.47
177.794	-76.68
178.014	-32.85
178.233	-37.24
178.452	-53.66
178.672	-69.53
178.891	-100.54
179.11	-67.73
179.33	-90.74
179.549	-67.04
179.768	21.19
179.987	-33.62
180.207	-38.77
180.426	-468.18
180.645	-179.73
180.864	-146.47
181.084	-41.96
181.303	-17.2
181.522	-53.57
181.741	-33.45
181.96	-39.16
182.179	-60.6
182.398	-52.26
182.618	-82.3
182.837	-62.57
183.056	-53.22
183.275	-41.37
183.494	-88
183.713	-169.23
183.932	-720
184.151	-30.43
184.37	-285.45
184.589	728.57
184.808	-441.18
185.027	26100
185.246	428.57
185.465	-341.77
185.684	-442.11
185.903	212.96
186.122	429.67
186.341	243.48
186.56	343.33
186.779	260
186.998	131.37
187.216	160
187.435	242.27
187.654	778.12
187.873	164.24
188.092	109.22
188.311	-38
188.53	-813.79
188.748	1009.09
188.967	-315
189.186	-183.47
189.405	-445.24
189.623	-236.89
189.842	-97.14
190.061	-62.89
190.28	-108.71
190.498	-117.2
190.717	-47.24
190.936	-73.04
191.154	-116.67
191.373	342.86
191.592	383.33
191.81	56.99
192.029	166.96
192.248	186.99
192.466	124.47
192.685	213.3
192.904	877.27
193.122	480.41
193.341	441.35
193.559	-822.03
193.778	10316.67
193.996	1407.89
194.215	-670.69
194.433	-194.17
194.652	430.16
194.87	-533.87
195.089	-312.63
195.307	-91.28
195.526	-58.72
195.744	22.13
195.963	16.87
196.181	38
196.399	24.06
196.618	5.87
196.836	-23.5
197.055	-15.33
197.273	-10.42
197.491	-3.68
197.71	-14.7
197.928	-11.49
198.146	-74.36
198.365	-77.93
198.583	-145.3
198.801	-192.27
199.019	-502.88
199.238	-207.76
199.456	-311.58
199.674	-264.94
199.892	-121.95
200.111	-240.23
200.329	82.14
200.547	43.58
200.765	28.77
200.983	75
201.202	68.75
201.42	68.19
201.638	50.12
201.856	88.11
202.074	150.94
202.292	144.11
202.51	222
202.728	430.89
202.946	5333.33
203.165	-87.77
203.383	-115.43
203.601	-521.95
203.819	21.4
204.037	61.2
204.255	65.36
204.473	117.96
204.691	67.46
204.909	49.88
205.127	40.12
205.345	15.32
205.562	6.87
205.78	18.34
205.998	44.11
206.216	-95.89
206.434	-126.54
206.652	-163.46
206.87	-376.47
207.088	-395.95
207.306	313.46
207.523	97.38
207.741	118.75
207.959	135.62
208.177	123.4
208.395	140
208.612	47.91
208.83	73.51
209.048	102.29
209.266	63.7
209.483	61.14
209.701	121.18
209.919	115.77
210.136	77.01
210.354	115.32
210.572	236.36
210.79	140.91
211.007	235.71
211.225	161.03
211.442	641.18
211.66	1042.5
211.878	820.59
212.095	-580.22
212.313	9414.29
212.53	-1127.5
212.748	756.67
212.966	145.51
213.183	137.55
213.401	109.69
213.618	181.73
213.836	101.8
214.053	129.76
214.271	81.21
214.488	32.75
214.705	-39.59
214.923	-34.17
215.14	300
215.358	92.53
215.575	61.57
215.793	96.37
216.01	144
216.227	195.12
216.445	173.12
216.662	158.7
216.879	184.11
217.097	216.6
217.314	364.96
217.531	-2325
217.749	-2900
217.966	-634.67
218.183	-137.74
218.4	83.56
218.618	-40.98
218.835	-154.96
219.052	-141.28
219.269	663.83
219.487	306.78
219.704	1126.09
219.921	-497.44
220.138	300
220.355	303.25
220.572	228.8
220.79	116.71
221.007	150.28
221.224	177.1
221.441	139.75
221.658	147.94
221.875	211.26
222.092	232.23
222.309	176.19
222.526	259.54
222.743	200.84
222.96	90.8
223.177	67.79
223.394	55.42
223.611	46.57
223.828	22.08
224.045	63.51
224.262	66.37
224.479	44.33
224.696	22.17
224.913	14.5
225.13	21.84
225.347	-6.56
225.564	6.57
225.781	-33.43
225.997	-38.92
226.214	-9.5
226.431	-12.94
226.648	-23.95
226.865	-7.57
227.082	4.4
227.298	7.44
227.515	6.07
227.732	9.75
227.949	4.67
228.165	8.41
228.382	14.35
228.599	15.37
228.816	12.93
229.032	21.94
229.249	25.65
229.466	27.05
229.682	37.36
229.899	39.75
230.116	44.09
230.332	53.21
230.549	68.12
230.765	65.05
230.982	46.33
231.199	49.02
231.415	45.67
231.632	40.08
231.848	18.94
232.065	10.22
232.281	36.33
232.498	28.35
232.714	36.36
232.931	35.73
233.147	35.59
233.364	51.18
233.58	55.89
233.797	51.66
234.013	50.4
234.23	48.59
234.446	47.98
234.662	30.53
234.879	31.94
235.095	42.95
235.312	46.02
235.528	36.55
235.744	10.6
235.961	-4.76
236.177	-12.64
236.393	7.72
236.61	9.98
236.826	-16.52
237.042	-1.96
237.258	-15.93
237.475	-32.75
237.691	-59.3
237.907	-10.07
238.123	28.79
238.339	38.41
238.556	32.1
238.772	21.94
238.988	35.78
239.204	37.42
239.42	31.7
239.636	46.73
239.853	34.47
240.069	26.26
240.285	19.78
240.501	19.12
240.717	13.83
240.933	17.48
241.149	24.59
241.365	18.22
241.581	22.01
241.797	20.15
242.013	15.86
242.229	22.31
242.445	28.07
242.661	27
242.877	22.42
243.093	30.69
243.309	31.67
243.525	18.1
243.741	21
243.957	18.87
244.173	16.38
244.388	11.73
244.604	5.38
244.82	4.22
245.036	5.12
245.252	7.52
245.468	1.85
245.683	1.12
245.899	3.16
246.115	2.55
246.331	3.49
246.547	4.56
246.762	5.25
246.978	6.8
247.194	4.48
247.409	5.45
247.625	2.42
247.841	4.59
248.057	5.29
248.272	3.75
248.488	1.68
248.703	0
248.919	-4.27
249.135	-5.74
249.35	-3.41
249.566	0.78
249.782	2.06
249.997	5.14
250.213	12.46
250.428	9.45
250.644	9.4
250.859	7.97
251.075	5.17
251.29	8.39
251.506	11.37
251.721	6.09
251.937	7.46
252.152	6.02
252.368	9.85
252.583	2.42
252.798	6.78
253.014	14.84
253.229	20.64
253.445	21.45
253.66	18.93
253.875	19.22
254.091	29.2
254.306	21.2
254.521	21.73
254.737	21.76
254.952	21.64
255.167	15.18
255.383	11.17
255.598	12.34
255.813	10.96
256.028	17.77
256.244	9.63
256.459	6.29
256.674	9.08
256.889	7.8
257.104	9.52
257.32	6.89
257.535	7.86
257.75	9.4
257.965	8.39
258.18	8.35
258.395	5.21
258.61	6.72
258.826	5.28
259.041	4.14
259.256	5.16
259.471	3.49
259.686	5.06
259.901	4.89
260.116	3.26
260.331	5.4
260.546	4.65
260.761	7.72
260.976	9.75
261.191	11.74
261.406	14.87
261.621	16.12
261.836	19.12
262.05	17.85
262.265	22.84
262.48	22.16
262.695	17.55
262.91	18.09
263.125	18.57
263.34	20.04
263.555	20.72
263.769	14.54
263.984	16.51
264.199	17.45
264.414	16.79
264.629	11.21
264.843	15.29
265.058	13.69
265.273	15.14
265.488	15.92
265.702	11.08
265.917	11.51
266.132	16.3
266.346	13.31
266.561	7.86
266.776	9.03
266.99	8.23
267.205	0.29
267.42	1.35
267.634	0.13
267.849	-5.01
268.063	-6.95
268.278	-9.19
268.492	-8.03
268.707	-8.5
268.922	-8.85
269.136	-8.76
269.351	-5.47
269.565	1.48
269.78	4.39
269.994	3.07
270.209	3.44
270.423	5
270.637	5.5
270.852	6.12
271.066	6.98
271.281	8.9
271.495	11.23
271.709	10.33
271.924	7.73
272.138	9.25
272.353	10.73
272.567	11.23
272.781	11.68
272.996	11.8
273.21	7.94
273.424	4.65
273.638	6.63
273.853	3.88
274.067	1.84
274.281	3.69
274.495	-0.68
274.71	0.46
274.924	4.8
275.138	3.36
275.352	2.79
275.566	5.08
275.781	8.33
275.995	7.72
276.209	8.99
276.423	9.57
276.637	10.85
276.851	8.07
277.065	7.91
277.279	8.37
277.493	8.69
277.707	6.74
277.921	6.8
278.135	9.6
278.349	9.14
278.563	7.05
278.777	9.32
278.991	9.82
279.205	13.23
279.419	11.85
279.633	7.39
279.847	6.55
280.061	10.64
280.275	11.32
280.489	8.5
280.703	6.77
280.917	5.67
281.131	2.74
281.344	2.03
281.558	1.6
281.772	0.32
281.986	4.31
282.2	3.4
282.414	2.63
282.627	2.85
282.841	3.72
283.055	4.1
283.269	4.83
283.482	6.55
283.696	6.04
283.91	5.92
284.123	7.47
284.337	4.87
284.551	4.51
284.764	3.93
284.978	3.71
285.192	1.93
285.405	2.47
285.619	2.69
285.833	1.27
286.046	1.68
286.26	2.1
286.473	1.4
286.687	4.91
286.9	4.33
287.114	3
287.327	1.57
287.541	2.12
287.754	2.35
287.968	3.43
288.181	4.39
288.395	5.95
288.608	4.51
288.822	3.98
289.035	2.33
289.248	2.32
289.462	3.69
289.675	4.81
289.889	3.93
290.102	1.55
290.315	-1.57
290.529	-1.59
290.742	-4.63
290.955	-2.98
291.169	-3.83
291.382	-4.93
291.595	-1.59
291.808	-1.07
292.022	-3.76
292.235	-1.75
292.448	3.51
292.661	5.24
292.875	3.81
293.088	4.14
293.301	1.63
293.514	1.94
293.727	1.5
293.94	1.44
294.153	2.59
294.367	3.36
294.58	3.63
294.793	2.3
295.006	2.97
295.219	3.55
295.432	5.29
295.645	6.12
295.858	5.17
296.071	6.45
296.284	6.16
296.497	6.67
296.71	6.94
296.923	5.54
297.136	5.74
297.349	6.48
297.562	5.73
297.775	2.44
297.988	2.05
298.201	4.06
298.414	4.28
298.626	4.22
298.839	1.78
299.052	2.25
299.265	4.06
299.478	4.45
299.691	2.66
299.903	4.88
300.116	7.81
300.329	9.89
300.542	9.2
300.755	9.69
300.967	9.1
301.18	8.25
301.393	11.34
301.605	8.74
301.818	8.79
302.031	9.16
302.243	7.52
302.456	8.85
302.669	8.02
302.881	7.35
303.094	5.87
303.307	7.96
303.519	9.19
303.732	9.21
303.944	12.32
304.157	7.46
304.37	9.39
304.582	11.42
304.795	11.52
305.007	11.78
305.22	11.92
305.432	11.41
305.645	9.8
305.857	10.78
306.069	5.08
306.282	6.8
306.494	11.87
306.707	11.75
306.919	9.86
307.132	8.38
307.344	7.96
307.556	8.92
307.769	7.59
307.981	6.63
308.193	4.88
308.406	6.5
308.618	4.83
308.83	0.68
309.043	-0.27
309.255	4.35
309.467	3.36
309.679	1.05
309.892	0.73
310.104	0.79
310.316	1.86
310.528	2.22
310.74	2.03
310.953	3.14
311.165	6.57
311.377	7.11
311.589	3.16
311.801	3.2
312.013	5.75
312.225	7.13
312.437	8.65
312.649	6.36
312.862	7.16
313.074	9.41
313.286	6.72
313.498	3.44
313.71	4.19
313.922	4.6
314.134	6.05
314.346	5.83
314.558	5.18
314.77	4.67
314.982	7.92
315.193	8.06
315.405	4.69
315.617	6.03
315.829	8.14
316.041	6.27
316.253	6.06
316.465	4.1
316.677	4.71
316.888	3.21
317.1	3.7
317.312	5.72
317.524	5.45
317.736	8.54
317.947	8.48
318.159	9.76
318.371	10.15
318.583	7.59
318.794	9.7
319.006	12.94
319.218	13.89
319.43	16.44
319.641	14.63
319.853	14.85
320.064	13.68
320.276	13.64
320.488	11.3
320.699	12.94
320.911	13.97
321.123	14.75
321.334	14.76
321.546	14.13
321.757	10.34
321.969	13.01
322.18	12.95
322.392	15.04
322.603	13.1
322.815	12.75
323.026	11.04
323.238	13.76
323.449	13.72
323.661	13.08
323.872	10.95
324.083	12.93
324.295	10.15
324.506	10.14
324.718	8.54
324.929	11.9
325.14	13.08
325.352	13.37
325.563	11.65
325.774	10
325.986	6.23
326.197	8.67
326.408	10.03
326.62	10.03
326.831	9.53
327.042	11.22
327.253	8.27
327.464	10.63
327.676	10.36
327.887	13.32
328.098	16.79
328.309	18.33
328.52	17.6
328.732	14.84
328.943	15.42
329.154	17.93
329.365	17.29
329.576	18.46
329.787	16.53
329.998	14.62
330.209	13.24
330.42	10.75
330.631	10.09
330.842	8.45
331.053	11.47
331.264	13.21
331.475	10.66
331.686	10.83
331.897	10.46
332.108	8.4
332.319	11.13
332.53	10.62
332.741	13.04
332.952	13.31
333.163	18.38
333.374	13.97
333.585	13.39
333.795	14
334.006	12.94
334.217	10.45
334.428	10.93
334.639	9.54
334.849	10.31
335.06	8.7
335.271	12.02
335.482	7.39
335.692	8
335.903	6.48
336.114	6.58
336.325	8
336.535	12.47
336.746	14.22
336.957	15.39
337.167	14.51
337.378	14.37
337.589	11.32
337.799	12.59
338.01	15.18
338.22	14.43
338.431	15.84
338.642	14.01
338.852	12.39
339.063	10.34
339.273	9.1
339.484	10.12
339.694	11.33
339.905	13.76
340.115	13.58
340.326	13.05
340.536	13.63
340.746	12.31
340.957	12.1
341.167	13.06
341.378	14.85
341.588	16.25
341.799	16.47
342.009	17.44
342.219	15.65
342.43	15.25
342.64	13.49
342.85	14.66
343.061	16.66
343.271	18.42
343.481	17.77
343.691	16.32
343.902	14.5
344.112	13.1
344.322	9.82
344.532	9.62
344.743	10.8
344.953	12.21
345.163	13.12
345.373	11.85
345.583	9.95
345.793	11.7
346.004	12.12
346.214	14.8
346.424	16.97
346.634	18.99
346.844	20.1
347.054	18.16
347.264	18.02
347.474	18.39
347.684	16.92
347.894	17.13
348.104	17.19
348.314	16.83
348.524	17.48
348.734	18.05
348.944	15.56
349.154	15.37
349.364	15.71
349.574	15.11
349.784	13.3
349.994	13.89
350.204	14.8
350.413	12.94
350.623	15.05
350.833	13.72
351.043	13.33
351.253	16.72
351.463	15.72
351.672	17.71
351.882	18.44
352.092	19.33
352.302	19.84
352.511	18.43
352.721	18.41
352.931	17.8
353.141	18.46
353.35	16.09
353.56	13.65
353.77	13.23
353.979	12.28
354.189	11.44
354.399	12.06
354.608	12.75
354.818	13.85
355.027	12.4
355.237	12.9
355.447	11.6
355.656	10.26
355.866	11.66
356.075	11.47
356.285	12.99
356.494	12.52
356.704	12.79
356.913	12.08
357.123	12.45
357.332	14.84
357.542	13.44
357.751	12.79
357.96	15.22
358.17	14.79
358.379	16.15
358.589	13.87
358.798	14.19
359.007	12.19
359.217	11.59
359.426	11.83
359.635	10.15
359.845	11.94
360.054	13.2
360.263	13.19
360.472	12.83
360.682	12.55
360.891	13
361.1	13.86
361.309	14.71
361.519	14.08
361.728	15.05
361.937	15.19
362.146	14.75
362.355	15.35
362.564	16.49
362.774	16.53
362.983	16.85
363.192	17.83
363.401	16.92
363.61	17.3
363.819	18.13
364.028	15.76
364.237	17.94
364.446	17.41
364.655	14.56
364.864	12.46
365.073	11.79
365.282	9.77
365.491	10.25
365.7	11.68
365.909	11.84
366.118	12.84
366.327	12.8
366.536	12.04
366.745	12.46
366.954	15.34
367.162	15.9
367.371	16.04
367.58	18.05
367.789	17.96
367.998	16.84
368.207	14.87
368.415	14.13
368.624	15.72
368.833	15.54
369.042	14.53
369.25	12
369.459	14.01
369.668	13.57
369.877	13.65
370.085	12.02
370.294	11.87
370.503	13.43
370.711	13.22
370.92	11.52
371.129	11.56
371.337	11.31
371.546	12.68
371.754	10.12
371.963	11.11
372.171	10.51
372.38	10.53
372.589	11.27
372.797	10.77
373.006	10.87
373.214	10.86
373.423	9
373.631	9.73
373.84	8.96
374.048	9.84
374.256	9.1
374.465	9.54
374.673	10.33
374.882	9.73
375.09	10.46
375.298	11.16
375.507	11.26
375.715	12.43
375.923	12.47
376.132	13.56
376.34	13.57
376.548	15.91
376.757	15.81
376.965	15.34
377.173	15.41
377.381	13.63
377.59	13.14
377.798	14.32
378.006	15.28
378.214	15.57
378.423	15.44
378.631	14.66
378.839	12.65
379.047	12.56
379.255	13.2
379.463	13.18
379.671	15.85
379.879	15.96
380.088	16.69
380.296	15.84
380.504	14.7
380.712	14.75
380.92	14.12
381.128	13.36
381.336	14.42
381.544	15.36
381.752	14.68
381.96	12.51
382.168	10.84
382.376	9.43
382.584	9.1
382.791	10.28
382.999	10.44
383.207	11.53
383.415	11.75
383.623	10.44
383.831	10.41
384.039	11.42
384.247	12.04
384.454	13.58
384.662	13.64
384.87	13.1
385.078	11.81
385.285	11.49
385.493	11.76
385.701	12.02
385.909	12.54
386.116	12.6
386.324	11.98
386.532	13.35
386.739	12.91
386.947	14.17
387.155	15.67
387.362	16.42
387.57	16.34
387.778	15.61
387.985	15.14
388.193	15.38
388.4	15.04
388.608	15.58
388.816	14.82
389.023	13.91
389.231	12.44
389.438	11.84
389.646	11.68
389.853	11.61
390.061	12.12
390.268	13.5
390.475	12.38
390.683	11.36
390.89	10.32
391.098	9.88
391.305	10.97
391.512	10.92
391.72	10.58
391.927	10.36
392.135	10.18
392.342	9.44
392.549	9.84
392.756	9.92
392.964	10.75
393.171	11.44
393.378	12.28
393.586	11.61
393.793	12.16
394	13.18
394.207	13.26
394.414	13.77
394.622	14.22
394.829	13.07
395.036	14.65
395.243	14.85
395.45	15.44
395.657	14.04
395.864	14.34
396.072	14.1
396.279	12.74
396.486	13.42
396.693	13.8
396.9	14.19
397.107	14.72
397.314	14.04
397.521	14.07
397.728	13.34
397.935	14.19
398.142	14.36
398.349	14.98
398.556	15.27
398.763	14.42
398.97	12.27
399.177	12.34
399.383	12.2
399.59	10.52
399.797	10.64
400.004	10.84
400.211	9.6
400.418	10.19
400.625	9.89
400.831	10.5
401.038	11.17
401.245	13.09
401.452	12.81
401.658	13.28
401.865	14.36
402.072	14.03
402.279	15.95
402.485	16.46
402.692	16.67
402.899	16.66
403.105	16.73
403.312	16.42
403.519	16.09
403.725	16.96
403.932	16.75
404.138	18.29
404.345	17.52
404.552	15.17
404.758	14.69
404.965	14.33
405.171	14.13
405.378	13.27
405.584	13.99
405.791	14.36
405.997	13.8
406.204	14.32
406.41	13.31
406.617	14.37
406.823	15.11
407.029	15.81
407.236	15.75
407.442	16.08
407.649	15.55
407.855	15.5
408.061	15.4
408.268	15.69
408.474	14.93
408.68	15.92
408.887	15.19
409.093	14.76
409.299	15.86
409.505	15.88
409.712	15.5
409.918	16.15
410.124	16.1
410.33	15.68
410.537	14.64
410.743	14.82
410.949	13.96
411.155	14.55
411.361	15.79
411.567	15.13
411.773	15.47
411.98	15.79
412.186	16.66
412.392	16.48
412.598	16.93
412.804	18.45
413.01	17.9
413.216	17.16
413.422	15.6
413.628	15.61
413.834	15.64
414.04	15.48
414.246	15.12
414.452	14.55
414.658	14.35
414.864	13.8
415.07	13.45
415.275	13.38
415.481	14.41
415.687	15.82
415.893	15.23
416.099	15.44
416.305	15.23
416.511	14.67
416.716	14.6
416.922	15.01
417.128	15.45
417.334	14.89
417.539	15.01
417.745	15.09
417.951	14.52
418.157	14.25
418.362	13.83
418.568	13.69
418.774	13.95
418.979	14.36
419.185	13.89
419.391	13.62
419.596	13.59
419.802	13.63
420.008	13.36
420.213	16.99
420.419	16.73
420.624	16.63
420.83	16.6
421.035	16.86
421.241	16.69
421.446	17.01
421.652	16.68
421.857	16.26
422.063	16.08
422.268	15.33
422.474	11.61
422.679	12.03
422.885	11.91
423.09	11.88
423.295	12.26
423.501	12.09
423.706	12.2
423.911	12.45
424.117	13.28
424.322	13.92
424.527	14.76
424.733	15.44
424.938	15.5
425.143	15.58
425.349	15.32
425.554	14.84
425.759	15.38
425.964	15.49
426.169	15.96
426.375	15.75
426.58	15.35
426.785	14.5
426.99	14.4
427.195	14.19
427.4	14.26
427.605	15.24
427.811	15.57
428.016	15.06
428.221	14.01
428.426	13.63
428.631	13.61
428.836	13.51
429.041	14.02
429.246	13.96
429.451	14.3
429.656	15.18
429.861	15.02
430.066	14.25
430.271	14.52
430.476	15.03
430.681	15.29
430.886	14.96
431.09	15.07
431.295	15.48
431.5	15.5
431.705	15.78
431.91	15.13
432.115	14.82
432.32	14.98
432.524	14.87
432.729	13.99
432.934	13.86
433.139	13.74
433.343	13.98
433.548	13.78
433.753	13.5
433.958	12.95
434.162	12.64
434.367	12.69
434.572	12.71
434.776	12.41
434.981	13.4
435.186	13.74
435.39	13.92
435.595	13.5
435.799	13.95
436.004	14.25
436.209	14.76
436.413	15.5
436.618	15.61
436.822	16.15
437.027	16.6
437.231	17.17
437.436	17.63
437.64	17.77
437.845	17.18
438.049	16.74
438.253	16.3
438.458	16.04
438.662	15.56
438.867	15.84
439.071	15.46
439.275	14.91
439.48	14.03
439.684	13.89
439.888	13.86
440.093	15.05
440.297	14.98
440.501	15.18
440.706	15.23
440.91	15.38
441.114	15.25
441.318	15.5
441.523	15.96
441.727	16.54
441.931	16.31
442.135	16.56
442.339	15.89
442.543	15.81
442.748	15.72
442.952	15.05
443.156	15.28
443.36	14.87
443.564	14.7
443.768	14.86
443.972	15
444.176	15.07
444.38	14.82
444.584	15.11
444.788	15.23
444.992	15.05
445.196	15.54
445.4	15.28
445.604	15.21
445.808	15.34
446.012	14.77
446.216	14.55
446.42	14.55
446.624	14.2
446.828	13.75
447.032	13.76
447.235	13.99
447.439	14.19
447.643	13.95
447.847	14.34
448.051	14.57
448.254	15.2
448.458	15.47
448.662	15.3
448.866	15.81
449.069	16.27
449.273	16.33
449.477	15.83
449.681	15.75
449.884	16.38
450.088	16.85
450.292	17.2
450.495	17
450.699	17.08
450.902	16.88
451.106	16.96
451.31	16.73
451.513	16.78
451.717	17.05
451.92	16.78
452.124	16.96
452.327	16.63
452.531	15
452.734	15.86
452.938	15.74
453.141	15.86
453.345	15.38
453.548	14.79
453.752	15.09
453.955	14.37
454.158	14.04
454.362	13.73
454.565	13.29
454.769	14.57
454.972	13.96
455.175	13.94
455.379	13.75
455.582	14.12
455.785	14.38
455.988	13.83
456.192	14.65
456.395	14.66
456.598	14.55
456.801	14.84
457.005	14.43
457.208	14.2
457.411	14.44
457.614	15.24
457.817	15.1
458.021	15.23
458.224	15.3
458.427	15.41
458.63	15.34
458.833	15.69
459.036	15.88
459.239	15.87
459.442	15.95
459.645	15.78
459.848	14.9
460.051	14.83
460.254	14.85
460.457	14.54
460.66	14.96
460.863	15.47
461.066	14.58
461.269	14.83
461.472	15.22
461.675	14.71
461.878	14.61
462.081	14.62
462.284	14.93
462.486	15.02
462.689	15.19
462.892	14.46
463.095	14.46
463.298	14.99
463.5	14.75
463.703	14.15
463.906	14.69
464.109	15.48
464.311	15.75
464.514	15.74
464.717	15.9
464.92	15.91
465.122	15.84
465.325	16.27
465.528	15.87
465.73	16.14
465.933	16.77
466.135	16.88
466.338	16.38
466.541	16.62
466.743	16.65
466.946	16.85
467.148	17.35
467.351	16.71
467.553	16.4
467.756	17
467.958	15.85
468.161	15.74
468.363	16.1
468.566	16
468.768	16.36
468.971	15.97
469.173	15.51
469.375	15.05
469.578	16.32
469.78	15.93
469.983	16.25
470.185	16.84
470.387	16.55
470.59	16.51
470.792	16.29
470.994	16.14
471.196	16.25
471.399	16.45
471.601	16.31
471.803	16.24
472.005	16.61
472.208	16.28
472.41	16.24
472.612	16.63
472.814	16.75
473.016	17.33
473.218	16.92
473.421	16.53
473.623	16.58
473.825	17.18
474.027	17.22
474.229	17.2
474.431	16.9
474.633	16.53
474.835	16.18
475.037	15.18
475.239	14.58
475.441	14.29
475.643	14.77
475.845	14.96
476.047	14.98
476.249	14.64
476.451	14.68
476.653	14.6
476.855	15.52
477.057	15.59
477.258	15.45
477.46	15.4
477.662	15.9
477.864	16.17
478.066	15.9
478.268	15.65
478.469	16.44
478.671	16.22
478.873	16.84
479.075	16.57
479.276	16.67
479.478	17.04
479.68	17.2
479.882	17.21
480.083	16.8
480.285	16.72
480.487	17.16
480.688	16.54
480.89	15.94
481.091	15.58
481.293	15.45
481.495	15.2
481.696	15.19
481.898	14.73
482.099	14.62
482.301	14.7
482.502	14.42
482.704	14.17
482.905	14.1
483.107	14.37
483.308	14.49
483.51	14.37
483.711	14.24
483.913	14.19
484.114	14.51
484.315	14.53
484.517	14.5
484.718	14.68
484.92	14.58
485.121	14.28
485.322	14.24
485.524	13.95
485.725	14.07
485.926	14.17
486.127	14.34
486.329	14.52
486.53	14.55
486.731	14.45
486.932	14.74
487.134	14.93
487.335	15.24
487.536	15.48
487.737	15.59
487.938	15.74
488.139	15.99
488.341	16.07
488.542	16.04
488.743	15.91
488.944	16.17
489.145	16.03
489.346	15.99
489.547	16.09
489.748	15.79
489.949	15.8
490.15	15.69
490.351	15.61
490.552	15.5
490.753	15.27
490.954	15.52
491.155	15.47
491.356	15.37
491.557	15.46
491.758	15.68
491.959	15.97
492.159	16.09
492.36	16.22
492.561	16.56
492.762	16.91
492.963	17.06
493.164	16.77
493.364	16.95
493.565	17.48
493.766	17.43
493.967	17.35
494.167	17.22
494.368	17.16
494.569	17.25
494.769	17.26
494.97	17.29
495.171	17.63
495.371	17.83
495.572	17.93
495.773	17.62
495.973	17.99
496.174	17.74
496.375	17.98
496.575	18.41
496.776	18.31
496.976	18.4
497.177	18.18
497.377	18.48
497.578	18.82
497.778	19.22
497.979	19.65
498.179	19.41
498.38	19.96
498.58	20.15
498.78	20.01
498.981	20.01
499.181	19.91
499.382	20.21
499.582	19.83
499.782	19.53
499.983	19.41
500.183	19.24
500.383	19.29
500.584	19.38
500.784	18.88
500.984	18.67
501.184	18.76
501.385	18.71
501.585	18.17
501.785	18.36
501.985	18.42
502.185	18.47
502.386	18.31
502.586	18.73
502.786	18.33
502.986	19.16
503.186	19.45
503.386	19.93
503.586	20
503.786	20.97
503.987	21.12
504.187	21.32
504.387	21.31
504.587	21.54
504.787	21.27
504.987	21.31
505.187	20.82
505.387	21.11
505.587	21.1
505.786	20.68
505.986	20.23
506.186	20.02
506.386	19.89
506.586	19.79
506.786	20.01
506.986	20.01
507.186	20.24
507.386	20.55
507.585	20.39
507.785	20.18
507.985	20.21
508.185	20.26
508.384	20.04
508.584	20.48
508.784	20.89
508.984	20.11
509.183	20.12
509.383	20.03
509.583	19.6
509.782	19.69
509.982	19.37
510.182	19.65
510.381	19.48
510.581	19.58
510.781	19.76
510.98	19.1
511.18	19.65
511.379	19.71
511.579	19.57
511.778	20.02
511.978	19.41
512.177	19.99
512.377	20.18
512.576	20.57
512.776	21.39
512.975	21.36
513.175	21.88
513.374	22.45
513.573	22.9
513.773	22.98
513.972	23.15
514.172	24.18
514.371	23.91
514.57	23.99
514.77	24.17
514.969	23.35
515.168	23.2
515.367	22.39
515.567	21.8
515.766	21.38
515.965	21.73
516.164	21.26
516.364	20.97
516.563	21
516.762	21.17
516.961	20.65
517.16	20.96
517.359	20.58
517.559	20.9
517.758	21.03
517.957	20.87
518.156	20.53
518.355	20.81
518.554	20.87
518.753	20.84
518.952	20.71
519.151	21.14
519.35	21.25
519.549	21.56
519.748	21.99
519.947	22.32
520.146	22.88
520.345	23.31
520.544	23.27
520.743	23.37
520.942	23.72
521.141	23.88
521.339	23.41
521.538	23.84
521.737	24
521.936	23.66
522.135	23.76
522.333	23.8
522.532	23.77
522.731	23.94
522.93	23.89
523.129	23.61
523.327	23.8
523.526	24.18
523.725	23.73
523.923	23.73
524.122	23.62
524.321	23.23
524.519	23.14
524.718	22.68
524.917	22.58
525.115	22.56
525.314	22.86
525.512	22.39
525.711	22.21
525.909	22.01
526.108	21.56
526.306	21.46
526.505	21.42
526.703	21.15
526.902	21.28
527.1	20.94
527.299	20.9
527.497	20.67
527.696	20.65
527.894	20.76
528.092	20.67
528.291	20.91
528.489	21.23
528.688	21.32
528.886	21.42
529.084	21.52
529.283	22
529.481	22.16
529.679	22.47
529.877	22.78
530.076	22.63
530.274	22.94
530.472	23.07
530.67	22.83
530.869	22.94
531.067	23.07
531.265	23.05
531.463	22.77
531.661	22.78
531.859	22.83
532.057	22.98
532.255	22.98
532.454	23.17
532.652	23.3
532.85	23.25
533.048	23.53
533.246	23.31
533.444	23.62
533.642	23.96
533.84	24.13
534.038	24.26
534.236	24.01
534.434	24.45
534.632	24.47
534.83	24.23
535.027	24.69
535.225	24.8
535.423	25.37
535.621	25.45
535.819	25.79
536.017	26.04
536.215	25.94
536.412	26.44
536.61	26.45
536.808	26.97
537.006	27.29
537.203	27.11
537.401	26.92
537.599	26.91
537.797	26.98
537.994	26.65
538.192	26.18
538.39	26.51
538.587	26.3
538.785	26.43
538.983	25.95
539.18	25.76
539.378	25.91
539.575	25.83
539.773	25.75
539.97	25.72
540.168	26.06
540.366	26.29
540.563	26.11
540.761	26.16
540.958	26.16
541.155	26.21
541.353	26.62
541.55	26.68
541.748	26.93
541.945	27.27
542.143	27.7
542.34	27.74
542.537	27.98
542.735	28.32
542.932	28.39
543.129	28.87
543.327	29.3
543.524	29.54
543.721	30.01
543.919	30.27
544.116	30.78
544.313	30.74
544.51	30.77
544.708	30.86
544.905	30.99
545.102	31.4
545.299	30.99
545.496	31.16
545.693	31.08
545.891	30.85
546.088	31.01
546.285	30.85
546.482	30.84
546.679	31.19
546.876	31.27
547.073	31.81
547.27	31.92
547.467	32.68
547.664	33.72
547.861	34.24
548.058	35.45
548.255	36.24
548.452	37.1
548.649	37.51
548.846	37.59
549.043	38.22
549.24	38.4
549.437	39.21
549.633	38.9
549.83	38.55
550.027	38.83
550.224	38.72
550.421	38.35
550.618	37.78
550.814	37.98
551.011	38.02
551.208	38.14
551.405	38.47
551.601	38.28
551.798	38.94
551.995	38.85
552.191	38.54
552.388	38.25
552.585	38.72
552.781	38.83
552.978	39.71
553.175	39.86
553.371	40.18
553.568	39.73
553.764	40.32
553.961	40.69
554.157	41.09
554.354	41.54
554.55	42.29
554.747	42.02
554.943	42.66
555.14	41.93
555.336	42.03
555.533	42.07
555.729	42.56
555.926	42.29
556.122	41.78
556.318	40.71
556.515	40.54
556.711	40.56
556.907	40.74
557.104	40.76
557.3	40.47
557.496	41.03
557.693	41.28
557.889	41.61
558.085	41.7
558.281	42.38
558.478	43.46
558.674	44.17
558.87	44.02
559.066	44.71
559.262	44.76
559.459	45.64
559.655	45.09
559.851	44.74
560.047	43.9
560.243	44.14
560.439	44.21
560.635	43.86
560.831	43.55
561.027	43.25
561.223	42.61
561.419	42.65
561.615	42.68
561.811	43.3
562.007	44.25
562.203	44.48
562.399	44.26
562.595	44
562.791	44.26
562.987	44.1
563.183	43.97
563.379	44.45
563.575	44.52
563.771	44.41
563.966	44.05
564.162	43.48
564.358	44.03
564.554	43.8
564.75	43.74
564.945	44.15
565.141	44.3
565.337	44.69
565.533	44.16
565.728	43.57
565.924	43.75
566.12	44.18
566.315	43.84
566.511	43.87
566.707	44.74
566.902	45.02
567.098	44.91
567.293	45.17
567.489	45.33
567.684	45.76
567.88	46.25
568.076	46.32
568.271	46.45
568.467	46.58
568.662	46.82
568.858	46.21
569.053	46.33
569.248	46.37
569.444	45.78
569.639	45.84
569.835	46.34
570.03	46.53
570.225	46.06
570.421	45.7
570.616	46.17
570.812	46.13
571.007	45.98
571.202	45.72
571.397	45.29
571.593	46.09
571.788	46.14
571.983	45.79
572.178	45.58
572.374	46
572.569	46.54
572.764	46.5
572.959	46.81
573.154	46.97
573.35	47.35
573.545	47.34
573.74	46.93
573.935	47.02
574.13	46.87
574.325	47.68
574.52	47.79
574.715	47.7
574.91	47.06
575.105	46.5
575.3	46.72
575.495	47.1
575.69	47.94
575.885	48.64
576.08	49.16
576.275	49.87
576.47	49.83
576.665	49.98
576.86	49.82
577.055	50.59
577.25	51.18
577.444	51.8
577.639	51.66
577.834	51.99
578.029	51.9
578.224	51.2
578.418	51.19
578.613	51.14
578.808	51.28
579.003	52.09
579.197	52.5
579.392	52.39
579.587	52.32
579.781	51.9
579.976	51.94
580.171	51.79
580.365	52.73
580.56	52.9
580.755	52.77
580.949	53.23
581.144	52.89
581.338	53.02
581.533	54.1
581.727	54.51
581.922	55.24
582.116	55.43
582.311	56.1
582.505	55.79
582.7	55.54
582.894	56.67
583.089	56.93
583.283	57.3
583.478	57.12
583.672	57.01
583.866	57.17
584.061	57.33
584.255	57.46
584.449	58.29
584.644	58.21
584.838	58.85
585.032	58.28
585.226	57.97
585.421	57.95
585.615	58.6
585.809	57.91
586.003	57.37
586.198	56.81
586.392	56.49
586.586	55.32
586.78	54.61
586.974	54.02
587.168	53.19
587.363	52.84
587.557	52.35
587.751	51.72
587.945	51.47
588.139	51.41
588.333	51.72
588.527	51.37
588.721	51.23
588.915	51.83
589.109	51.35
589.303	51.46
589.497	51.7
589.691	51.91
589.885	51.79
590.079	52.57
590.273	52.56
590.466	52.49
590.66	53.33
590.854	53.52
591.048	53.86
591.242	54.77
591.436	55.17
591.629	55.27
591.823	55.27
592.017	56.15
592.211	55.91
592.404	56.44
592.598	56.37
592.792	55.73
592.986	55.91
593.179	55.54
593.373	55.22
593.567	54.8
593.76	54.33
593.954	54.13
594.147	53.45
594.341	52.8
594.535	52.07
594.728	52.19
594.922	51.84
595.115	51.05
595.309	50.78
595.502	50.61
595.696	50.9
595.889	50.61
596.083	50.89
596.276	50.81
596.47	51.32
596.663	51.98
596.856	52.1
597.05	52.72
597.243	53.92
597.437	54.84
597.63	55.23
597.823	55.76
598.017	56.78
598.21	56.9
598.403	57.41
598.596	58.34
598.79	58.73
598.983	58.86
599.176	59.06
599.369	58.65
599.563	58.69
599.756	59.03
599.949	59.06
600.142	59.12
600.335	59.16
600.528	58.92
600.722	57.96
600.915	57.8
601.108	57.97
601.301	58.24
601.494	57.45
601.687	57.49
601.88	57.08
602.073	57.2
602.266	56.76
602.459	56.47
602.652	56.32
602.845	56.59
603.038	56.09
603.231	55.86
603.424	55.86
603.617	56.9
603.809	56.71
604.002	56.86
604.195	57.15
604.388	57.64
604.581	57.99
604.774	58.78
604.966	58.7
605.159	59.55
605.352	59.75
605.545	59.66
605.737	59.87
605.93	60.17
606.123	60.28
606.316	59.88
606.508	60.41
606.701	60.11
606.894	59.38
607.086	58.52
607.279	57.78
607.471	57.96
607.664	57.87
607.857	57.39
608.049	57.79
608.242	58.19
608.434	57.82
608.627	57.24
608.819	57.8
609.012	58.13
609.204	59.24
609.397	59.19
609.589	59.04
609.782	59.19
609.974	59.03
610.166	58.36
610.359	58.57
610.551	59.41
610.743	59.66
610.936	60.61
611.128	60.72
611.32	60.62
611.513	62.26
611.705	63.32
611.897	63.62
612.09	64.67
612.282	64.6
612.474	64.99
612.666	65.12
612.858	65.8
613.051	64.63
613.243	65.08
613.435	65.42
613.627	65.5
613.819	64.94
614.011	66.02
614.203	66.48
614.395	67.6
614.588	67.29
614.78	67.97
614.972	67.89
615.164	69.29
615.356	69.15
615.548	68.83
615.74	68.58
615.932	68.91
616.124	69.12
616.315	67.94
616.507	67.23
616.699	67.48
616.891	67.3
617.083	67.37
617.275	66.32
617.467	66.95
617.659	68.12
617.85	68.42
618.042	68.83
618.234	68.41
618.426	68.97
618.618	69.61
618.809	68.92
619.001	68.38
619.193	68.27
619.384	68.78
619.576	68.51
619.768	68.73
619.959	67.18
620.151	66.82
620.343	66.27
620.534	66.73
620.726	67.08
620.917	67.68
621.109	67.23
621.301	66.92
621.492	67.67
621.684	66.61
621.875	65.56
622.067	66.53
622.258	67.35
622.45	67.64
622.641	67.4
622.832	67.1
623.024	66.48
623.215	66.95
623.407	66.75
623.598	66.1
623.789	67.06
623.981	67.12
624.172	66.54
624.363	65.13
624.555	64.25
624.746	64.56
624.937	64.93
625.129	64.69
625.32	64.39
625.511	64.58
625.702	63.48
625.893	62.59
626.085	62.42
626.276	63.06
626.467	62.94
626.658	63.29
626.849	62.86
627.04	62.4
627.231	63.23
627.422	63.03
627.614	63.66
627.805	64.02
627.996	64.85
628.187	65.9
628.378	65.27
628.569	65.3
628.76	65.71
628.951	65.29
629.142	65.26
629.332	65.4
629.523	65.38
629.714	65.04
629.905	65.57
630.096	66.09
630.287	66.33
630.478	66.73
630.669	67.79
630.859	67.46
631.05	69.56
631.241	69.51
631.432	69.42
631.623	69.92
631.813	69.79
632.004	70.71
632.195	70.59
632.385	69.57
632.576	69.96
632.767	70.06
632.957	70.4
633.148	69.06
633.339	69.01
633.529	68.1
633.72	68.44
633.91	68.34
634.101	68.3
634.292	68.53
634.482	68.68
634.673	68.83
634.863	69.21
635.054	69.06
635.244	69.56
635.435	69.73
635.625	70.61
635.815	70.44
636.006	70.63
636.196	70.85
636.387	70.32
636.577	70.89
636.767	71.19
636.958	69.59
637.148	71.09
637.338	70.21
637.529	70.51
637.719	71.85
637.909	72.16
638.099	73.13
638.29	73.03
638.48	73.18
638.67	73.3
638.86	73.49
639.05	74.27
639.241	73.36
639.431	74.74
639.621	74.12
639.811	73.96
640.001	74.4
640.191	72.94
640.381	72.44
640.571	72.2
640.761	73.22
640.951	72.99
641.141	73.37
641.331	73.85
641.521	73.44
641.711	74.08
641.901	72.81
642.091	73.99
642.281	75.51
642.471	75.29
642.661	75.7
642.851	75.22
643.041	76.34
643.231	76.2
643.42	75.73
643.61	75.83
643.8	76.46
643.99	76.28
644.18	75.43
644.369	73.88
644.559	73.89
644.749	73.64
644.939	71.66
645.128	70.63
645.318	71.26
645.508	70.26
645.697	69.93
645.887	69.5
646.076	70.66
646.266	70.27
646.456	71.61
646.645	72.18
646.835	71.93
647.024	72.41
647.214	72.22
647.403	71.26
647.593	71.66
647.782	71.17
647.972	70.51
648.161	69.71
648.351	69.05
648.54	69.31
648.73	67.02
648.919	67.91
649.108	67.06
649.298	67.01
649.487	69.05
649.677	69.95
649.866	70.23
650.055	70
650.244	70.62
650.434	71.09
650.623	69.82
650.812	71.07
651.002	71.38
651.191	72.95
651.38	72.58
651.569	71.45
651.758	71.51
651.947	71.44
652.137	72.31
652.326	71.74
652.515	71.09
652.704	72.42
652.893	72.79
653.082	72.4
653.271	72.39
653.46	72.89
653.649	72.15
653.838	70.72
654.027	70.59
654.216	69.42
654.405	69.09
654.594	70.46
654.783	68.14
654.972	68.17
655.161	68.11
655.35	67.46
655.539	67.31
655.728	68.1
655.916	68.36
656.105	68.05
656.294	69.26
656.483	70.09
656.672	69.5
656.86	70.44
657.049	69.98
657.238	69.22
657.427	69.49
657.615	69.54
657.804	68.92
657.993	69.04
658.181	69.49
658.37	68.41
658.559	67.15
658.747	67.33
658.936	67.64
659.125	69.01
659.313	69.66
659.502	69.84
659.69	68.88
659.879	69.26
660.067	69.16
660.256	68.67
660.444	69.4
660.633	70.42
660.821	70.29
661.01	70.61
661.198	70.26
661.387	71.66
661.575	72.49
661.763	75.13
661.952	76.01
662.14	77.81
662.328	78.96
662.517	80.64
662.705	80.16
662.893	80.01
663.082	79.83
663.27	80.94
663.458	80.06
663.646	79.54
663.834	79.2
664.023	79.33
664.211	78.5
664.399	80.1
664.587	80.16
664.775	82.21
664.963	82.84
665.152	84.09
665.34	81.76
665.528	81.9
665.716	82.19
665.904	81.34
666.092	80.9
666.28	80.76
666.468	78.32
666.656	78.42
666.844	77.45
667.032	76.62
667.22	75.3
667.408	76.22
667.596	76.74
667.784	77.07
667.971	77.6
668.159	77.48
668.347	77.74
668.535	79.72
668.723	79.31
668.911	79.97
669.098	81.24
669.286	81.72
669.474	81.43
669.662	80.53
669.849	80.96
670.037	80.85
670.225	81.45
670.413	82.3
670.6	81.51
670.788	81.56
670.976	82.82
671.163	82.4
671.351	81.91
671.538	82.4
671.726	82.38
671.913	81.73
672.101	80.41
672.289	80.77
672.476	79.34
672.664	79.64
672.851	79.99
673.039	77.93
673.226	78.76
673.413	80.82
673.601	81.5
673.788	81.87
673.976	82.22
674.163	82.5
674.35	82.28
674.538	83.31
674.725	84.16
674.912	82.93
675.1	84.23
675.287	81.33
675.474	80.67
675.662	78.27
675.849	79.12
676.036	78.98
676.223	80.21
676.411	79.19
676.598	79.3
676.785	78.46
676.972	78.85
677.159	76.31
677.346	77.57
677.533	76.26
677.721	76.58
677.908	74.88
678.095	73.93
678.282	72.57
678.469	72.02
678.656	71.28
678.843	70.72
679.03	69.09
679.217	70.31
679.404	70.21
679.591	70.11
679.778	70.63
679.964	69.89
680.151	70.31
680.338	70
680.525	70.92
680.712	70.09
680.899	70.72
681.086	71.93
681.272	71.19
681.459	70.48
681.646	71.63
681.833	71.45
682.02	72.7
682.206	72.47
682.393	73.17
682.58	72.95
682.766	74.53
682.953	75.06
683.14	76.43
683.326	76.88
683.513	78.79
683.7	78.11
683.886	77.35
684.073	76.15
684.259	75.27
684.446	74.91
684.632	74.05
684.819	73.47
685.005	72.6
685.192	71.88
685.378	71.46
685.565	71.14
685.751	70.61
685.938	71.41
686.124	72.69
686.31	73.13
686.497	74.6
686.683	75.57
686.87	74.71
687.056	74.65
687.242	74.61
687.429	75.76
687.615	74.87
687.801	74.75
687.987	74.32
688.174	73.05
688.36	74.7
688.546	72.6
688.732	72.99
688.918	74.79
689.105	73.99
689.291	73.98
689.477	74.8
689.663	75.42
689.849	75.44
690.035	77.57
690.221	77.65
690.407	77.21
690.593	78.86
690.779	79
690.965	77.39
691.151	79.03
691.337	79.52
691.523	77.81
691.709	77.61
691.895	77.43
692.081	77.54
692.267	77.74
692.453	78.09
692.639	78.55
692.825	76.56
693.011	75.8
693.196	74.74
693.382	74.03
693.568	75.39
693.754	75.17
693.94	75.4
694.125	74.75
694.311	75.62
694.497	75.02
694.682	71.8
694.868	72.35
695.054	75.12
695.239	75.97
695.425	75.1
695.611	74.18
695.796	73.16
695.982	73.15
696.168	71.32
696.353	70.63
696.539	68.77
696.724	70.25
696.91	69.11
697.095	66.66
697.281	64.62
697.466	64.34
697.652	63.26
697.837	63.91
698.023	62.9
698.208	64.51
698.393	65.84
698.579	66.84
698.764	67.06
698.949	67.27
699.135	68.95
699.32	69.15
699.505	71.28
699.691	72.52
699.876	73.81
700.061	76.58
700.246	75.83
700.432	73.76
700.617	73.86
700.802	74.7
700.987	77.72
701.172	80.44
701.358	82.65
701.543	82.07
701.728	84.2
701.913	85.4
702.098	86.02
702.283	86.52
702.468	89.08
702.653	89.8
702.838	89.57
703.023	89.36
703.208	84.55
703.393	85.09
703.578	85.49
703.763	86.34
703.948	84.87
704.133	83.09
704.318	86.32
704.503	86.13
704.688	88.04
704.873	89.23
705.057	88.3
705.242	91.42
705.427	91.87
705.612	92.69
705.797	91.92
705.981	92.53
706.166	93.65
706.351	90.42
706.536	88.8
706.72	86.45
706.905	85.94
707.09	85.76
707.274	86.1
707.459	85.7
707.644	84.3
707.828	83.24
708.013	81.12
708.197	81.35
708.382	82.28
708.567	82.42
708.751	83.25
708.936	82.52
709.12	82.83
709.305	81.19
709.489	81.16
709.673	82.23
709.858	82.67
710.042	83.39
710.227	84.24
710.411	82.99
710.596	82.77
710.78	81.73
710.964	84.75
711.149	84.52
711.333	86.31
711.517	84.71
711.702	84.6
711.886	84.79
712.07	83.68
712.254	82.82
712.438	81.24
712.623	83.77
712.807	84.29
712.991	80.14
713.175	79.24
713.359	78.06
713.544	80.86
713.728	79.18
713.912	78.94
714.096	79.5
714.28	76.71
714.464	77.79
714.648	72.99
714.832	70.02
715.016	68.2
715.2	67.77
715.384	64.73
715.568	60.53
715.752	58.88
715.936	56.32
716.12	56.18
716.304	58.38
716.488	58.37
716.671	60.21
716.855	62.47
717.039	63.81
717.223	62.52
717.407	65.97
717.59	65.7
717.774	67.91
717.958	69.78
718.142	68.92
718.325	66.84
718.509	66.43
718.693	66.32
718.877	65.3
719.06	66.14
719.244	69.01
719.428	70.19
719.611	73.55
719.795	75.04
719.978	75.99
720.162	78.19
720.345	80.54
720.529	79.47
720.713	80.38
720.896	82.84
721.08	86.82
721.263	85.46
721.446	84.29
721.63	82.71
721.813	80.51
721.997	80.82
722.18	77.91
722.364	76.7
722.547	76.74
722.73	76.5
722.914	73.78
723.097	70.36
723.28	72.9
723.464	73.38
723.647	74.08
723.83	72.02
724.013	72.36
724.197	72.72
724.38	71.75
724.563	73.85
724.746	72.45
724.929	72.44
725.112	73.25
725.296	72.25
725.479	69.26
725.662	71.24
725.845	72.63
726.028	71.46
726.211	74.16
726.394	75.32
726.577	73.14
726.76	75.06
726.943	77.42
727.126	76.77
727.309	72.22
727.492	76.36
727.675	75.99
727.858	76.44
728.041	74.94
728.224	72.68
728.407	72.31
728.589	74.27
728.772	73.75
728.955	75.05
729.138	75.46
729.321	79.05
729.503	76.11
729.686	74.73
729.869	74.08
730.052	71.56
730.234	73.63
730.417	72.51
730.6	75.56
730.782	79.15
730.965	76.84
731.148	77.72
731.33	79.04
731.513	81.43
731.695	82.53
731.878	84.2
732.061	86.51
732.243	88.83
732.426	90.47
732.608	90.34
732.791	86.63
732.973	88.02
733.156	90.44
733.338	88.65
733.52	88.21
733.703	90.48
733.885	89.23
734.068	93.94
734.25	90.29
734.432	92.86
734.615	93.2
734.797	95.91
734.979	96.91
735.162	95.61
735.344	99.31
735.526	99.75
735.708	96.1
735.891	101.18
736.073	98.58
736.255	100.29
736.437	99.94
736.619	99.82
736.802	99.9
736.984	97.82
737.166	98.21
737.348	97.1
737.53	97.54
737.712	99.27
737.894	96.18
738.076	96.58
738.258	96.31
738.44	96.45
738.622	98.82
738.804	99.57
738.986	103.13
739.168	103.94
739.35	107.37
739.532	109.71
739.714	111.31
739.896	113.34
740.078	115
740.259	114.82
740.441	115.77
740.623	110.23
740.805	109.46
740.987	112.35
741.168	112.69
741.35	111.63
741.532	112.42
741.714	113.84
741.895	115.75
742.077	120.98
742.259	129.29
742.44	132.49
742.622	145.9
742.804	148.64
742.985	138.83
743.167	143.78
743.348	139.97
743.53	136.76
743.711	140
743.893	144.61
744.075	137.76
744.256	130.09
744.438	128.43
744.619	129.14
744.8	131.22
744.982	137.68
745.163	137.54
745.345	147.35
745.526	147.98
745.707	141.4
745.889	134.33
746.07	137.12
746.252	139.56
746.433	140.46
746.614	126.9
746.795	122.54
746.977	124.38
747.158	119.63
747.339	114.55
747.52	117.38
747.702	120.63
747.883	126.08
748.064	125.66
748.245	125.75
748.426	120.74
748.607	120.66
748.788	122.42
748.97	119.56
749.151	117.81
749.332	117.15
749.513	115.05
749.694	113.23
749.875	113.13
750.056	111.99
750.237	115.2
750.418	120.29
750.599	120.51
750.78	118.8
750.96	121.62
751.141	128.25
751.322	125.69
751.503	128.15
751.684	131.6
751.865	132.54
752.046	129.1
752.226	126.57
752.407	124.08
752.588	127.86
752.769	129.18
752.949	132.49
753.13	129.71
753.311	131.34
753.492	135.51
753.672	134.88
753.853	135.16
754.034	143.78
754.214	140.31
754.395	139.96
754.575	143.1
754.756	144.05
754.937	139.9
755.117	134.86
755.298	135.41
755.478	129.45
755.659	126.96
755.839	124.53
756.02	120.15
756.2	124.38
756.381	121.91
756.561	118.37
756.741	118.27
756.922	108.87
757.102	111.13
757.283	108.27
757.463	105.67
757.643	102.82
757.823	95.57
758.004	94.02
758.184	85.54
758.364	84.22
758.545	76.89
758.725	72.26
758.905	78.23
759.085	77.56
759.265	77.93
759.446	77.95
759.626	75.14
759.806	73.2
759.986	73.75
760.166	76.36
760.346	77.16
760.526	75.3
760.706	75.43
760.886	70.72
761.066	67.26
761.246	67.11
761.426	63.26
761.606	63.38
761.786	65.48
761.966	62.27
762.146	62.01
762.326	62.73
762.506	66.49
762.686	69.53
762.866	69.75
763.046	72.78
763.225	72.63
763.405	74.81
763.585	78.03
763.765	80.69
763.945	83.15
764.124	86.96
764.304	89.59
764.484	94.28
764.664	95.48
764.843	96.78
765.023	99.37
765.203	102.53
765.382	107.53
765.562	111.19
765.741	114.11
765.921	116.72
766.101	120.28
766.28	121.95
766.46	123.78
766.639	127.01
766.819	132.22
766.998	134.25
767.178	132.2
767.357	130.44
767.537	131.11
767.716	132.57
767.896	135.84
768.075	132.41
768.254	130.96
768.434	129.28
768.613	126.39
768.792	129.92
768.972	130.55
769.151	135.47
769.33	138.54
769.51	134.92
769.689	136.69
769.868	139.64
770.047	134.31
770.226	136.5
770.406	133.95
770.585	139.85
770.764	135.61
770.943	136.95
771.122	139.56
771.301	137.69
771.48	146.72
771.66	150.56
771.839	150.63
772.018	162.4
772.197	165.13
772.376	170.27
772.555	170.88
772.734	177.4
772.913	165.98
773.092	172.62
773.271	173.59
773.449	159.98
773.628	155.56
773.807	156.02
773.986	150.6
774.165	150.38
774.344	145.76
774.523	140.13
774.701	141.26
774.88	141.51
775.059	141.26
775.238	144.25
775.417	145.8
775.595	148.24
775.774	145.53
775.953	157.85
776.131	148.55
776.31	154.51
776.489	163.85
776.667	160.77
776.846	172.46
777.025	170.38
777.203	176.8
777.382	183.4
777.56	188.88
777.739	190.62
777.917	180.65
778.096	191.28
778.274	184.19
778.453	173.07
778.631	171.79
778.81	165.34
778.988	168.15
779.166	163.59
779.345	162.05
779.523	162.2
779.702	162.38
779.88	166.1
780.058	163.49
780.237	164.73
780.415	157.97
780.593	164.82
780.771	173.68
780.95	169.14
781.128	175.93
781.306	183.82
781.484	174.74
781.662	177.45
781.841	169.14
782.019	158.72
782.197	157.91
782.375	165.88
782.553	161.43
782.731	160.17
782.909	163.29
783.087	160.27
783.265	155.16
783.443	156.87
783.621	149.84
783.799	152.46
783.977	165.28
784.155	169.49
784.333	175.15
784.511	183.35
784.689	175.62
784.867	173.41
785.045	170.21
785.223	156.89
785.4	151.41
785.578	154.93
785.756	150.14
785.934	146.01
786.112	138.03
786.289	131
786.467	121.27
786.645	120.41
786.823	112.85
787	111.1
787.178	113.51
787.356	108.36
787.533	110.69
787.711	109.84
787.889	109.97
788.066	107.84
788.244	111.93
788.421	120.78
788.599	125.32
788.776	133.2
788.954	139.49
789.131	153.77
789.309	158.62
789.486	157.54
789.664	156.55
789.841	156.23
790.019	160.5
790.196	162.49
790.373	162.39
790.551	161.36
790.728	165.11
790.906	165.09
791.083	170.06
791.26	173.68
791.437	164.1
791.615	166.61
791.792	171
791.969	185.88
792.146	187.16
792.324	175.37
792.501	167.49
792.678	167.14
792.855	173.71
793.032	145.01
793.209	142.26
793.387	154.41
793.564	144.83
793.741	138.29
793.918	128
794.095	120.05
794.272	120.03
794.449	116.17
794.626	110.54
794.803	104.89
794.98	116.23
795.157	110.98
795.334	101.49
795.511	108.44
795.688	101.18
795.864	103.25
796.041	106.21
796.218	100.92
796.395	108.02
796.572	114.24
796.749	112.75
796.925	106.49
797.102	112.04
797.279	119.73
797.456	122.63
797.632	128.38
797.809	124.83
797.986	111.33
798.162	111.93
798.339	109.67
798.516	102.09
798.692	100.55
798.869	104.13
799.046	102.41
799.222	100.14
799.399	100.88
799.575	105.32
799.752	112.3
799.928	118.43
800.105	126.42
800.281	123.03
800.458	134.71
800.634	124.7
800.811	136.92
800.987	136.63
801.163	142.29
801.34	135.71
801.516	134.55
801.692	130.91
801.869	148.91
802.045	151.33
802.221	165.84
802.398	160.15
802.574	167.35
802.75	150.99
802.926	136.35
803.103	130.64
803.279	142.67
803.455	142.26
803.631	133.08
803.807	122.55
803.983	108.04
804.16	100.05
804.336	100.47
804.512	107.7
804.688	115.63
804.864	118.17
805.04	120.62
805.216	111.32
805.392	109.83
805.568	119.07
805.744	117.6
805.92	121.51
806.096	135.33
806.272	144.07
806.448	157.18
806.623	156.2
806.799	193.38
806.975	193.89
807.151	182.52
807.327	182.28
807.503	173.75
807.678	172.05
807.854	169
808.03	156.17
808.206	159.86
808.381	126.51
808.557	118.01
808.733	105.09
808.908	105.95
809.084	109.03
809.26	112.47
809.435	110.31
809.611	117.95
809.787	116.22
809.962	123.87
810.138	105.06
810.313	124.59
810.489	130.45
810.664	120.8
810.84	129.74
811.015	129.42
811.191	128.71
811.366	127.13
811.542	110.31
811.717	111.34
811.892	101.33
812.068	98.62
812.243	99.45
812.419	106.16
812.594	111.52
812.769	95.02
812.944	103.63
813.12	94
813.295	89.11
813.47	95.29
813.645	86.33
813.821	68.91
813.996	71.45
814.171	72.79
814.346	66.81
814.521	71.55
814.697	80.5
814.872	82.63
815.047	86.47
815.222	89.05
815.397	93.21
815.572	97.73
815.747	105.89
815.922	124.43
816.097	133.75
816.272	120.37
816.447	111.5
816.622	94.18
816.797	87.46
816.972	72.51
817.147	75.48
817.322	84.43
817.496	83.84
817.671	90.94
817.846	78.66
818.021	77.65
818.196	85.68
818.371	83.4
818.545	97.99
818.72	100.6
818.895	107.57
819.069	94.58
819.244	88.62
819.419	83.55
819.594	78.33
819.768	72.58
819.943	66.02
820.117	60.65
820.292	58.64
820.467	54.53
820.641	50.83
820.816	47.82
820.99	48.05
821.165	46.53
821.339	47.14
821.514	47.81
821.688	47.92
821.863	46.99
822.037	47.15
822.212	48.43
822.386	50.58
822.56	53.59
822.735	57.7
822.909	59.75
823.084	62.6
823.258	64.11
823.432	67.12
823.606	66.23
823.781	69.39
823.955	68.7
824.129	72.87
824.303	76.37
824.478	78.44
824.652	73.73
824.826	71.92
825	71.11
825.174	69.95
825.348	66.29
825.523	68.15
825.697	70.35
825.871	71.18
826.045	67.11
826.219	67.92
826.393	63.8
826.567	62.16
826.741	62.31
826.915	63.42
827.089	63.54
827.263	66.12
827.437	68.29
827.611	63.88
827.784	65.66
827.958	65.32
828.132	58.93
828.306	68.07
828.48	77.25
828.654	85.82
828.827	82.47
829.001	83.11
829.175	75.02
829.349	71.18
829.522	84
829.696	91.3
829.87	100.84
830.044	97.78
830.217	88.35
830.391	80.46
830.565	83.92
830.738	96.91
830.912	87.36
831.085	94.58
831.259	99.02
831.432	82.16
831.606	78.8
831.779	84.62
831.953	83.12
832.126	80.48
832.3	82.66
832.473	79.12
832.647	74.93
832.82	80.28
832.994	77.21
833.167	76.69
833.34	83.55
833.514	84.06
833.687	87.19
833.86	95.82
834.034	98.62
834.207	113.24
834.38	106.26
834.553	109.49
834.727	113.5
834.9	117.42
835.073	117.8
835.246	131.13
835.419	155.54
835.593	149.88
835.766	170.65
835.939	181.22
836.112	159.69
836.285	199.04
836.458	265.97
836.631	247.2
836.804	252.75
836.977	213.88
837.15	190.16
837.323	152.16
837.496	139.49
837.669	124.57
837.842	119.7
838.015	121.44
838.188	119.35
838.361	116.29
838.533	124.55
838.706	119.23
838.879	121.24
839.052	123.04
839.225	120.84
839.398	122.85
839.57	133.87
839.743	147.93
839.916	148.19
840.088	140.32
840.261	143.78
840.434	136.17
840.607	146.22
840.779	157.4
840.952	148.23
841.124	163.98
841.297	174.52
841.47	141.3
841.642	130.47
841.815	129.38
841.987	146.48
842.16	170.02
842.332	258.04
842.505	207.26
842.677	191.7
842.85	163.07
843.022	160.86
843.194	125.69
843.367	136.26
843.539	199.4
843.712	183.17
843.884	150.32
844.056	132.47
844.229	109.81
844.401	112.82
844.573	125.13
844.745	143.08
844.918	153.77
845.09	182.72
845.262	193.65
845.434	163.01
845.606	206.95
845.779	307.38
845.951	307.2
846.123	335.73
846.295	305.93
846.467	305.04
846.639	358.04
846.811	262.24
846.983	394.68
847.155	723.94
847.327	-5900
847.499	498.4
847.671	423.18
847.843	671.26
848.015	397.28
848.187	538.71
848.359	-452.86
848.531	-620.31
848.703	-259.06
848.875	451.7
849.047	455.26
849.218	381.07
849.39	256.34
849.562	217.78
849.734	372.39
849.905	393.7
850.077	516.98
850.249	304.79
850.421	237.74
850.592	205.32
850.764	218.44
850.936	211.79
851.107	207.38
851.279	215.26
851.451	206.14
851.622	168.03
851.794	163.66
851.965	146.91
852.137	156.14
852.308	142.99
852.48	171.49
852.651	189.23
852.823	140.52
852.994	132.48
853.166	143.84
853.337	140.42
853.509	127.36
853.68	124.25
853.851	135.14
854.023	137.3
854.194	127.56
854.365	93.62
854.537	86.75
854.708	81.55
854.879	94
855.05	109.03
855.222	125.23
855.393	209.12
855.564	211.69
855.735	177.8
855.906	171.66
856.078	206.15
856.249	279.08
856.42	266.2
856.591	392.88
856.762	315.7
856.933	280.66
857.104	272.16
857.275	189.86
857.446	201.61
857.617	210.22
857.788	210.41
857.959	210.92
858.13	208.98
858.301	216.08
858.472	167.79
858.643	159.3
858.814	139.45
858.985	129.51
859.155	289.32
859.326	387.25
859.497	2357.58
859.668	-602.02
859.839	-482.79
860.009	-408.06
860.18	-1152.63
860.351	-475.57
860.522	-414.53
860.692	-2310
860.863	875
861.034	168.1
861.204	125.04
861.375	121.88
861.546	133.63
861.716	137.02
861.887	147.27
862.057	138.62
862.228	151.46
862.398	200.93
862.569	209.94
862.739	243.07
862.91	381.02
863.08	682.42
863.251	573.8
863.421	294.56
863.592	312.44
863.762	269.85
863.932	285.06
864.103	261.26
864.273	229.04
864.443	227.11
864.614	194.61
864.784	159.17
864.954	145.37
865.125	156.81
865.295	182.51
865.465	180.75
865.635	208.62
865.805	218.17
865.976	307.6
866.146	347.81
866.316	333.25
866.486	507.17
866.656	623.89
866.826	722.81
866.996	328.86
867.166	297.45
867.336	316.08
867.506	328.69
867.676	403.17
867.846	415.23
868.016	299.65
868.186	386.21
868.356	263.01
868.526	201.99
868.696	219.39
868.866	297.49
869.036	446.85
869.206	401.49
869.376	394.83
869.545	227.93
869.715	176.18
869.885	245.45
870.055	213.87
870.224	307.27
870.394	264.94
870.564	1079.07
870.734	-1925.64
870.903	496.09
871.073	807.22
871.243	1021.92
871.412	4047.62
871.582	-1562.96
871.751	-1117.91
871.921	-221.05
872.091	-200.35
872.26	-94.47
872.43	-148.32
872.599	-246.75
872.769	-653.33
872.938	-1219.3
873.108	1868.42
873.277	1157.81
873.446	1010.14
873.616	486.11
873.785	184.92
873.955	137.5
874.124	104.94
874.293	92.28
874.463	135.22
874.632	122.52
874.801	108.12
874.971	52.7
875.14	34.03
875.309	63.32
875.478	-31.58
875.647	-3.21
875.817	-15.23
875.986	-17.7
876.155	-11.72
876.324	39.02
876.493	38.61
876.662	-206.86
876.831	6333.33
877	-435.4
877.17	-1948
877.339	479.85
877.508	666.67
877.677	274.43
877.846	272.32
878.015	554.55
878.184	408.79
878.352	827.36
878.521	-1797.37
878.69	-167.84
878.859	903.33
879.028	414.06
879.197	187.16
879.366	149.21
879.534	88.8
879.703	65.7
879.872	52.74
880.041	51.69
880.21	54.18
880.378	50.29
880.547	54.23
880.716	54.12
880.884	55.93
881.053	57.35
881.222	57.41
881.39	56.66
881.559	59.02
881.727	66.25
881.896	55.83
882.065	57.62
882.233	68.55
882.402	67.37
882.57	66.85
882.739	67.14
882.907	71.84
883.076	70.55
883.244	73.5
883.412	59.95
883.581	59.08
883.749	63.45
883.918	62.05
884.086	53.82
884.254	64.01
884.423	70.78
884.591	65.97
884.759	56.48
884.927	53.29
885.096	61.32
885.264	67.93
885.432	53.05
885.6	78.12
885.769	96.31
885.937	79.45
886.105	41.24
886.273	55.78
886.441	102.12
886.609	41.94
886.777	94
886.945	7.85
887.113	16.19
887.281	98.4
887.449	39.67
887.617	5.74
887.785	36.02
887.953	94.1
888.121	58.71
888.289	57.7
888.457	134.25
888.625	182.51
888.793	125.41
888.961	217.11
889.129	152.33
889.296	523.33
889.464	-11025
889.632	-235.14
889.8	-267.11
889.967	-128.46
890.135	-129.47
