Data from JASIL_3200_Reflection_01.txt Node
Date: Fri Nov 13 14:29:10 EST 2015
User: Geneva
Spectrometer: USB4E03002
Autoset integration time: false
Trigger mode: 4
Integration Time (sec): 1.000000E-1
Scans to average: 10
Electric dark correction enabled: false
Nonlinearity correction enabled: false
Boxcar width: 5
Stray light correction enabled: false
XAxis mode: Wavelengths
Stop averaging: false
Number of Pixels in Spectrum: 3648
>>>>>Begin Spectral Data<<<<<
177.575	56.99
177.794	60.33
178.014	70.84
178.233	71.82
178.452	75.59
178.672	77.61
178.891	83.92
179.11	91.23
179.33	97.68
179.549	97.08
179.768	98.6
179.987	98.36
180.207	98.87
180.426	95.47
180.645	93.48
180.864	95.41
181.084	92.46
181.303	93.25
181.522	90.04
181.741	84.01
181.96	87.71
182.179	90.7
182.398	92.29
182.618	95.85
182.837	93.15
183.056	99.67
183.275	97.14
183.494	98.27
183.713	97.22
183.932	101.94
184.151	106.54
184.37	107.91
184.589	106.66
184.808	105.74
185.027	104.37
185.246	106.68
185.465	103.48
185.684	103.78
185.903	102.89
186.122	100.75
186.341	93.38
186.56	92.69
186.779	91.16
186.998	88.55
187.216	89.08
187.435	86.08
187.654	86.73
187.873	87.22
188.092	84.86
188.311	85.1
188.53	81.45
188.748	79.79
188.967	79.25
189.186	77.13
189.405	79.27
189.623	80.79
189.842	81.42
190.061	79.37
190.28	79.3
190.498	81.5
190.717	84.81
190.936	90.67
191.154	93.67
191.373	94.87
191.592	97.36
191.81	94.17
192.029	90.81
192.248	87.68
192.466	89.36
192.685	91.34
192.904	93.48
193.122	93.01
193.341	89.94
193.559	91.96
193.778	97.48
193.996	95.73
194.215	98.54
194.433	97.52
194.652	100
194.87	95.71
195.089	89.82
195.307	87.91
195.526	89.03
195.744	93.74
195.963	90.75
196.181	85.88
196.399	90.29
196.618	92.01
196.836	90.42
197.055	87.62
197.273	91.4
197.491	92.23
197.71	92.22
197.928	93.46
198.146	87.28
198.365	91.15
198.583	93.16
198.801	84.83
199.019	81.78
199.238	90.82
199.456	95.11
199.674	91.4
199.892	93.06
200.111	95.14
200.329	92.25
200.547	93.3
200.765	91.67
200.983	89.25
201.202	94.11
201.42	99.92
201.638	91.01
201.856	88.19
202.074	90.72
202.292	90.91
202.51	85.12
202.728	82.17
202.946	84.88
203.165	84.01
203.383	81.59
203.601	82.46
203.819	79.35
204.037	79.01
204.255	81.55
204.473	82.17
204.691	82.43
204.909	88.41
205.127	90.87
205.345	88.1
205.562	89.95
205.78	90.75
205.998	99.84
206.216	105.92
206.434	98.75
206.652	97
206.87	92.05
207.088	90.64
207.306	86.48
207.523	83.94
207.741	86.59
207.959	86.09
208.177	85.77
208.395	81.7
208.612	78.95
208.83	81.24
209.048	84.85
209.266	93.07
209.483	94.02
209.701	96.7
209.919	96.95
210.136	100.37
210.354	101.14
210.572	105.72
210.79	106.88
211.007	110.5
211.225	116.27
211.442	119.85
211.66	110
211.878	107.71
212.095	71.47
212.313	74.96
212.53	73.44
212.748	73
212.966	71.63
213.183	72.17
213.401	71.93
213.618	73.68
213.836	72.23
214.053	75.82
214.271	77.3
214.488	112.31
214.705	112.43
214.923	108.46
215.14	111.06
215.358	111.63
215.575	106.03
215.793	108.17
216.01	108.11
216.227	104.31
216.445	98.4
216.662	97.56
216.879	93.58
217.097	92.88
217.314	103.96
217.531	105.72
217.749	102.51
217.966	97.89
218.183	96.86
218.4	94.42
218.618	94.66
218.835	97.04
219.052	93.57
219.269	99.71
219.487	91.75
219.704	84.39
219.921	81.37
220.138	84.39
220.355	85.89
220.572	84.75
220.79	84.07
221.007	85.93
221.224	88.9
221.441	91.31
221.658	87.42
221.875	94.26
222.092	97.53
222.309	94.23
222.526	99.22
222.743	105.46
222.96	102.98
223.177	100.38
223.394	97.1
223.611	97.01
223.828	93.9
224.045	93.89
224.262	89.55
224.479	83.95
224.696	87.38
224.913	81.25
225.13	75.92
225.347	75.42
225.564	75.66
225.781	77.26
225.997	74.58
226.214	75.46
226.431	76.51
226.648	73.51
226.865	77.05
227.082	74.69
227.298	72.87
227.515	72.41
227.732	68.43
227.949	69.94
228.165	67.34
228.382	66.95
228.599	64.37
228.816	61.9
229.032	57.85
229.249	54.02
229.466	54.32
229.682	52.96
229.899	53.71
230.116	57.15
230.332	55.83
230.549	57.41
230.765	55.89
230.982	60.05
231.199	58.43
231.415	60.2
231.632	62.44
231.848	60.89
232.065	62.52
232.281	62.85
232.498	60.13
232.714	61.97
232.931	59.76
233.147	59.16
233.364	58.09
233.58	62.95
233.797	67.02
234.013	66.86
234.23	73.47
234.446	74.56
234.662	76.45
234.879	82.23
235.095	78.09
235.312	78.68
235.528	81.22
235.744	80.91
235.961	76.46
236.177	79.58
236.393	81.75
236.61	78.07
236.826	75.32
237.042	75.78
237.258	74.36
237.475	77.6
237.691	78.32
237.907	78.12
238.123	77.76
238.339	82.2
238.556	79.18
238.772	74.26
238.988	72.65
239.204	77.51
239.42	74.32
239.636	72.7
239.853	70.9
240.069	67.83
240.285	64.31
240.501	62.2
240.717	60.07
240.933	60.29
241.149	60.25
241.365	56.92
241.581	53.58
241.797	53.55
242.013	52.34
242.229	53.6
242.445	57.12
242.661	59.81
242.877	60.91
243.093	62.19
243.309	62.24
243.525	61.97
243.741	62.74
243.957	60.28
244.173	60.23
244.388	56.83
244.604	52.14
244.82	48.43
245.036	45.51
245.252	45.31
245.468	41.18
245.683	39.48
245.899	36.86
246.115	36.45
246.331	35.72
246.547	33.98
246.762	34.03
246.978	34.6
247.194	33.36
247.409	35.57
247.625	35.67
247.841	35.6
248.057	36.75
248.272	37.41
248.488	39.45
248.703	42.21
248.919	45.22
249.135	46.66
249.35	47.79
249.566	49.8
249.782	48.69
249.997	49.13
250.213	52.29
250.428	52.77
250.644	55.08
250.859	52.49
251.075	50.54
251.29	49.47
251.506	52.29
251.721	51.67
251.937	51.24
252.152	51.98
252.368	53.23
252.583	53.73
252.798	55.54
253.014	54.9
253.229	55.89
253.445	60.91
253.66	61.29
253.875	59.26
254.091	61.86
254.306	65.02
254.521	67.61
254.737	64.01
254.952	61.1
255.167	59.57
255.383	61.04
255.598	61.97
255.813	57.16
256.028	57
256.244	57.14
256.459	55.25
256.674	54.82
256.889	49.56
257.104	47.92
257.32	47.83
257.535	43.79
257.75	40.53
257.965	40.21
258.18	38.49
258.395	37.21
258.61	35.4
258.826	33.65
259.041	31.28
259.256	28.78
259.471	30.02
259.686	29.33
259.901	32.1
260.116	32.17
260.331	31.85
260.546	33.16
260.761	33.75
260.976	35.93
261.191	37.32
261.406	39.57
261.621	43.69
261.836	44.29
262.05	44.94
262.265	43.71
262.48	45.18
262.695	44.78
262.91	46.59
263.125	49.75
263.34	50.85
263.555	51.8
263.769	52.02
263.984	51.19
264.199	49.14
264.414	50.02
264.629	48.18
264.843	48.53
265.058	49.84
265.273	45.51
265.488	43.72
265.702	41.82
265.917	41.79
266.132	42.96
266.346	43.04
266.561	44.3
266.776	44.4
266.99	46.22
267.205	45.29
267.42	43.37
267.634	44.87
267.849	43.54
268.063	41.4
268.278	41.07
268.492	39.51
268.707	39.62
268.922	39.58
269.136	39.01
269.351	38.93
269.565	39.98
269.78	38.62
269.994	39.87
270.209	39.82
270.423	40.81
270.637	39.22
270.852	38.05
271.066	38.27
271.281	38.57
271.495	37.82
271.709	37
271.924	36.68
272.138	38.7
272.353	37.27
272.567	37.99
272.781	38.59
272.996	39.84
273.21	40.71
273.424	41.1
273.638	38.9
273.853	38.13
274.067	38.29
274.281	36.75
274.495	38.43
274.71	39.86
274.924	39.54
275.138	41.04
275.352	42.02
275.566	40.84
275.781	40.56
275.995	43.35
276.209	46.37
276.423	47.16
276.637	48.63
276.851	46.9
277.065	47.19
277.279	46.23
277.493	45.07
277.707	45.21
277.921	46.16
278.135	45.28
278.349	43.53
278.563	41.69
278.777	41.99
278.991	40.8
279.205	40.99
279.419	40.28
279.633	38.86
279.847	36.5
280.061	34.84
280.275	35.73
280.489	36.26
280.703	34.65
280.917	34.92
281.131	33.68
281.344	33.18
281.558	32.42
281.772	30.94
281.986	32.08
282.2	33.34
282.414	33.16
282.627	31.85
282.841	32.02
283.055	31.25
283.269	29.26
283.482	29.18
283.696	29.1
283.91	29.19
284.123	28.45
284.337	28.16
284.551	27.66
284.764	29.22
284.978	28.75
285.192	28.74
285.405	30.22
285.619	30.97
285.833	31.65
286.046	31.65
286.26	30.56
286.473	32.1
286.687	33.52
286.9	34.02
287.114	32.41
287.327	33.11
287.541	33.08
287.754	32.9
287.968	35.66
288.181	33.44
288.395	33.92
288.608	34.5
288.822	33.75
289.035	32.64
289.248	32.68
289.462	33.42
289.675	32.39
289.889	32.73
290.102	33.14
290.315	31.61
290.529	31.76
290.742	31.82
290.955	33.14
291.169	34.16
291.382	34.34
291.595	34.76
291.808	35.65
292.022	35.12
292.235	34.32
292.448	34.33
292.661	33.81
292.875	35.56
293.088	35.91
293.301	35.2
293.514	33.85
293.727	34.24
293.94	33.4
294.153	32.72
294.367	33.09
294.58	32.53
294.793	32.46
295.006	32.38
295.219	31.13
295.432	30.95
295.645	30.06
295.858	29.71
296.071	27.88
296.284	27.32
296.497	27.12
296.71	26.55
296.923	27.24
297.136	25.84
297.349	25.17
297.562	25.82
297.775	25.8
297.988	27.47
298.201	28.63
298.414	29.99
298.626	31.37
298.839	30.8
299.052	31.97
299.265	33.08
299.478	35.59
299.691	35.57
299.903	34.83
300.116	34.35
300.329	32.75
300.542	31.37
300.755	31.5
300.967	30.93
301.18	31.53
301.393	31.84
301.605	30.01
301.818	28.49
302.031	29.22
302.243	30.3
302.456	30.98
302.669	30.78
302.881	33.15
303.094	32.98
303.307	33.96
303.519	34.63
303.732	34.76
303.944	36.25
304.157	37.7
304.37	36.95
304.582	37.52
304.795	36.76
305.007	37.32
305.22	36.55
305.432	37.16
305.645	35.07
305.857	36.11
306.069	36.97
306.282	35.75
306.494	35.32
306.707	37.27
306.919	36.42
307.132	36.92
307.344	36.9
307.556	35.89
307.769	36.08
307.981	36.26
308.193	34.71
308.406	33.14
308.618	33.26
308.83	32.23
309.043	31.74
309.255	31.32
309.467	30.61
309.679	30.76
309.892	31.29
310.104	30.93
310.316	32.81
310.528	33.02
310.74	33.56
310.953	34.57
311.165	35.95
311.377	34.67
311.589	35.27
311.801	35.16
312.013	37.05
312.225	35.97
312.437	35.74
312.649	36.02
312.862	35.26
313.074	35.92
313.286	34.03
313.498	34.08
313.71	35.72
313.922	36.24
314.134	38.31
314.346	36.21
314.558	38.54
314.77	40.71
314.982	38.94
315.193	39.61
315.405	39.31
315.617	39.37
315.829	38.59
316.041	36.79
316.253	35.63
316.465	35.06
316.677	34.92
316.888	34.64
317.1	33.52
317.312	34.07
317.524	34.3
317.736	35.69
317.947	38.27
318.159	38.09
318.371	38.66
318.583	39.36
318.794	39.66
319.006	40.57
319.218	40.97
319.43	41.69
319.641	42.63
319.853	42.36
320.064	40.21
320.276	39.6
320.488	40.93
320.699	42.32
320.911	42.09
321.123	42.09
321.334	40.78
321.546	39.12
321.757	38.15
321.969	38.62
322.18	39.42
322.392	39.53
322.603	38.21
322.815	37.86
323.026	38.54
323.238	37.85
323.449	37.72
323.661	37.01
323.872	38.06
324.083	36.92
324.295	34.77
324.506	34.31
324.718	35.48
324.929	35.32
325.14	34.31
325.352	33.28
325.563	33.65
325.774	34.18
325.986	36.26
326.197	36.15
326.408	37.35
326.62	38.83
326.831	38.29
327.042	37.57
327.253	39.31
327.464	40.54
327.676	41.53
327.887	42.86
328.098	41.7
328.309	38.56
328.52	39.51
328.732	38.79
328.943	38.69
329.154	39.41
329.365	39.34
329.576	36.99
329.787	37.72
329.998	38.39
330.209	38.85
330.42	39.95
330.631	43.21
330.842	41.14
331.053	41.26
331.264	39.97
331.475	40.39
331.686	40.24
331.897	41.02
332.108	37.81
332.319	36.43
332.53	33.9
332.741	33.95
332.952	33.07
333.163	33.21
333.374	32.53
333.585	33.76
333.795	35.21
334.006	36.3
334.217	35.72
334.428	37.74
334.639	37.97
334.849	38.14
335.06	38.35
335.271	39.01
335.482	40.96
335.692	41.75
335.903	41.5
336.114	40.11
336.325	40.14
336.535	41.14
336.746	40.48
336.957	40.58
337.167	41.55
337.378	40.56
337.589	40.32
337.799	39.21
338.01	40.44
338.22	39.91
338.431	39.25
338.642	37.94
338.852	38.08
339.063	38.66
339.273	39.08
339.484	38.88
339.694	38.64
339.905	38.11
340.115	38.31
340.326	38.06
340.536	39.21
340.746	39.38
340.957	39.7
341.167	39.25
341.378	37.86
341.588	38.01
341.799	38.39
342.009	38.87
342.219	39.11
342.43	39.74
342.64	38.81
342.85	39.28
343.061	40.14
343.271	41.02
343.481	40.45
343.691	41.08
343.902	39.73
344.112	39.51
344.322	39.05
344.532	38.22
344.743	37.49
344.953	37.16
345.163	36.16
345.373	35.58
345.583	35.28
345.793	35.87
346.004	36.52
346.214	36.18
346.424	36.25
346.634	37.75
346.844	37.86
347.054	38.05
347.264	39.47
347.474	39.19
347.684	39.07
347.894	38.18
348.104	37.91
348.314	37.2
348.524	37.49
348.734	37.29
348.944	35.21
349.154	35.34
349.364	33.81
349.574	31.96
349.784	32.62
349.994	32.69
350.204	34.06
350.413	34.54
350.623	33.92
350.833	33.95
351.043	32.66
351.253	32.71
351.463	34.01
351.672	35.57
351.882	36.32
352.092	34.68
352.302	35.02
352.511	34.21
352.721	34.16
352.931	34.24
353.141	33.81
353.35	34.36
353.56	35.25
353.77	35.82
353.979	34.8
354.189	34.75
354.399	36.65
354.608	37.25
354.818	37.52
355.027	37.37
355.237	37.12
355.447	38.03
355.656	37.63
355.866	36.55
356.075	34.69
356.285	34.81
356.494	35.2
356.704	34.92
356.913	33.61
357.123	32.63
357.332	31.87
357.542	33.03
357.751	32.05
357.96	32.25
358.17	31.91
358.379	32.14
358.589	32.78
358.798	31.05
359.007	30.58
359.217	30.72
359.426	30.79
359.635	30.25
359.845	29.43
360.054	29.27
360.263	28.77
360.472	29.14
360.682	28.88
360.891	28.05
361.1	28.33
361.309	28.04
361.519	27.17
361.728	27.02
361.937	27.53
362.146	27.27
362.355	28.15
362.564	28.71
362.774	29.58
362.983	29.46
363.192	29.44
363.401	31.06
363.61	30.33
363.819	32.18
364.028	31.92
364.237	31.82
364.446	32.24
364.655	31.55
364.864	31.74
365.073	31.45
365.282	32.03
365.491	31.89
365.7	31.21
365.909	31.27
366.118	30.75
366.327	31.46
366.536	31.9
366.745	32.78
366.954	33.43
367.162	33.74
367.371	33.92
367.58	34.28
367.789	34.64
367.998	34.71
368.207	34.95
368.415	34.2
368.624	33.85
368.833	33.84
369.042	33.64
369.25	33.83
369.459	33.51
369.668	32.89
369.877	32.07
370.085	31.67
370.294	31.13
370.503	31.69
370.711	32.2
370.92	32.62
371.129	32.35
371.337	31.11
371.546	29.58
371.754	29.39
371.963	29.81
372.171	29.91
372.38	30
372.589	29.6
372.797	29.53
373.006	29.98
373.214	29.71
373.423	29.4
373.631	30.8
373.84	32.11
374.048	33.01
374.256	32.75
374.465	33.39
374.673	33.22
374.882	33.78
375.09	32.69
375.298	32.23
375.507	32.21
375.715	32.65
375.923	31.09
376.132	30.64
376.34	29.54
376.548	29.64
376.757	28.97
376.965	29.3
377.173	28.96
377.381	30.44
377.59	30.04
377.798	30.39
378.006	30.65
378.214	31.14
378.423	30.79
378.631	31.33
378.839	30.92
379.047	31.24
379.255	30.67
379.463	30.47
379.671	30.62
379.879	30.54
380.088	29.25
380.296	29
380.504	29.88
380.712	30.28
380.92	29.43
381.128	29.22
381.336	28.53
381.544	28.54
381.752	29.03
381.96	28.41
382.168	29.23
382.376	29.66
382.584	28.5
382.791	27.29
382.999	26.59
383.207	26.64
383.415	26.78
383.623	27.74
383.831	28.74
384.039	28.83
384.247	28.2
384.454	28.31
384.662	28.56
384.87	28.84
385.078	29.32
385.285	28.73
385.493	28.47
385.701	29.99
385.909	28.89
386.116	28.59
386.324	28.38
386.532	28.33
386.739	27.71
386.947	27.89
387.155	29.2
387.362	29.74
387.57	31.27
387.778	31.46
387.985	29.06
388.193	29.43
388.4	29.32
388.608	29.22
388.816	29.25
389.023	29.15
389.231	28.21
389.438	27.35
389.646	26.99
389.853	25.49
390.061	25.13
390.268	25.56
390.475	26.04
390.683	25.97
390.89	25.39
391.098	25.2
391.305	25.96
391.512	27.01
391.72	27.05
391.927	26.4
392.135	27.04
392.342	27.49
392.549	29.08
392.756	28.9
392.964	28.37
393.171	29.3
393.378	29.25
393.586	28.01
393.793	27.44
394	27.12
394.207	28.14
394.414	28.94
394.622	29.56
394.829	28.94
395.036	28.11
395.243	29.03
395.45	28.54
395.657	29.29
395.864	29.91
396.072	30.72
396.279	30.92
396.486	30.33
396.693	29.65
396.9	29.05
397.107	28.03
397.314	29.25
397.521	29.01
397.728	27.64
397.935	27.19
398.142	26.62
398.349	25.89
398.556	25.78
398.763	25.73
398.97	26
399.177	25.89
399.383	26.16
399.59	25.34
399.797	25.14
400.004	26.79
400.211	26.95
400.418	26.92
400.625	27.75
400.831	28.23
401.038	28.08
401.245	27.62
401.452	27.33
401.658	27.16
401.865	26.83
402.072	26.59
402.279	26.04
402.485	24.88
402.692	25.54
402.899	25.25
403.105	23.82
403.312	24.04
403.519	24.02
403.725	23.97
403.932	23.91
404.138	23.95
404.345	24.08
404.552	24.53
404.758	25.52
404.965	25.14
405.171	24.59
405.378	25.77
405.584	25.69
405.791	25.31
405.997	26.27
406.204	26.63
406.41	26.07
406.617	25.82
406.823	25.14
407.029	25.75
407.236	25.46
407.442	26.02
407.649	26.48
407.855	26.69
408.061	26.71
408.268	26.23
408.474	26.79
408.68	28.15
408.887	28.29
409.093	29.05
409.299	28.36
409.505	28.55
409.712	28.68
409.918	27.87
410.124	27.51
410.33	27.56
410.537	27.18
410.743	27.47
410.949	27.57
411.155	27.24
411.361	27.12
411.567	27.01
411.773	26.37
411.98	25.84
412.186	26.05
412.392	26.41
412.598	27.4
412.804	27.88
413.01	26.85
413.216	27.07
413.422	27.88
413.628	26.69
413.834	26.53
414.04	27.82
414.246	27.33
414.452	27.42
414.658	27.4
414.864	27.04
415.07	27.61
415.275	27.65
415.481	27.21
415.687	26.07
415.893	26.6
416.099	26.2
416.305	25.22
416.511	25.08
416.716	24.19
416.922	24.13
417.128	23.36
417.334	22.33
417.539	22.42
417.745	21.92
417.951	21.8
418.157	21.6
418.362	21.42
418.568	21.16
418.774	21.12
418.979	21.49
419.185	21.09
419.391	21.3
419.596	21.45
419.802	21.2
420.008	20.74
420.213	16.07
420.419	16.21
420.624	16.28
420.83	16.8
421.035	16.93
421.241	17.35
421.446	17.59
421.652	17.63
421.857	17.43
422.063	17.47
422.268	17.76
422.474	22.31
422.679	22.39
422.885	22.85
423.09	22.21
423.295	21.91
423.501	21.55
423.706	21.18
423.911	20.69
424.117	20.5
424.322	20.59
424.527	20.94
424.733	21.39
424.938	21.03
425.143	20.87
425.349	21.07
425.554	21.49
425.759	21.38
425.964	21.6
426.169	22.2
426.375	22.83
426.58	23.34
426.785	23.05
426.99	23.38
427.195	24.09
427.4	23.95
427.605	24.15
427.811	24.85
428.016	24.6
428.221	25.23
428.426	24.89
428.631	24.92
428.836	24.29
429.041	24.47
429.246	23.9
429.451	23.86
429.656	24.23
429.861	24.52
430.066	24.26
430.271	24.7
430.476	23.81
430.681	24.31
430.886	24.34
431.09	23.75
431.295	24.05
431.5	23.96
431.705	23.63
431.91	23.08
432.115	23.01
432.32	22.28
432.524	22.22
432.729	22.42
432.934	22.4
433.139	21.78
433.343	21.91
433.548	21.68
433.753	21.76
433.958	21.77
434.162	21.86
434.367	21.89
434.572	22.14
434.776	22.17
434.981	21.83
435.186	21.99
435.39	22.39
435.595	22.84
435.799	22.71
436.004	22.69
436.209	22.73
436.413	22.93
436.618	22.71
436.822	22.83
437.027	22.35
437.231	22.79
437.436	21.98
437.64	21.79
437.845	21.49
438.049	21.68
438.253	21.8
438.458	21.57
438.662	21.03
438.867	20.54
439.071	20.32
439.275	19.94
439.48	19.69
439.684	19.82
439.888	19.99
440.093	19.94
440.297	19.69
440.501	19.33
440.706	19.23
440.91	19.55
441.114	19.89
441.318	19.78
441.523	20.45
441.727	20.37
441.931	20.25
442.135	20.02
442.339	20.64
442.543	20.87
442.748	21.02
442.952	20.77
443.156	20.76
443.36	20.92
443.564	20.94
443.768	20.79
443.972	21.16
444.176	21.35
444.38	21.28
444.584	20.88
444.788	20.29
444.992	20.29
445.196	20.61
445.4	20.44
445.604	20.09
445.808	20.19
446.012	20.21
446.216	19.37
446.42	19.2
446.624	18.99
446.828	19.17
447.032	19.15
447.235	18.88
447.439	18.46
447.643	18.49
447.847	18.52
448.051	18.56
448.254	18.59
448.458	19.57
448.662	19.73
448.866	19.79
449.069	19.48
449.273	20.11
449.477	20.36
449.681	20.96
449.884	21.25
450.088	21.63
450.292	21.5
450.495	21.15
450.699	20.82
450.902	21.1
451.106	21.42
451.31	21.54
451.513	20.99
451.717	20.9
451.92	20.33
452.124	19.96
452.327	20.26
452.531	20.04
452.734	20.6
452.938	20.71
453.141	20.64
453.345	20.9
453.548	20.67
453.752	20.9
453.955	21.37
454.158	22.06
454.362	22.15
454.565	21.54
454.769	22.22
454.972	22.13
455.175	22.19
455.379	22.57
455.582	21.93
455.785	21.57
455.988	21.98
456.192	21.71
456.395	20.91
456.598	21.27
456.801	21.19
457.005	20.39
457.208	20.27
457.411	19.62
457.614	18.43
457.817	18.87
458.021	18.98
458.224	18.6
458.427	18.42
458.63	19.14
458.833	18.67
459.036	18.71
459.239	19.27
459.442	18.74
459.645	19.13
459.848	19.54
460.051	19.81
460.254	20.06
460.457	20.15
460.66	20.39
460.863	19.87
461.066	20.22
461.269	20.17
461.472	19.67
461.675	20.08
461.878	19.92
462.081	20.13
462.284	19.58
462.486	19.13
462.689	18.87
462.892	19.01
463.095	19.44
463.298	19.45
463.5	20.22
463.703	20.37
463.906	20.54
464.109	20.78
464.311	20.98
464.514	21.17
464.717	21.66
464.92	21.87
465.122	21.58
465.325	21.51
465.528	21.73
465.73	21.59
465.933	21.72
466.135	21.3
466.338	21.16
466.541	21.23
466.743	21.43
466.946	21.88
467.148	21.94
467.351	22.11
467.553	22.05
467.756	22.07
467.958	21.33
468.161	21.27
468.363	21.37
468.566	21.24
468.768	21.17
468.971	21.59
469.173	21.23
469.375	21.11
469.578	21.39
469.78	21.46
469.983	21.4
470.185	22.23
470.387	22.28
470.59	22.88
470.792	22.85
470.994	22.58
471.196	22.34
471.399	22.19
471.601	22.48
471.803	21.71
472.005	21.54
472.208	20.92
472.41	20.88
472.612	20.68
472.814	19.95
473.016	21
473.218	21.18
473.421	20.37
473.623	20.24
473.825	20.2
474.027	20.27
474.229	19.91
474.431	20.57
474.633	20.19
474.835	20.87
475.037	21.07
475.239	20.5
475.441	20.57
475.643	20.88
475.845	20.63
476.047	20.33
476.249	20.53
476.451	20.89
476.653	20.7
476.855	20.79
477.057	20.42
477.258	20.9
477.46	20.86
477.662	20.79
477.864	21
478.066	21.21
478.268	21.18
478.469	21.35
478.671	21.03
478.873	21.05
479.075	20.76
479.276	20.13
479.478	19.51
479.68	18.79
479.882	18.37
480.083	17.72
480.285	17.53
480.487	17.45
480.688	17.15
480.89	17.11
481.091	16.68
481.293	16.53
481.495	16.27
481.696	16.15
481.898	15.96
482.099	15.78
482.301	15.76
482.502	15.6
482.704	15.35
482.905	15.17
483.107	15.04
483.308	14.84
483.51	14.68
483.711	14.69
483.913	14.67
484.114	14.68
484.315	14.61
484.517	14.54
484.718	14.59
484.92	14.62
485.121	14.64
485.322	14.53
485.524	14.8
485.725	15.04
485.926	15.02
486.127	15.05
486.329	15.15
486.53	15.03
486.731	15.2
486.932	15.08
487.134	15.03
487.335	15.26
487.536	15.53
487.737	15.66
487.938	15.66
488.139	15.85
488.341	15.92
488.542	15.96
488.743	16.37
488.944	16.38
489.145	16.76
489.346	17.07
489.547	17
489.748	16.85
489.949	16.68
490.15	16.76
490.351	16.52
490.552	16.47
490.753	16.54
490.954	16.52
491.155	16.56
491.356	16.3
491.557	16.21
491.758	16.17
491.959	16.38
492.159	16.36
492.36	16.55
492.561	16.75
492.762	17.09
492.963	17.42
493.164	17.59
493.364	17.7
493.565	18.11
493.766	18.73
493.967	19.01
494.167	19.07
494.368	19.68
494.569	19.2
494.769	19.6
494.97	19.37
495.171	19.29
495.371	19.1
495.572	18.82
495.773	18.45
495.973	18.04
496.174	18.02
496.375	18.05
496.575	17.82
496.776	18.18
496.976	18.15
497.177	18.28
497.377	17.76
497.578	17.88
497.778	18.02
497.979	18.56
498.179	18.26
498.38	17.92
498.58	17.8
498.78	17.86
498.981	18.18
499.181	18.41
499.382	18.54
499.582	19.04
499.782	19.41
499.983	19.56
500.183	19.47
500.383	19.82
500.584	20.27
500.784	20.31
500.984	20.56
501.184	20.11
501.385	19.98
501.585	19.74
501.785	20.01
501.985	19.64
502.185	19.75
502.386	19.78
502.586	19.68
502.786	19.83
502.986	20.03
503.186	19.53
503.386	19.61
503.586	19.42
503.786	19.41
503.987	18.75
504.187	18.65
504.387	18.74
504.587	18.67
504.787	19.06
504.987	19.28
505.187	19.15
505.387	19.42
505.587	19.21
505.786	19.42
505.986	19.51
506.186	19.58
506.386	20.02
506.586	20.09
506.786	19.98
506.986	20.14
507.186	19.71
507.386	19.83
507.585	19.55
507.785	19.97
507.985	19.97
508.185	19.98
508.384	20.39
508.584	19.79
508.784	19.73
508.984	19.67
509.183	18.95
509.383	19.17
509.583	19.4
509.782	19.33
509.982	18.77
510.182	18.45
510.381	18.31
510.581	18.14
510.781	18.56
510.98	18.35
511.18	18.7
511.379	19.06
511.579	18.58
511.778	18.31
511.978	18.37
512.177	18.4
512.377	18.36
512.576	18.45
512.776	18.6
512.975	18.63
513.175	18.68
513.374	18.6
513.573	18.7
513.773	19.31
513.972	19.17
514.172	19.47
514.371	19.74
514.57	20.1
514.77	20.55
514.969	20.1
515.168	20.42
515.367	20.39
515.567	20.23
515.766	20.08
515.965	19.77
516.164	20.09
516.364	19.91
516.563	19.86
516.762	19.76
516.961	19.53
517.16	19.14
517.359	18.65
517.559	18.97
517.758	18.68
517.957	18.77
518.156	18.91
518.355	18.59
518.554	18.87
518.753	18.81
518.952	18.91
519.151	18.91
519.35	19.65
519.549	19.93
519.748	19.66
519.947	20.08
520.146	20.08
520.345	20.05
520.544	20.64
520.743	20.7
520.942	20.78
521.141	20.59
521.339	20.7
521.538	20.54
521.737	20
521.936	20
522.135	19.64
522.333	19.75
522.532	19.83
522.731	19.11
522.93	18.66
523.129	18.73
523.327	19.07
523.526	18.88
523.725	18.85
523.923	19.1
524.122	19.16
524.321	19.25
524.519	19.43
524.718	19.24
524.917	19.57
525.115	19.7
525.314	19.62
525.512	19.26
525.711	18.93
525.909	18.66
526.108	18.55
526.306	18.5
526.505	18.53
526.703	18.2
526.902	18
527.1	17.73
527.299	17.57
527.497	17.55
527.696	17.33
527.894	17.47
528.092	17.56
528.291	17.51
528.489	17.45
528.688	17.39
528.886	17.34
529.084	17.6
529.283	17.68
529.481	17.79
529.679	17.77
529.877	18.16
530.076	17.99
530.274	18.02
530.472	18.14
530.67	18.16
530.869	18.2
531.067	18.59
531.265	18.55
531.463	18.8
531.661	18.48
531.859	18.37
532.057	18.2
532.255	18.5
532.454	18.77
532.652	18.99
532.85	19.12
533.048	19.09
533.246	18.85
533.444	18.92
533.642	18.66
533.84	19.19
534.038	19.44
534.236	19.74
534.434	20.16
534.632	20.28
534.83	20.36
535.027	20.28
535.225	20.48
535.423	20.64
535.621	20.79
535.819	20.93
536.017	20.8
536.215	20.91
536.412	20.85
536.61	20.66
536.808	20.72
537.006	20.72
537.203	20.97
537.401	21.04
537.599	21.19
537.797	21.24
537.994	21.6
538.192	21.75
538.39	21.75
538.587	21.78
538.785	21.67
538.983	21.57
539.18	21.52
539.378	21.54
539.575	21.64
539.773	21.49
539.97	21.28
540.168	21.19
540.366	21.15
540.563	20.98
540.761	20.87
540.958	20.96
541.155	20.88
541.353	21.02
541.55	21.03
541.748	21.16
541.945	21.03
542.143	21.14
542.34	21.33
542.537	21.6
542.735	21.92
542.932	22.36
543.129	22.7
543.327	23.27
543.524	23.29
543.721	23.57
543.919	23.54
544.116	24.25
544.313	24.54
544.51	24.65
544.708	24.4
544.905	24.38
545.102	24.71
545.299	24.24
545.496	24.01
545.693	24.09
545.891	24.17
546.088	24.54
546.285	24.49
546.482	24.6
546.679	24.73
546.876	25.22
547.073	26.09
547.27	26.31
547.467	27.05
547.664	27.16
547.861	27.67
548.058	27.84
548.255	27.81
548.452	28.5
548.649	28.93
548.846	29.33
549.043	29.39
549.24	28.91
549.437	28.84
549.633	28.84
549.83	29.22
550.027	29.46
550.224	29.91
550.421	29.87
550.618	29.59
550.814	29.29
551.011	29.13
551.208	29.18
551.405	29.52
551.601	29.53
551.798	29.37
551.995	29.1
552.191	28.92
552.388	28.79
552.585	28.97
552.781	29.32
552.978	29.84
553.175	29.91
553.371	29.88
553.568	29.66
553.764	29.73
553.961	29.77
554.157	30.09
554.354	30.08
554.55	30.21
554.747	30.4
554.943	30.06
555.14	29.77
555.336	30.38
555.533	30.72
555.729	31.32
555.926	31.72
556.122	31.79
556.318	31.53
556.515	32.28
556.711	32.89
556.907	32.99
557.104	33.65
557.3	33.54
557.496	33.3
557.693	33.2
557.889	33.03
558.085	32.99
558.281	33.72
558.478	34.43
558.674	33.37
558.87	32.93
559.066	32.65
559.262	32.58
559.459	32.82
559.655	32.6
559.851	32.77
560.047	33.09
560.243	33.16
560.439	32.99
560.635	33.04
560.831	34.04
561.027	33.7
561.223	34.03
561.419	34.23
561.615	33.99
561.811	34.6
562.007	34.91
562.203	34.52
562.399	34.53
562.595	34.56
562.791	34.86
562.987	34.65
563.183	34.8
563.379	35.07
563.575	34.82
563.771	35.44
563.966	34.96
564.162	34.9
564.358	35.16
564.554	35.47
564.75	35.05
564.945	34.99
565.141	34.86
565.337	35.22
565.533	34.91
565.728	34.87
565.924	34.73
566.12	35.18
566.315	35.22
566.511	35.05
566.707	34.77
566.902	34.91
567.098	35.14
567.293	35.45
567.489	35.82
567.684	36.26
567.88	36.42
568.076	36.43
568.271	36.23
568.467	36.7
568.662	36.91
568.858	37.08
569.053	37.51
569.248	37.13
569.444	36.89
569.639	36.23
569.835	36.2
570.03	35.76
570.225	35.81
570.421	35.82
570.616	35.57
570.812	35.65
571.007	35.63
571.202	35.04
571.397	35.1
571.593	35.31
571.788	35.24
571.983	34.92
572.178	35.7
572.374	36
572.569	36.08
572.764	36.29
572.959	36.62
573.154	36.57
573.35	37.35
573.545	38.17
573.74	38.05
573.935	38.64
574.13	39
574.325	38.85
574.52	38.53
574.715	39.25
574.91	38.95
575.105	38.54
575.3	38.96
575.495	38.88
575.69	38.44
575.885	39.16
576.08	39.31
576.275	39.8
576.47	40.45
576.665	41.23
576.86	41.09
577.055	41.22
577.25	41.72
577.444	41.96
577.639	43.01
577.834	43.1
578.029	43.29
578.224	43.44
578.418	43.65
578.613	42.7
578.808	42.62
579.003	42.67
579.197	42.9
579.392	43.26
579.587	43.26
579.781	42.88
579.976	43.22
580.171	43.24
580.365	43.53
580.56	42.98
580.755	43.5
580.949	43.56
581.144	43.61
581.338	44.18
581.533	43.6
581.727	43.48
581.922	43.66
582.116	44.65
582.311	44.43
582.505	44.05
582.7	44.49
582.894	44.83
583.089	44.52
583.283	45.19
583.478	45.13
583.672	45.99
583.866	46.15
584.061	46.37
584.255	45.51
584.449	46.33
584.644	46.65
584.838	46.82
585.032	47.2
585.226	47.87
585.421	47.76
585.615	47.95
585.809	48.34
586.003	48.5
586.198	48.08
586.392	48.08
586.586	47.6
586.78	47.83
586.974	48.72
587.168	48.52
587.363	48.62
587.557	48.49
587.751	48.41
587.945	47.48
588.139	47.15
588.333	47.4
588.527	47.91
588.721	47.26
588.915	47.16
589.109	46.37
589.303	46.54
589.497	46.64
589.691	46.46
589.885	46.15
590.079	46.67
590.273	47.11
590.466	47.09
590.66	46.66
590.854	48.01
591.048	48.33
591.242	48.7
591.436	48.6
591.629	48.66
591.823	48.91
592.017	48.97
592.211	49.34
592.404	49.09
592.598	48.93
592.792	48.7
592.986	47.24
593.179	46.63
593.373	46.27
593.567	46.62
593.76	46.14
593.954	45.92
594.147	46.16
594.341	46.14
594.535	46.55
594.728	46.91
594.922	46.86
595.115	47.78
595.309	47.78
595.502	48.14
595.696	47.1
595.889	47.11
596.083	47.09
596.276	47.15
596.47	46.71
596.663	46.88
596.856	46.63
597.05	47.03
597.243	47.39
597.437	47.65
597.63	47.97
597.823	49.16
598.017	49.55
598.21	49.82
598.403	50.38
598.596	51.56
598.79	51.83
598.983	52.79
599.176	53.05
599.369	52.75
599.563	53.05
599.756	53.09
599.949	53.17
600.142	53.39
600.335	53.62
600.528	52.43
600.722	51.89
600.915	51.71
601.108	51.49
601.301	52.12
601.494	51.89
601.687	51.52
601.88	51.02
602.073	50.82
602.266	50.12
602.459	49.83
602.652	50.22
602.845	49.89
603.038	49.45
603.231	49.3
603.424	48.22
603.617	47.96
603.809	48.14
604.002	47.7
604.195	47.42
604.388	48.05
604.581	48.27
604.774	49.16
604.966	49.07
605.159	49
605.352	48.8
605.545	49.42
605.737	50.48
605.93	50.89
606.123	51.19
606.316	51.81
606.508	51.71
606.701	52
606.894	51.03
607.086	51.93
607.279	52.4
607.471	52.95
607.664	53.05
607.857	52.08
608.049	51.91
608.242	52.23
608.434	51.9
608.627	51.79
608.819	51.28
609.012	51.48
609.204	50.94
609.397	50.57
609.589	49.91
609.782	49.7
609.974	50.71
610.166	51.53
610.359	51.7
610.551	52.46
610.743	52.53
610.936	52.94
611.128	53.48
611.32	54.51
611.513	56.02
611.705	56.84
611.897	57.52
612.09	56.9
612.282	56.9
612.474	57.17
612.666	56.6
612.858	57.13
613.051	57.93
613.243	57.83
613.435	57.41
613.627	55.9
613.819	55.92
614.011	55.73
614.203	56.1
614.395	55.99
614.588	56.38
614.78	56.39
614.972	56.92
615.164	56.11
615.356	56.85
615.548	57.14
615.74	58.54
615.932	58.55
616.124	58.31
616.315	59.31
616.507	59.06
616.699	58.81
616.891	59.02
617.083	58.93
617.275	59.48
617.467	59.09
617.659	58.98
617.85	58.94
618.042	58.24
618.234	58.47
618.426	57.75
618.618	57.55
618.809	57.33
619.001	57.03
619.193	56.49
619.384	56.3
619.576	56.7
619.768	56.35
619.959	56.32
620.151	56.94
620.343	57.87
620.534	57.75
620.726	57.78
620.917	58.34
621.109	58.24
621.301	58.42
621.492	58.31
621.684	58.5
621.875	59.44
622.067	59.27
622.258	59.41
622.45	58.99
622.641	59.34
622.832	60.49
623.024	61.09
623.215	62.12
623.407	62.26
623.598	62.55
623.789	61.73
623.981	60.71
624.172	60.7
624.363	60.62
624.555	60.18
624.746	58.85
624.937	58.08
625.129	57.21
625.32	56.87
625.511	57.04
625.702	57.33
625.893	57.4
626.085	57.22
626.276	56.96
626.467	56.96
626.658	57.17
626.849	58.51
627.04	58.98
627.231	59.25
627.422	59.87
627.614	60.16
627.805	60.87
627.996	61.35
628.187	61.42
628.378	61.72
628.569	62.65
628.76	62.51
628.951	62.38
629.142	61.4
629.332	62.15
629.523	62.07
629.714	61.25
629.905	60.73
630.096	60.82
630.287	61.45
630.478	61.49
630.669	61.12
630.859	61.77
631.05	61.97
631.241	62.17
631.432	61.64
631.623	62.09
631.813	62.17
632.004	62.76
632.195	61.95
632.385	62.1
632.576	62.46
632.767	61.77
632.957	61.44
633.148	60.43
633.339	60.74
633.529	60.94
633.72	60.9
633.91	61.21
634.101	60.22
634.292	60.53
634.482	60.22
634.673	60.38
634.863	61.4
635.054	61.45
635.244	62.48
635.435	62.49
635.625	62.05
635.815	61.44
636.006	62.15
636.196	63.21
636.387	63.77
636.577	64.03
636.767	64.02
636.958	64.1
637.148	64.88
637.338	64.68
637.529	65.51
637.719	66.82
637.909	67.14
638.099	67.32
638.29	67.29
638.48	67.66
638.67	67.88
638.86	68.01
639.05	67.23
639.241	67.53
639.431	67.73
639.621	67.9
639.811	67.06
640.001	68.19
640.191	68.57
640.381	68.52
640.571	68.99
640.761	69.22
640.951	70.34
641.141	71.87
641.331	71.78
641.521	71.63
641.711	71.86
641.901	72.27
642.091	71.57
642.281	71.3
642.471	71.86
642.661	71.82
642.851	71.68
643.041	70.84
643.231	70.71
643.42	71.19
643.61	72.75
643.8	71.91
643.99	71.93
644.18	71.68
644.369	71.53
644.559	71.07
644.749	71
644.939	71.35
645.128	70.99
645.318	70.52
645.508	69.51
645.697	68.01
645.887	68.85
646.076	68.72
646.266	68.73
646.456	68.32
646.645	68.13
646.835	68.22
647.024	67.48
647.214	67.88
647.403	67.51
647.593	68.53
647.782	68.77
647.972	68.03
648.161	68.49
648.351	68.55
648.54	69.51
648.73	68.28
648.919	68.3
649.108	69.63
649.298	68.75
649.487	68.43
649.677	68.28
649.866	68.99
650.055	68.88
650.244	67.98
650.434	68.61
650.623	69.22
650.812	71.32
651.002	70.93
651.191	70.59
651.38	71.65
651.569	72.57
651.758	71.94
651.947	71.72
652.137	71.7
652.326	72.86
652.515	72.43
652.704	71.33
652.893	70.54
653.082	71.72
653.271	71.55
653.46	70.96
653.649	70.95
653.838	71.2
654.027	71.7
654.216	72.8
654.405	73.62
654.594	72.64
654.783	72.48
654.972	72.81
655.161	72.22
655.35	73.17
655.539	74.3
655.728	74.47
655.916	74.84
656.105	74.19
656.294	73.62
656.483	72.67
656.672	73.55
656.86	73.17
657.049	72.71
657.238	71.48
657.427	70.82
657.615	69.45
657.804	68.23
657.993	67.44
658.181	67.65
658.37	67.48
658.559	66.44
658.747	66.37
658.936	66.55
659.125	66.27
659.313	67.03
659.502	67.08
659.69	66.86
659.879	67.37
660.067	68.2
660.256	68.39
660.444	68.38
660.633	69.74
660.821	70.71
661.01	71.79
661.198	72.19
661.387	72.23
661.575	72.62
661.763	73.63
661.952	74.77
662.14	75.57
662.328	75.53
662.517	76.09
662.705	76.82
662.893	76.88
663.082	76.39
663.27	77.6
663.458	78.1
663.646	77.68
663.834	77.57
664.023	77.9
664.211	77.08
664.399	77.44
664.587	78.2
664.775	76.89
664.963	76.62
665.152	76.83
665.34	76.32
665.528	77.87
665.716	78.83
665.904	79.3
666.092	77.79
666.28	77.88
666.468	77.14
666.656	76.84
666.844	76.92
667.032	76.67
667.22	76.67
667.408	77.46
667.596	75.68
667.784	74.56
667.971	74.87
668.159	76.21
668.347	76.95
668.535	77.52
668.723	78
668.911	79.66
669.098	79.96
669.286	80.21
669.474	80.34
669.662	81.22
669.849	81.55
670.037	81.85
670.225	81.57
670.413	81.11
670.6	81.49
670.788	80.6
670.976	79.84
671.163	80.35
671.351	80.39
671.538	79.57
671.726	78.66
671.913	79.93
672.101	79.34
672.289	80.16
672.476	81.05
672.664	80.72
672.851	82.39
673.039	83.19
673.226	84.11
673.413	83.6
673.601	82.85
673.788	83.09
673.976	82.19
674.163	83.16
674.35	81.74
674.538	80.81
674.725	81.29
674.912	79.31
675.1	77.91
675.287	76.91
675.474	77.57
675.662	78.35
675.849	78.7
676.036	78.28
676.223	77.92
676.411	79.2
676.598	79.84
676.785	79.4
676.972	79.85
677.159	80.72
677.346	80.68
677.533	80.08
677.721	78.91
677.908	78.36
678.095	79.25
678.282	78.75
678.469	77.51
678.656	76.67
678.843	76.3
679.03	75.34
679.217	74.69
679.404	74.36
679.591	74.97
679.778	76.32
679.964	77.07
680.151	75.91
680.338	76.46
680.525	76.94
680.712	77.01
680.899	78.09
681.086	79.16
681.272	79.86
681.459	80.11
681.646	80
681.833	80.65
682.02	80.73
682.206	82.26
682.393	81.9
682.58	82.13
682.766	83.62
682.953	83.73
683.14	84.93
683.326	85.18
683.513	85.36
683.7	85.19
683.886	83.46
684.073	84.15
684.259	82.98
684.446	83.5
684.632	82.72
684.819	81.38
685.005	80.07
685.192	79.6
685.378	79.14
685.565	79.76
685.751	80.66
685.938	81.3
686.124	79.89
686.31	81.07
686.497	80.24
686.683	82
686.87	82.09
687.056	82.45
687.242	81.54
687.429	82.23
687.615	81.11
687.801	80.92
687.987	80.87
688.174	80.52
688.36	79.91
688.546	80.34
688.732	79.02
688.918	80.54
689.105	80.85
689.291	82.92
689.477	82.39
689.663	82.87
689.849	81.49
690.035	81.23
690.221	82.33
690.407	81.77
690.593	82.18
690.779	82.23
690.965	81.21
691.151	81.4
691.337	80.52
691.523	80.47
691.709	80.74
691.895	81.8
692.081	83.4
692.267	83.37
692.453	84.53
692.639	84.71
692.825	85.95
693.011	85.2
693.196	84.55
693.382	83.52
693.568	83.86
693.754	82.07
693.94	81.62
694.125	80.69
694.311	81.41
694.497	81.38
694.682	82.01
694.868	81.57
695.054	82.21
695.239	81.85
695.425	82.86
695.611	83.28
695.796	82.83
695.982	83.27
696.168	81.81
696.353	80.82
696.539	80.6
696.724	79.36
696.91	79.14
697.095	78.47
697.281	78.16
697.466	77.24
697.652	76.43
697.837	77.36
698.023	77.05
698.208	77.89
698.393	77.11
698.579	76.25
698.764	76.71
698.949	76.15
699.135	75.96
699.32	76.24
699.505	76.44
699.691	77.48
699.876	77.67
700.061	78.77
700.246	78.12
700.432	79.17
700.617	79.63
700.802	79.65
700.987	81.64
701.172	85.67
701.358	87.83
701.543	88.98
701.728	90.1
701.913	90.53
702.098	90.52
702.283	92.24
702.468	91.7
702.653	93.62
702.838	93.19
703.023	94.57
703.208	91.72
703.393	91.42
703.578	91.69
703.763	90.09
703.948	91.29
704.133	91.88
704.318	91.61
704.503	92.03
704.688	92.24
704.873	94.01
705.057	92.35
705.242	92.56
705.427	92.67
705.612	91.79
705.797	93.54
705.981	93.54
706.166	92.77
706.351	92.37
706.536	94.28
706.72	93.92
706.905	93.52
707.09	94.11
707.274	93.63
707.459	92.25
707.644	93.32
707.828	91.4
708.013	90.93
708.197	89.9
708.382	90.16
708.567	89.22
708.751	89.02
708.936	89.24
709.12	88.72
709.305	89.05
709.489	89.83
709.673	88.15
709.858	88.23
710.042	88.62
710.227	90.14
710.411	89.57
710.596	89.82
710.78	89.66
710.964	90.64
711.149	92.22
711.333	92.45
711.517	94.01
711.702	95.45
711.886	96.24
712.07	94.58
712.254	94.53
712.438	94.98
712.623	93.26
712.807	93.27
712.991	90.49
713.175	88.9
713.359	88.68
713.544	87.52
713.728	88.84
713.912	89.54
714.096	89.56
714.28	87.79
714.464	88.04
714.648	88.79
714.832	88.94
715.016	90.21
715.2	89.78
715.384	89.51
715.568	89.18
715.752	86.64
715.936	85.87
716.12	87.64
716.304	87.62
716.488	86.78
716.671	85.37
716.855	84.14
717.039	84.38
717.223	84.94
717.407	85.01
717.59	84.85
717.774	83.27
717.958	82.38
718.142	81.75
718.325	84.04
718.509	83.65
718.693	85.56
718.877	85.91
719.06	85.16
719.244	86.45
719.428	85.92
719.611	87.88
719.795	92.3
719.978	92.42
720.162	91.84
720.345	90.83
720.529	92.09
720.713	92.44
720.896	92.98
721.08	92.99
721.263	92.92
721.446	91.84
721.63	90.29
721.813	87.64
721.997	88.97
722.18	88.01
722.364	88.17
722.547	88.82
722.73	88.24
722.914	88.81
723.097	88.76
723.28	87.16
723.464	88.7
723.647	88.62
723.83	87.5
724.013	86.82
724.197	88.23
724.38	87.18
724.563	88.54
724.746	90.2
724.929	89.54
725.112	89.98
725.296	91.89
725.479	93.41
725.662	91.6
725.845	93.19
726.028	94.13
726.211	92.85
726.394	93.11
726.577	91.01
726.76	88.73
726.943	88.5
727.126	88.67
727.309	86.64
727.492	86.06
727.675	87.05
727.858	87.4
728.041	86.61
728.224	88.12
728.407	89.17
728.589	87.91
728.772	88.35
728.955	89.95
729.138	89.13
729.321	88.71
729.503	88.29
729.686	88.58
729.869	88.23
730.052	86.51
730.234	86.59
730.417	86.54
730.6	88.27
730.782	88.8
730.965	88.31
731.148	88.34
731.33	90.8
731.513	91.11
731.695	91.66
731.878	92.28
732.061	93.2
732.243	93.6
732.426	94.68
732.608	94.19
732.791	95.14
732.973	95.76
733.156	96.58
733.338	96.02
733.52	95.46
733.703	95.31
733.885	95.66
734.068	98.16
734.25	97.23
734.432	96.5
734.615	98.62
734.797	96.58
734.979	97.42
735.162	95.89
735.344	94.71
735.526	95.37
735.708	95.99
735.891	96.45
736.073	95.58
736.255	97.84
736.437	97.29
736.619	96.42
736.802	99.04
736.984	97.6
737.166	100.54
737.348	101.63
737.53	101.59
737.712	102.69
737.894	103.07
738.076	102.8
738.258	100.78
738.44	100.76
738.622	101.78
738.804	101.39
738.986	100.9
739.168	99.02
739.35	99.63
739.532	99.28
739.714	98.67
739.896	97.1
740.078	96.84
740.259	99.89
740.441	99.65
740.623	99.65
740.805	99.54
740.987	100.41
741.168	103.05
741.35	102.04
741.532	102.59
741.714	104.5
741.895	107.51
742.077	109.47
742.259	108.16
742.44	110.74
742.622	110.28
742.804	113.3
742.985	115.06
743.167	116.48
743.348	118.03
743.53	118.55
743.711	116.48
743.893	116.18
744.075	115.63
744.256	115.32
744.438	117.16
744.619	116.22
744.8	114.51
744.982	113.06
745.163	111.49
745.345	110.39
745.526	110.22
745.707	111.59
745.889	111.94
746.07	110.42
746.252	111.9
746.433	109.84
746.614	110.87
746.795	110.88
746.977	111.88
747.158	113.13
747.339	114.42
747.52	111.33
747.702	112.3
747.883	112.23
748.064	114.24
748.245	112.37
748.426	112.19
748.607	113.35
748.788	110.6
748.97	110.63
749.151	109.84
749.332	109.46
749.513	111.33
749.694	110.16
749.875	110.31
750.056	108.2
750.237	107.8
750.418	105.64
750.599	101.66
750.78	101.74
750.96	101.49
751.141	98.97
751.322	98.68
751.503	99.6
751.684	100.83
751.865	98.94
752.046	100.97
752.226	102.11
752.407	102.67
752.588	105.35
752.769	105.12
752.949	104.94
753.13	106.95
753.311	106.15
753.492	109.33
753.672	107.71
753.853	108.13
754.034	106.22
754.214	105.32
754.395	106.94
754.575	107.98
754.756	108.52
754.937	110.33
755.117	109.89
755.298	109.64
755.478	108
755.659	106.74
755.839	106.5
756.02	104.26
756.2	103.98
756.381	103.67
756.561	102.22
756.741	103.28
756.922	100.78
757.102	99.72
757.283	98.5
757.463	97.45
757.643	96.32
757.823	94.29
758.004	95.19
758.184	94.67
758.364	91.66
758.545	89.11
758.725	86.82
758.905	84.85
759.085	83.18
759.265	81.8
759.446	80.13
759.626	80.87
759.806	81.93
759.986	80.91
760.166	80.72
760.346	81.02
760.526	81.46
760.706	81.77
760.886	82.59
761.066	84.34
761.246	84.9
761.426	82.21
761.606	80.5
761.786	79.07
761.966	77.73
762.146	76.99
762.326	77.91
762.506	77.63
762.686	76.57
762.866	76.83
763.046	74.99
763.225	75.61
763.405	77.04
763.585	77.85
763.765	80.56
763.945	83.79
764.124	85.55
764.304	86.39
764.484	87.67
764.664	88.61
764.843	88.46
765.023	92.52
765.203	94.24
765.382	95.8
765.562	96.28
765.741	95.68
765.921	94.62
766.101	92.02
766.28	92.66
766.46	92.76
766.639	94.92
766.819	96.86
766.998	96.35
767.178	99.03
767.357	100.19
767.537	100.82
767.716	104.04
767.896	107.24
768.075	113.91
768.254	116.06
768.434	117.21
768.613	116.17
768.792	118.4
768.972	118.17
769.151	118.93
769.33	121.82
769.51	125.35
769.689	123.51
769.868	122.65
770.047	121.19
770.226	117.52
770.406	121.62
770.585	120.5
770.764	118.04
770.943	117.47
771.122	114.49
771.301	113.12
771.48	111.5
771.66	111.76
771.839	110.41
772.018	108.34
772.197	110.34
772.376	109.69
772.555	112.64
772.734	114.27
772.913	116.46
773.092	117.41
773.271	119.27
773.449	119.07
773.628	117.77
773.807	117.68
773.986	120.87
774.165	120.14
774.344	118.16
774.523	117.26
774.701	117.63
774.88	115.43
775.059	116.54
775.238	113.68
775.417	111.82
775.595	111.77
775.774	113.59
775.953	112.19
776.131	112.78
776.31	114.11
776.489	111.91
776.667	112.44
776.846	113.36
777.025	113.22
777.203	114.31
777.382	119.45
777.56	119.89
777.739	117.29
777.917	114.08
778.096	117.44
778.274	119
778.453	121.47
778.631	119.3
778.81	119.03
778.988	117.38
779.166	118.17
779.345	113.9
779.523	112.65
779.702	113.46
779.88	114.44
780.058	113.66
780.237	111.53
780.415	112.01
780.593	112.78
780.771	109.88
780.95	109.5
781.128	106.05
781.306	106.4
781.484	108.98
781.662	108.44
781.841	111.02
782.019	109.7
782.197	110.89
782.375	110.63
782.553	109.42
782.731	111.76
782.909	114.66
783.087	117.14
783.265	117.38
783.443	113.52
783.621	115.3
783.799	113.57
783.977	114.15
784.155	110.53
784.333	108.7
784.511	108.04
784.689	110.26
784.867	108.32
785.045	106.34
785.223	106
785.4	109.91
785.578	108.8
785.756	109.95
785.934	107.52
786.112	108.45
786.289	110.33
786.467	109.46
786.645	107.29
786.823	109.25
787	109.71
787.178	109.56
787.356	107.32
787.533	107.22
787.711	106.04
787.889	106.43
788.066	105.11
788.244	104.5
788.421	106.64
788.599	105.81
788.776	101.78
788.954	103.02
789.131	103.59
789.309	101.46
789.486	101.57
789.664	102.19
789.841	102.38
790.019	102.93
790.196	103.42
790.373	102.01
790.551	102.88
790.728	104.06
790.906	102.87
791.083	100.6
791.26	100.59
791.437	104.3
791.615	103.75
791.792	102.47
791.969	100.66
792.146	100.02
792.324	99.67
792.501	100.84
792.678	100.82
792.855	104.27
793.032	105.93
793.209	108.62
793.387	105.87
793.564	108.96
793.741	112.82
793.918	115.06
794.095	116.94
794.272	118.79
794.449	117.48
794.626	119.45
794.803	116.3
794.98	116.71
795.157	113.15
795.334	112.16
795.511	109.61
795.688	107.47
795.864	109.21
796.041	107.52
796.218	109.75
796.395	112
796.572	113.04
796.749	112.54
796.925	113.41
797.102	113.4
797.279	112.08
797.456	108.42
797.632	111.43
797.809	109.14
797.986	110.75
798.162	107.62
798.339	104.68
798.516	104.84
798.692	104.38
798.869	102.4
799.046	104.99
799.222	106.95
799.399	109.31
799.575	106.36
799.752	105.55
799.928	103.15
800.105	103.77
800.281	102.37
800.458	99.69
800.634	100.43
800.811	100.82
800.987	99.72
801.163	100.21
801.34	100.59
801.516	99.17
801.692	98.29
801.869	98.69
802.045	98.96
802.221	100.69
802.398	100.38
802.574	101.97
802.75	102.71
802.926	102.94
803.103	101.66
803.279	101.78
803.455	102.19
803.631	101.98
803.807	100.44
803.983	98.69
804.16	98.48
804.336	100.13
804.512	99.76
804.688	97.16
804.864	98.35
805.04	98.79
805.216	98.18
805.392	99.81
805.568	101.13
805.744	102.86
805.92	105.26
806.096	107.83
806.272	110.51
806.448	113.09
806.623	116
806.799	116.11
806.975	114.39
807.151	110.34
807.327	109.15
807.503	110.22
807.678	110.22
807.854	106.27
808.03	103.85
808.206	98.66
808.381	91.92
808.557	91.44
808.733	91.22
808.908	89.35
809.084	93.12
809.26	89.82
809.435	87.96
809.611	86.32
809.787	88.04
809.962	86.64
810.138	89.37
810.313	90.89
810.489	92.12
810.664	89.05
810.84	91.23
811.015	89.3
811.191	91.43
811.366	94.84
811.542	96.7
811.717	99.92
811.892	103.35
812.068	102.74
812.243	102.43
812.419	102.33
812.594	106.43
812.769	103.77
812.944	106.21
813.12	107.66
813.295	105.03
813.47	106.7
813.645	100.76
813.821	97.73
813.996	90.99
814.171	94.49
814.346	93.11
814.521	92.52
814.697	95
814.872	96.13
815.047	93.73
815.222	91.65
815.397	90.14
815.572	92.1
815.747	93.07
815.922	99.67
816.097	97.82
816.272	98.52
816.447	96.76
816.622	96.22
816.797	93.77
816.972	94.25
817.147	95.63
817.322	95.36
817.496	95.45
817.671	93.63
817.846	93.08
818.021	93.77
818.196	91.87
818.371	89.84
818.545	91.33
818.72	89.29
818.895	86.96
819.069	86.93
819.244	85.74
819.419	83.39
819.594	80.67
819.768	76.86
819.943	72.81
820.117	72.09
820.292	70.79
820.467	66.8
820.641	66.39
820.816	64.69
820.99	62.01
821.165	59.46
821.339	57.42
821.514	57.39
821.688	57.09
821.863	56.71
822.037	56.59
822.212	57.06
822.386	57.32
822.56	56.49
822.735	56.81
822.909	58.51
823.084	59.47
823.258	60.85
823.432	60.96
823.606	61.04
823.781	63.03
823.955	62.5
824.129	63.33
824.303	64.61
824.478	64.9
824.652	65.89
824.826	64.66
825	64.79
825.174	65.63
825.348	66.39
825.523	67.03
825.697	66.82
825.871	68.24
826.045	68.89
826.219	67.58
826.393	67.88
826.567	67.17
826.741	68.2
826.915	68.27
827.089	68.92
827.263	68.63
827.437	69.74
827.611	69.39
827.784	70.2
827.958	70.8
828.132	71.14
828.306	72.09
828.48	73.17
828.654	74.38
828.827	73.82
829.001	72.59
829.175	75.28
829.349	78.55
829.522	79.79
829.696	79.79
829.87	79.66
830.044	82.6
830.217	84.53
830.391	86.26
830.565	85.58
830.738	86.44
830.912	89.61
831.085	90.2
831.259	85.97
831.432	84.76
831.606	83.56
831.779	83.33
831.953	80.79
832.126	80.75
832.3	78.38
832.473	79.06
832.647	81.04
832.82	77.32
832.994	75.22
833.167	75.59
833.34	76.51
833.514	76.2
833.687	76
833.86	76.17
834.034	75.91
834.207	77.22
834.38	77.26
834.553	77.46
834.727	82.58
834.9	84.22
835.073	83.89
835.246	84.36
835.419	86.95
835.593	88.94
835.766	89.02
835.939	90.17
836.112	94.61
836.285	95.2
836.458	94.47
836.631	91.77
836.804	91.48
836.977	96.3
837.15	100.51
837.323	101.82
837.496	100.12
837.669	101.67
837.842	104.81
838.015	99.83
838.188	101.12
838.361	97.1
838.533	98.7
838.706	102.14
838.879	102.12
839.052	94.84
839.225	93.63
839.398	91.52
839.57	91.08
839.743	87.21
839.916	89.99
840.088	87.23
840.261	91.81
840.434	90.01
840.607	88.51
840.779	88.38
840.952	90.73
841.124	90.11
841.297	93.3
841.47	96.08
841.642	96.56
841.815	96.37
841.987	99.52
842.16	100.18
842.332	104.68
842.505	107.48
842.677	108.89
842.85	108.6
843.022	109.54
843.194	108.56
843.367	109.96
843.539	110.23
843.712	108.01
843.884	105.74
844.056	103.95
844.229	101.21
844.401	99.98
844.573	98.13
844.745	98.3
844.918	99.52
845.09	98.72
845.262	95.36
845.434	97.9
845.606	101.95
845.779	101.25
845.951	102.8
846.123	102.15
846.295	104.79
846.467	102.26
846.639	100.58
846.811	96.48
846.983	100.35
847.155	99.12
847.327	96.75
847.499	92.22
847.671	91.99
847.843	93.8
848.015	91.99
848.187	90.22
848.359	94.36
848.531	98.66
848.703	99.53
848.875	98.04
849.047	99.86
849.218	99.86
849.39	98.83
849.562	102.14
849.734	101.76
849.905	107.47
850.077	104.27
850.249	102.51
850.421	97.7
850.592	102.43
850.764	99.82
850.936	100.72
851.107	103.31
851.279	103.8
851.451	106.6
851.622	102.03
851.794	99.47
851.965	100.13
852.137	99.87
852.308	105.21
852.48	105.04
852.651	106.14
852.823	102.04
852.994	102.8
853.166	102.44
853.337	102.78
853.509	106.4
853.68	104.98
853.851	106.72
854.023	105.05
854.194	99.78
854.365	100.45
854.537	97.95
854.708	99.3
854.879	97.06
855.05	100.1
855.222	95.02
855.393	95.93
855.564	96.55
855.735	95.43
855.906	96.07
856.078	96.17
856.249	95.3
856.42	96.77
856.591	106.25
856.762	104.75
856.933	106.99
857.104	111.29
857.275	111.47
857.446	111.3
857.617	109.87
857.788	114.82
857.959	119.94
858.13	119.81
858.301	121.91
858.472	108.95
858.643	108.71
858.814	106.33
858.985	104.78
859.155	106.56
859.326	107.4
859.497	110.87
859.668	106.07
859.839	105.5
860.009	102.5
860.18	101.62
860.351	105.57
860.522	110.12
860.692	114.15
860.863	113.86
861.034	113.88
861.204	112.9
861.375	112.92
861.546	116.38
861.716	114.66
861.887	117.38
862.057	118.3
862.228	113.68
862.398	109.63
862.569	107.02
862.739	105.49
862.91	104.93
863.08	105.13
863.251	104.81
863.421	103.44
863.592	100.96
863.762	101.81
863.932	98.43
864.103	97.07
864.273	100.32
864.443	101.34
864.614	102.46
864.784	97.62
864.954	97.29
865.125	97.39
865.295	95.53
865.465	98.61
865.635	96.25
865.805	102.87
865.976	103.24
866.146	98.95
866.316	97.78
866.486	98.75
866.656	101.01
866.826	100.69
866.996	97.23
867.166	100.19
867.336	100.75
867.506	103.32
867.676	98.86
867.846	100.69
868.016	107.45
868.186	104.13
868.356	102.82
868.526	106.36
868.696	108.22
868.866	110.61
869.036	108.96
869.206	106.49
869.376	103.19
869.545	103.33
869.715	101.5
869.885	96.88
870.055	98.09
870.224	98.86
870.394	96.21
870.564	95.33
870.734	96
870.903	95.9
871.073	97.05
871.243	95.64
871.412	97.38
871.582	98.32
871.751	97.3
871.921	97.29
872.091	96.13
872.26	96.78
872.43	94.69
872.599	92.37
872.769	92.98
872.938	94.27
873.108	93.85
873.277	92.31
873.446	95.2
873.616	95.29
873.785	95.37
873.955	94.66
874.124	93.8
874.293	97.61
874.463	100.65
874.632	99.09
874.801	95.5
874.971	99.84
875.14	105.05
875.309	101.49
875.478	101.69
875.647	101.54
875.817	104.25
875.986	104.55
876.155	106.3
876.324	98.79
876.493	98.3
876.662	99.43
876.831	102.27
877	94.4
877.17	93.5
877.339	89.85
877.508	90.08
877.677	88.17
877.846	87.93
878.015	85.13
878.184	90.06
878.352	90.94
878.521	90.71
878.69	86.63
878.859	88.25
879.028	92.66
879.197	97.62
879.366	96.76
879.534	96.54
879.703	91.56
879.872	88.35
880.041	88.17
880.21	86.6
880.378	82.96
880.547	79.82
880.716	78.11
880.884	75.69
881.053	72.99
881.222	71.46
881.39	70.02
881.559	71.01
881.727	69.55
881.896	66.18
882.065	65.54
882.233	66.24
882.402	67.83
882.57	67.7
882.739	68.8
882.907	69.25
883.076	70.32
883.244	69.58
883.412	69.61
883.581	68.93
883.749	71.57
883.918	72.49
884.086	74.04
884.254	71.96
884.423	74.68
884.591	72.19
884.759	73.74
884.927	71.62
885.096	71.6
885.264	76.89
885.432	79.36
885.6	81.29
885.769	85.14
885.937	83.24
886.105	85.21
886.273	87.84
886.441	89.36
886.609	87.52
886.777	92.01
886.945	94.47
887.113	92.81
887.281	91.5
887.449	93.34
887.617	88.42
887.785	90.53
887.953	89.39
888.121	86.62
888.289	88.35
888.457	91.48
888.625	89.86
888.793	92.68
888.961	85.97
889.129	90.54
889.296	85.43
889.464	88.48
889.632	88.87
889.8	92.14
889.967	92.92
890.135	89.81
