Data from JASIL_3240_Reflection_1.txt Node
Date: Mon Nov 16 20:26:41 EST 2015
User: Geneva
Spectrometer: USB4E03002
Autoset integration time: false
Trigger mode: 4
Integration Time (sec): 1.000000E-1
Scans to average: 10
Electric dark correction enabled: false
Nonlinearity correction enabled: false
Boxcar width: 5
Stray light correction enabled: false
XAxis mode: Wavelengths
Stop averaging: false
Number of Pixels in Spectrum: 3648
>>>>>Begin Spectral Data<<<<<
177.575	126.5
177.794	40.71
178.014	24.1
178.233	10.28
178.452	-144.58
178.672	-123.48
178.891	-337.74
179.11	1464.86
179.33	583.04
179.549	-3068.18
179.768	551.69
179.987	610.75
180.207	328.39
180.426	194.08
180.645	211.07
180.864	240.91
181.084	138.56
181.303	99.54
181.522	157.73
181.741	466.2
181.96	100.85
182.179	130.11
182.398	143.56
182.618	130.08
182.837	131.93
183.056	81.35
183.275	75.87
183.494	69.77
183.713	113.33
183.932	106.57
184.151	96.94
184.37	104.16
184.589	98.12
184.808	99.47
185.027	105.48
185.246	133.73
185.465	166.26
185.684	202.86
185.903	621.84
186.122	186.1
186.341	226.97
186.56	145.79
186.779	112.95
186.998	66.15
187.216	104.72
187.435	111.98
187.654	101.08
187.873	106.36
188.092	74.38
188.311	71.46
188.53	102.75
188.748	120.81
188.967	187.2
189.186	171.65
189.405	170.13
189.623	179.17
189.842	167.49
190.061	148.33
190.28	306.41
190.498	-398.75
190.717	371.43
190.936	-635.59
191.154	-208.93
191.373	-7183.33
191.592	-4336.36
191.81	-258.05
192.029	-269.47
192.248	-39.04
192.466	-34.54
192.685	-49.48
192.904	-53.11
193.122	-6.67
193.341	-77.3
193.559	-21.83
193.778	73.94
193.996	32.82
194.215	4850
194.433	-316.67
194.652	102.46
194.87	55.84
195.089	-12.23
195.307	-40
195.526	-176.27
195.744	-69.3
195.963	56.59
196.181	600
196.399	51.28
196.618	-435
196.836	1500
197.055	-187.7
197.273	-777.59
197.491	-637.78
197.71	-1358.82
197.928	890
198.146	1561.9
198.365	-4870
198.583	324.68
198.801	497.66
199.019	1094.81
199.238	-1530.95
199.456	640.57
199.674	165.25
199.892	153.29
200.111	193.08
200.329	232.08
200.547	225.92
200.765	225.92
200.983	209.04
201.202	150.24
201.42	224.02
201.638	179.72
201.856	176.42
202.074	720.66
202.292	793.94
202.51	422.45
202.728	545.36
202.946	-770
203.165	1545.45
203.383	-508.25
203.601	-603.49
203.819	1332
204.037	7030
204.255	779.38
204.473	257.94
204.691	314
204.909	253.47
205.127	240
205.345	271.02
205.562	175.25
205.78	115.44
205.998	109.8
206.216	76.43
206.434	57.09
206.652	65.15
206.87	93.53
207.088	104.48
207.306	116.47
207.523	122.31
207.741	130.28
207.959	142.6
208.177	153.64
208.395	133.01
208.612	125.7
208.83	109.86
209.048	117.46
209.266	129.14
209.483	120.71
209.701	117.54
209.919	107.1
210.136	104.62
210.354	147.5
210.572	192.31
210.79	260.74
211.007	151.53
211.225	168.22
211.442	-52.38
211.66	91.67
211.878	170.14
212.095	-60.52
212.313	-26.36
212.53	-93.04
212.748	-2.56
212.966	-24.37
213.183	-1.68
213.401	2.98
213.618	6.09
213.836	25.13
214.053	40.2
214.271	35.52
214.488	358.82
214.705	138.99
214.923	108.71
215.14	30.25
215.358	33.54
215.575	-7.55
215.793	35.62
216.01	120.86
216.227	45.53
216.445	40.28
216.662	75.48
216.879	52.88
217.097	63.74
217.314	85.55
217.531	114.79
217.749	160.3
217.966	158.67
218.183	148.76
218.4	164.17
218.618	236.22
218.835	254.96
219.052	204.79
219.269	199.11
219.487	286.81
219.704	191.88
219.921	144.91
220.138	114.34
220.355	123.02
220.572	124.71
220.79	116.03
221.007	129
221.224	131.31
221.441	108.99
221.658	71.81
221.875	80.34
222.092	88.71
222.309	86.59
222.526	77.82
222.743	84.69
222.96	54.25
223.177	42.68
223.394	10.37
223.611	19.48
223.828	24.81
224.045	21.03
224.262	25.61
224.479	13.51
224.696	25.77
224.913	30.71
225.13	23.28
225.347	29.21
225.564	39.02
225.781	36.23
225.997	43.35
226.214	26.76
226.431	30.55
226.648	16.67
226.865	17.31
227.082	19.04
227.298	12.84
227.515	12.9
227.732	13.33
227.949	10.17
228.165	9.86
228.382	6.46
228.599	2.58
228.816	2.31
229.032	5.81
229.249	3.54
229.466	3.63
229.682	3.47
229.899	-1
230.116	-0.11
230.332	0.9
230.549	3.77
230.765	2.15
230.982	14.66
231.199	13.51
231.415	13.17
231.632	15.89
231.848	18.15
232.065	23.83
232.281	24.2
232.498	29.2
232.714	33.98
232.931	34.81
233.147	40.03
233.364	40.48
233.58	41.69
233.797	50.2
234.013	45.86
234.23	40.44
234.446	34.65
234.662	34.33
234.879	32.56
235.095	28.17
235.312	27.99
235.528	24.8
235.744	15.51
235.961	15.82
236.177	13.55
236.393	22.24
236.61	23.98
236.826	26.36
237.042	29.14
237.258	20.86
237.475	17.19
237.691	10.76
237.907	18.35
238.123	26.5
238.339	24.54
238.556	20.19
238.772	15.88
238.988	15.64
239.204	19.65
239.42	24.59
239.636	24.3
239.853	23.73
240.069	21.52
240.285	20.28
240.501	17.61
240.717	17.34
240.933	14.47
241.149	12.54
241.365	11.84
241.581	10.61
241.797	8.64
242.013	10.48
242.229	10.51
242.445	11.2
242.661	11.06
242.877	10.87
243.093	8.6
243.309	10.43
243.525	11.77
243.741	14.82
243.957	13.97
244.173	15.56
244.388	14.99
244.604	18.09
244.82	17.94
245.036	16.27
245.252	13.65
245.468	12.79
245.683	10.3
245.899	9.57
246.115	9.23
246.331	9.41
246.547	8
246.762	6.91
246.978	7.27
247.194	7.13
247.409	7.86
247.625	8.84
247.841	9.52
248.057	11.27
248.272	11.12
248.488	12.05
248.703	12.59
248.919	12.44
249.135	13.06
249.35	11.33
249.566	12.08
249.782	10.5
249.997	11.36
250.213	11.48
250.428	9.1
250.644	11.78
250.859	6.83
251.075	4
251.29	9.01
251.506	9.61
251.721	11.82
251.937	11.95
252.152	12.53
252.368	10.96
252.583	13.83
252.798	15.19
253.014	13.78
253.229	16.72
253.445	21.49
253.66	19.58
253.875	19.73
254.091	22.88
254.306	21.69
254.521	21.01
254.737	22.22
254.952	17.13
255.167	15.58
255.383	17.6
255.598	15.64
255.813	13.87
256.028	14.05
256.244	17.73
256.459	12.32
256.674	14.97
256.889	13.71
257.104	13.41
257.32	13.26
257.535	13.34
257.75	10.07
257.965	9.45
258.18	9.55
258.395	8.55
258.61	6.78
258.826	7.08
259.041	6.87
259.256	7.04
259.471	7.34
259.686	7.66
259.901	6.91
260.116	8.23
260.331	8.62
260.546	8.3
260.761	7.79
260.976	7.58
261.191	8.45
261.406	8.39
261.621	8.58
261.836	9.38
262.05	9.54
262.265	11.83
262.48	12.15
262.695	11.57
262.91	9.68
263.125	11.03
263.34	11.3
263.555	10
263.769	10.23
263.984	9.45
264.199	9.5
264.414	10.26
264.629	8.94
264.843	6.92
265.058	8.56
265.273	8.7
265.488	9.7
265.702	10.52
265.917	10
266.132	7.57
266.346	8.72
266.561	6.86
266.776	6.23
266.99	5.89
267.205	7.16
267.42	6.31
267.634	9.03
267.849	8.33
268.063	9.16
268.278	10.76
268.492	12.09
268.707	11.53
268.922	11.5
269.136	11.25
269.351	10.59
269.565	9.09
269.78	8.79
269.994	7.88
270.209	7.22
270.423	5.79
270.637	4.46
270.852	2.99
271.066	3.57
271.281	6.26
271.495	5.55
271.709	6.47
271.924	8.44
272.138	9.58
272.353	9.56
272.567	9.84
272.781	8.81
272.996	8.83
273.21	10.09
273.424	10.58
273.638	8.32
273.853	9.26
274.067	9.26
274.281	7.76
274.495	6.74
274.71	4.53
274.924	3.91
275.138	5.21
275.352	5.14
275.566	6.54
275.781	4.15
275.995	4.3
276.209	3.3
276.423	4.56
276.637	4.91
276.851	6.38
277.065	8.61
277.279	10.81
277.493	10.1
277.707	9.89
277.921	9.06
278.135	9.69
278.349	11.59
278.563	13.01
278.777	12.13
278.991	12.07
279.205	11.03
279.419	10.99
279.633	8.22
279.847	8.63
280.061	8.42
280.275	8.03
280.489	9.12
280.703	5.36
280.917	4.8
281.131	4.14
281.344	4.95
281.558	5.85
281.772	4.85
281.986	6.5
282.2	7.17
282.414	6.17
282.627	5.93
282.841	4.32
283.055	5.78
283.269	6.54
283.482	7.22
283.696	7.28
283.91	6.4
284.123	6.38
284.337	5.88
284.551	5.84
284.764	6.78
284.978	6.24
285.192	7.29
285.405	8.86
285.619	7.32
285.833	7.6
286.046	6.4
286.26	6.35
286.473	6.23
286.687	6.73
286.9	6.99
287.114	7.31
287.327	8.03
287.541	7.66
287.754	5.87
287.968	7.31
288.181	6.89
288.395	7.12
288.608	8.02
288.822	9.43
289.035	9.27
289.248	8.62
289.462	8.97
289.675	9.24
289.889	9.67
290.102	9.22
290.315	9.08
290.529	8.51
290.742	8.47
290.955	7.81
291.169	7.58
291.382	7.91
291.595	9.88
291.808	9.52
292.022	10.16
292.235	9.47
292.448	11.33
292.661	10.38
292.875	12.66
293.088	12.5
293.301	11.35
293.514	9.8
293.727	8.03
293.94	5.92
294.153	6.92
294.367	6.32
294.58	6.43
294.793	5.79
295.006	7.27
295.219	5.15
295.432	5.19
295.645	5.22
295.858	6.33
296.071	7.17
296.284	7.99
296.497	7.21
296.71	6.76
296.923	7.43
297.136	6.53
297.349	5.42
297.562	5.5
297.775	6.48
297.988	5.69
298.201	6.6
298.414	5.68
298.626	5.2
298.839	4.47
299.052	4.2
299.265	4.12
299.478	5.28
299.691	6.36
299.903	7.03
300.116	6.2
300.329	7.45
300.542	5.6
300.755	6.95
300.967	7.04
301.18	7.51
301.393	8.63
301.605	8.83
301.818	7.29
302.031	8.15
302.243	8.52
302.456	8.96
302.669	10.12
302.881	11.6
303.094	11.35
303.307	11.72
303.519	12.9
303.732	12.53
303.944	11.94
304.157	13.31
304.37	12.78
304.582	12.13
304.795	12.05
305.007	10.81
305.22	10.03
305.432	11.43
305.645	11.2
305.857	9.56
306.069	9.03
306.282	8.9
306.494	7.93
306.707	6.69
306.919	6.52
307.132	4.92
307.344	6
307.556	6.15
307.769	5.29
307.981	5.53
308.193	5.81
308.406	5.54
308.618	5.38
308.83	5.38
309.043	4.63
309.255	6.31
309.467	7.25
309.679	6.91
309.892	6.89
310.104	6.59
310.316	6.46
310.528	7.11
310.74	6.73
310.953	6.95
311.165	8.31
311.377	8.62
311.589	8.9
311.801	8.52
312.013	9.12
312.225	10.06
312.437	9.31
312.649	8.88
312.862	8.97
313.074	8.68
313.286	9.52
313.498	9.65
313.71	9.33
313.922	8.79
314.134	9.55
314.346	9.29
314.558	6.91
314.77	7.17
314.982	5.56
315.193	5.61
315.405	7.57
315.617	6.85
315.829	6.98
316.041	6.94
316.253	6.26
316.465	7.63
316.677	7.19
316.888	7.96
317.1	9.39
317.312	12.07
317.524	10.89
317.736	10.78
317.947	11.25
318.159	10.9
318.371	12.95
318.583	13
318.794	11.63
319.006	11.43
319.218	10.65
319.43	10.22
319.641	9.69
319.853	11.07
320.064	11.28
320.276	10.25
320.488	9.31
320.699	8.13
320.911	10.64
321.123	9.7
321.334	10.5
321.546	11.09
321.757	10.8
321.969	12
322.18	10.7
322.392	11
322.603	11.56
322.815	11.34
323.026	12.32
323.238	11.03
323.449	11.06
323.661	11.45
323.872	12.59
324.083	12.78
324.295	12.25
324.506	13.55
324.718	11.82
324.929	11.76
325.14	12.56
325.352	12.98
325.563	13.85
325.774	14.37
325.986	13.2
326.197	12.94
326.408	13.31
326.62	13.73
326.831	13.21
327.042	15.2
327.253	15.81
327.464	17.79
327.676	16.91
327.887	16.76
328.098	17
328.309	18.07
328.52	18.27
328.732	18.11
328.943	19.06
329.154	19.73
329.365	19.27
329.576	19.65
329.787	16.77
329.998	17.89
330.209	15.43
330.42	16.69
330.631	18.02
330.842	17.27
331.053	17.65
331.264	16.94
331.475	15.81
331.686	16.3
331.897	15.69
332.108	17.56
332.319	16.99
332.53	18.46
332.741	16.54
332.952	15.43
333.163	15.69
333.374	15.66
333.585	14.29
333.795	15.55
334.006	14.64
334.217	14.47
334.428	13.72
334.639	13.38
334.849	12.9
335.06	14.16
335.271	14.55
335.482	15.93
335.692	15.18
335.903	16.7
336.114	16.5
336.325	16.88
336.535	17.46
336.746	17.97
336.957	18.62
337.167	18.85
337.378	19.72
337.589	19.32
337.799	18.91
338.01	20.69
338.22	20.29
338.431	21.63
338.642	20.91
338.852	20.83
339.063	21.02
339.273	21.44
339.484	22.88
339.694	22.14
339.905	21.92
340.115	21.97
340.326	20.64
340.536	20.35
340.746	18.86
340.957	20.35
341.167	19.95
341.378	19.89
341.588	19.39
341.799	18.33
342.009	18.27
342.219	19.2
342.43	19.46
342.64	20.19
342.85	20.34
343.061	20.7
343.271	20.32
343.481	19.96
343.691	18.89
343.902	18.8
344.112	18.41
344.322	17.34
344.532	17.01
344.743	16.25
344.953	15.72
345.163	16.12
345.373	15.67
345.583	16.3
345.793	16.86
346.004	17.17
346.214	17.27
346.424	17.27
346.634	17.44
346.844	17.29
347.054	17.47
347.264	17.5
347.474	17.62
347.684	17.41
347.894	16.59
348.104	16.42
348.314	15.7
348.524	14.98
348.734	15.19
348.944	15.45
349.154	15.13
349.364	14.36
349.574	14.29
349.784	14.38
349.994	13.79
350.204	14.33
350.413	14.84
350.623	15.15
350.833	14.84
351.043	14.31
351.253	15.67
351.463	15.59
351.672	16.39
351.882	15.88
352.092	16.21
352.302	17.23
352.511	17.27
352.721	16.88
352.931	17.39
353.141	18.25
353.35	18.3
353.56	17.24
353.77	17.71
353.979	17.66
354.189	18.55
354.399	17.9
354.608	17.71
354.818	17.24
355.027	17.74
355.237	16.74
355.447	16.04
355.656	16.24
355.866	16.02
356.075	15.67
356.285	16.12
356.494	15.44
356.704	15.37
356.913	15.75
357.123	15.93
357.332	14.88
357.542	15.52
357.751	15.72
357.96	16.27
358.17	15.93
358.379	15.76
358.589	14.09
358.798	13.9
359.007	13.27
359.217	12.05
359.426	12.18
359.635	13.05
359.845	11.95
360.054	12.24
360.263	11.49
360.472	11.74
360.682	12.38
360.891	13.21
361.1	13.45
361.309	13.65
361.519	13.7
361.728	13.72
361.937	13.18
362.146	14.12
362.355	13.65
362.564	13.5
362.774	13.92
362.983	13.91
363.192	14.06
363.401	14.42
363.61	14.16
363.819	14.48
364.028	13.8
364.237	14.52
364.446	13.91
364.655	14.07
364.864	15.04
365.073	15.1
365.282	14.3
365.491	13.65
365.7	13.14
365.909	13.14
366.118	12.66
366.327	12.75
366.536	12.77
366.745	12.63
366.954	13.9
367.162	13.69
367.371	13.62
367.58	14.13
367.789	15.3
367.998	15.24
368.207	15.93
368.415	16.22
368.624	17.1
368.833	17.25
369.042	17.24
369.25	16.06
369.459	15.44
369.668	14.78
369.877	13.75
370.085	13.19
370.294	13.5
370.503	13.35
370.711	13.68
370.92	12.43
371.129	12.5
371.337	13.4
371.546	13.5
371.754	14.03
371.963	14.66
372.171	15.63
372.38	15.43
372.589	15.24
372.797	14.87
373.006	14.78
373.214	15.15
373.423	13.64
373.631	13.67
373.84	13.11
374.048	12.26
374.256	11.96
374.465	12.39
374.673	11.9
374.882	11.37
375.09	11.53
375.298	11.95
375.507	11.12
375.715	11.19
375.923	10.14
376.132	9.51
376.34	10.13
376.548	10.72
376.757	10.59
376.965	11.99
377.173	12.44
377.381	12.37
377.59	12.16
377.798	12.73
378.006	12.88
378.214	14.03
378.423	15.51
378.631	15.25
378.839	14.31
379.047	14.16
379.255	14.03
379.463	14.04
379.671	14.2
379.879	13.99
380.088	14.52
380.296	15.08
380.504	14.92
380.712	14.62
380.92	15.06
381.128	15.28
381.336	15.31
381.544	14.52
381.752	13.94
381.96	14.21
382.168	14.24
382.376	13.91
382.584	13.52
382.791	12.59
382.999	12.55
383.207	12.23
383.415	12.52
383.623	11.68
383.831	10.93
384.039	11.94
384.247	12
384.454	12.29
384.662	12.03
384.87	11.89
385.078	11.89
385.285	11.23
385.493	11.1
385.701	10.99
385.909	11.44
386.116	12.51
386.324	12.22
386.532	12.37
386.739	11.7
386.947	11.84
387.155	12.32
387.362	12.47
387.57	13.07
387.778	13.9
387.985	13.74
388.193	14
388.4	13.29
388.608	13.43
388.816	12.11
389.023	11.93
389.231	12.29
389.438	12.58
389.646	12.74
389.853	12.79
390.061	12.14
390.268	12.39
390.475	11.82
390.683	11.38
390.89	10.86
391.098	11.18
391.305	11.95
391.512	11.49
391.72	10.57
391.927	10.67
392.135	10.6
392.342	10.6
392.549	10.26
392.756	10.78
392.964	11.62
393.171	12.12
393.378	12.38
393.586	12.12
393.793	11.88
394	12.7
394.207	12.8
394.414	12.63
394.622	12.39
394.829	12.64
395.036	12.6
395.243	12.38
395.45	12.45
395.657	12.96
395.864	13.34
396.072	14.29
396.279	13.52
396.486	13.25
396.693	13.68
396.9	14.3
397.107	14.45
397.314	14.36
397.521	14.56
397.728	14.19
397.935	13.85
398.142	13.15
398.349	12.7
398.556	13.27
398.763	13.67
398.97	13.12
399.177	13.17
399.383	13.18
399.59	13.5
399.797	13.14
400.004	13
400.211	12.82
400.418	13.89
400.625	14.17
400.831	14.25
401.038	14.14
401.245	14.3
401.452	14.05
401.658	13.7
401.865	13.92
402.072	13.64
402.279	13.48
402.485	13.58
402.692	12.25
402.899	12.04
403.105	11.47
403.312	11.72
403.519	12.19
403.725	11.29
403.932	11.47
404.138	10.8
404.345	11.47
404.552	11.57
404.758	11.57
404.965	11.59
405.171	11.68
405.378	11.85
405.584	11.36
405.791	10.92
405.997	11.59
406.204	11.85
406.41	11.75
406.617	11.09
406.823	11.29
407.029	11.15
407.236	11.25
407.442	11.4
407.649	11.54
407.855	11.89
408.061	12.23
408.268	11.85
408.474	11.61
408.68	11.15
408.887	11.65
409.093	11.13
409.299	11.11
409.505	11.58
409.712	11.22
409.918	11.25
410.124	11.07
410.33	10.75
410.537	10.61
410.743	10.72
410.949	11.36
411.155	11.4
411.361	12.03
411.567	11.72
411.773	11.27
411.98	11.34
412.186	10.66
412.392	10.35
412.598	10.01
412.804	10.66
413.01	10.33
413.216	10.62
413.422	10.6
413.628	9.89
413.834	10.24
414.04	10.45
414.246	10.17
414.452	10.83
414.658	11.15
414.864	11.33
415.07	11.68
415.275	11.73
415.481	11.93
415.687	11.76
415.893	12.03
416.099	12.15
416.305	12.55
416.511	12.57
416.716	12.25
416.922	12.13
417.128	12.22
417.334	11.83
417.539	11.65
417.745	11.59
417.951	11.34
418.157	11.33
418.362	11.59
418.568	11.04
418.774	10.85
418.979	10.96
419.185	10.96
419.391	10.96
419.596	10.9
419.802	11.01
420.008	10.65
420.213	12.95
420.419	13.02
420.624	12.7
420.83	12.77
421.035	12.96
421.241	12.67
421.446	12.72
421.652	12.63
421.857	12.54
422.063	12.43
422.268	12.64
422.474	10.65
422.679	10.32
422.885	10.16
423.09	10.25
423.295	10.13
423.501	10.32
423.706	10.09
423.911	10.13
424.117	10.2
424.322	10.2
424.527	10.07
424.733	9.88
424.938	10.23
425.143	10.08
425.349	9.86
425.554	10.16
425.759	10.14
425.964	9.92
426.169	9.61
426.375	9.44
426.58	9.53
426.785	9.23
426.99	9.07
427.195	8.99
427.4	8.87
427.605	9.35
427.811	8.92
428.016	9.29
428.221	9.9
428.426	10.32
428.631	10.64
428.836	10.61
429.041	11.33
429.246	11.72
429.451	11.72
429.656	12.36
429.861	12.09
430.066	11.83
430.271	11.67
430.476	11.28
430.681	11.38
430.886	11.17
431.09	10.96
431.295	10.55
431.5	10.38
431.705	10.24
431.91	9.92
432.115	9.67
432.32	10.2
432.524	10.16
432.729	10.32
432.934	9.96
433.139	9.88
433.343	9.82
433.548	9.69
433.753	9.54
433.958	9.76
434.162	9.68
434.367	9.87
434.572	9.56
434.776	9.39
434.981	9.47
435.186	9.46
435.39	9.38
435.595	9.74
435.799	9.89
436.004	9.76
436.209	9.34
436.413	9.26
436.618	9.4
436.822	9.78
437.027	9.6
437.231	9.35
437.436	9.42
437.64	9.5
437.845	9.19
438.049	9.28
438.253	9.66
438.458	10.03
438.662	10.56
438.867	10.28
439.071	10.31
439.275	10.52
439.48	10.74
439.684	10.86
439.888	10.93
440.093	11.33
440.297	11.15
440.501	10.97
440.706	10.67
440.91	10.47
441.114	10.68
441.318	10.67
441.523	10.67
441.727	10.51
441.931	10.46
442.135	10.24
442.339	10.09
442.543	10.18
442.748	10.58
442.952	10.66
443.156	10.77
443.36	10.82
443.564	10.79
443.768	10.88
443.972	11.07
444.176	10.94
444.38	11.23
444.584	11.15
444.788	10.83
444.992	10.6
445.196	10.53
445.4	10.45
445.604	10.49
445.808	10.14
446.012	10.12
446.216	9.74
446.42	9.62
446.624	9.89
446.828	9.82
447.032	10.28
447.235	10.41
447.439	10.37
447.643	10.23
447.847	10
448.051	10.09
448.254	10.07
448.458	9.95
448.662	10.14
448.866	9.92
449.069	9.66
449.273	9.47
449.477	8.9
449.681	9.07
449.884	8.87
450.088	9.18
450.292	8.9
450.495	8.62
450.699	9.33
450.902	9.37
451.106	9.34
451.31	9.69
451.513	9.96
451.717	10.09
451.92	10.03
452.124	10.14
452.327	10.03
452.531	10.28
452.734	10.37
452.938	10.32
453.141	10.52
453.345	10.57
453.548	10.36
453.752	10.06
453.955	10.36
454.158	10.27
454.362	10.51
454.565	10.27
454.769	10.39
454.972	10.45
455.175	10.35
455.379	10.05
455.582	9.58
455.785	9.49
455.988	9.38
456.192	9.51
456.395	9.55
456.598	9.59
456.801	9.78
457.005	9.82
457.208	9.83
457.411	9.78
457.614	10.06
457.817	10.44
458.021	10.85
458.224	10.73
458.427	10.47
458.63	10.53
458.833	10.3
459.036	10.23
459.239	10.22
459.442	10.25
459.645	10.37
459.848	10.13
460.051	9.85
460.254	9.52
460.457	9.62
460.66	9.55
460.863	9.23
461.066	9.17
461.269	9.4
461.472	9.23
461.675	9.18
461.878	8.86
462.081	9.1
462.284	9.21
462.486	9.18
462.689	8.99
462.892	9.54
463.095	9.9
463.298	10.17
463.5	9.89
463.703	9.94
463.906	9.9
464.109	10.02
464.311	9.95
464.514	10.23
464.717	10.44
464.92	10.55
465.122	10.29
465.325	10.03
465.528	9.99
465.73	9.88
465.933	10.19
466.135	10.57
466.338	10.68
466.541	10.25
466.743	9.81
466.946	10.07
467.148	10.28
467.351	10.41
467.553	10.54
467.756	10.62
467.958	10.86
468.161	10.73
468.363	10.3
468.566	10.21
468.768	10.6
468.971	10.81
469.173	10.54
469.375	10.17
469.578	9.83
469.78	10.04
469.983	10.12
470.185	10.38
470.387	10.45
470.59	10.91
470.792	10.83
470.994	10.61
471.196	10.69
471.399	10.61
471.601	10.87
471.803	10.84
472.005	10.55
472.208	10.2
472.41	9.53
472.612	9.53
472.814	9.15
473.016	9.33
473.218	9.24
473.421	9.21
473.623	9.14
473.825	9.21
474.027	9.59
474.229	10.02
474.431	10.27
474.633	10.7
474.835	10.67
475.037	10.55
475.239	10.16
475.441	10.68
475.643	10.75
475.845	10.98
476.047	10.76
476.249	10.52
476.451	10.28
476.653	10.07
476.855	9.99
477.057	9.99
477.258	9.98
477.46	10.23
477.662	9.79
477.864	9.73
478.066	9.66
478.268	9.63
478.469	9.41
478.671	9.15
478.873	9.42
479.075	9.53
479.276	9.62
479.478	9.79
479.68	9.76
479.882	9.88
480.083	9.8
480.285	9.86
480.487	10.05
480.688	10.4
480.89	10.56
481.091	10.44
481.293	10.4
481.495	10.26
481.696	10.17
481.898	10.31
482.099	10.44
482.301	10.35
482.502	10.11
482.704	9.97
482.905	9.84
483.107	9.85
483.308	9.75
483.51	9.56
483.711	9.59
483.913	9.47
484.114	9.39
484.315	9.24
484.517	9.21
484.718	9.31
484.92	9.32
485.121	9.27
485.322	9.23
485.524	9.19
485.725	9.33
485.926	9.28
486.127	9.43
486.329	9.25
486.53	9.31
486.731	9.31
486.932	9.24
487.134	9.18
487.335	9.19
487.536	9.16
487.737	9.31
487.938	9.31
488.139	9.27
488.341	9.18
488.542	9.35
488.743	9.38
488.944	9.46
489.145	9.56
489.346	9.61
489.547	9.77
489.748	9.83
489.949	9.65
490.15	9.72
490.351	9.79
490.552	9.93
490.753	10
490.954	9.9
491.155	9.95
491.356	10.03
491.557	10.06
491.758	9.98
491.959	9.87
492.159	10.04
492.36	9.94
492.561	9.9
492.762	9.87
492.963	9.74
493.164	9.75
493.364	9.65
493.565	9.52
493.766	9.63
493.967	9.63
494.167	9.93
494.368	9.88
494.569	9.75
494.769	9.87
494.97	9.96
495.171	10
495.371	10.13
495.572	10.3
495.773	10.33
495.973	10.29
496.174	10.18
496.375	10.01
496.575	10.02
496.776	10.09
496.976	9.84
497.177	9.81
497.377	9.99
497.578	10.08
497.778	10.03
497.979	10.1
498.179	9.9
498.38	9.91
498.58	10.18
498.78	10.08
498.981	10.1
499.181	10.42
499.382	10.38
499.582	10.06
499.782	9.82
499.983	9.89
500.183	9.62
500.383	9.7
500.584	9.71
500.784	9.44
500.984	9.76
501.184	9.68
501.385	9.62
501.585	9.69
501.785	9.96
501.985	10.19
502.185	10.32
502.386	10.61
502.586	10.58
502.786	10.64
502.986	10.69
503.186	10.65
503.386	10.65
503.586	10.52
503.786	10.46
503.987	10.22
504.187	10.32
504.387	10.22
504.587	10.07
504.787	10.37
504.987	10.47
505.187	10.67
505.387	10.52
505.587	10.78
505.786	10.81
505.986	11.06
506.186	11.33
506.386	11.21
506.586	11.15
506.786	11.12
506.986	11.04
507.186	11.09
507.386	10.92
507.585	11.02
507.785	10.96
507.985	11.15
508.185	10.86
508.384	10.87
508.584	10.92
508.784	11.01
508.984	10.88
509.183	10.95
509.383	10.8
509.583	10.81
509.782	11.1
509.982	11.22
510.182	11.17
510.381	11.35
510.581	11.36
510.781	11.21
510.98	11.18
511.18	11.46
511.379	11.55
511.579	11.63
511.778	11.73
511.978	11.6
512.177	11.53
512.377	11.4
512.576	11.39
512.776	11.41
512.975	11.67
513.175	11.69
513.374	11.77
513.573	11.63
513.773	11.65
513.972	11.64
514.172	11.57
514.371	11.91
514.57	12.07
514.77	11.94
514.969	12.01
515.168	11.9
515.367	12.19
515.567	12.21
515.766	12.54
515.965	12.89
516.164	13
516.364	13.13
516.563	13.13
516.762	13.13
516.961	13.42
517.16	13.57
517.359	13.59
517.559	13.59
517.758	13.63
517.957	13.45
518.156	13.47
518.355	13.32
518.554	13.29
518.753	13.21
518.952	13.38
519.151	13.4
519.35	13.44
519.549	13.55
519.748	13.38
519.947	13.4
520.146	13.66
520.345	13.49
520.544	13.79
520.743	13.89
520.942	14.06
521.141	13.97
521.339	13.98
521.538	14
521.737	14.07
521.936	13.91
522.135	13.7
522.333	13.75
522.532	13.94
522.731	13.79
522.93	13.6
523.129	13.34
523.327	13.6
523.526	13.78
523.725	13.89
523.923	13.89
524.122	13.94
524.321	14.12
524.519	13.99
524.718	13.94
524.917	14.04
525.115	14.21
525.314	14.48
525.512	14.29
525.711	14.25
525.909	14.27
526.108	14.23
526.306	14.39
526.505	14.41
526.703	14.28
526.902	14.32
527.1	14.42
527.299	14.39
527.497	14.33
527.696	14.47
527.894	14.53
528.092	14.42
528.291	14.58
528.489	14.56
528.688	14.59
528.886	14.61
529.084	14.68
529.283	14.7
529.481	14.73
529.679	14.9
529.877	14.78
530.076	14.8
530.274	15.02
530.472	15.04
530.67	15.03
530.869	15.02
531.067	15.24
531.265	15.29
531.463	15.34
531.661	15.56
531.859	15.33
532.057	15.56
532.255	15.51
532.454	15.29
532.652	15.39
532.85	15.57
533.048	15.71
533.246	15.64
533.444	15.67
533.642	15.69
533.84	15.57
534.038	15.55
534.236	15.54
534.434	15.56
534.632	15.74
534.83	15.58
535.027	15.59
535.225	15.55
535.423	15.7
535.621	15.68
535.819	15.56
536.017	15.47
536.215	15.55
536.412	15.59
536.61	15.61
536.808	15.67
537.006	15.71
537.203	15.91
537.401	15.89
537.599	16
537.797	16.02
537.994	16.02
538.192	16.2
538.39	16.54
538.587	16.72
538.785	16.63
538.983	16.59
539.18	16.71
539.378	16.5
539.575	16.53
539.773	16.48
539.97	16.48
540.168	16.57
540.366	16.65
540.563	16.67
540.761	16.48
540.958	16.61
541.155	16.74
541.353	16.78
541.55	16.81
541.748	16.93
541.945	17.04
542.143	17.1
542.34	17.24
542.537	17.15
542.735	17.07
542.932	17.23
543.129	17.28
543.327	17.27
543.524	17.17
543.721	17.24
543.919	17.17
544.116	17.23
544.313	17.26
544.51	17.05
544.708	17.45
544.905	17.69
545.102	17.82
545.299	18.02
545.496	18.02
545.693	18.26
545.891	18.24
546.088	18.55
546.285	18.39
546.482	18.49
546.679	18.77
546.876	18.72
547.073	18.57
547.27	18.34
547.467	18.15
547.664	18.12
547.861	17.87
548.058	18
548.255	17.73
548.452	18.02
548.649	18
548.846	18.01
549.043	18.1
549.24	18.3
549.437	18.45
549.633	18.74
549.83	18.94
550.027	19.23
550.224	19.16
550.421	19.29
550.618	19.28
550.814	18.98
551.011	19
551.208	18.8
551.405	18.82
551.601	19.29
551.798	19.35
551.995	19.26
552.191	19.11
552.388	19.19
552.585	19.29
552.781	19.39
552.978	19.73
553.175	19.33
553.371	19.29
553.568	19.11
553.764	18.83
553.961	18.7
554.157	19.01
554.354	19.11
554.55	19.08
554.747	19.44
554.943	18.94
555.14	18.99
555.336	19.36
555.533	19.59
555.729	19.76
555.926	20.05
556.122	19.61
556.318	19.73
556.515	19.79
556.711	19.86
556.907	19.58
557.104	19.82
557.3	19.75
557.496	19.64
557.693	19.63
557.889	20
558.085	19.98
558.281	20.83
558.478	20.49
558.674	20.81
558.87	20.78
559.066	20.74
559.262	20.97
559.459	20.83
559.655	21.17
559.851	21.77
560.047	21.17
560.243	20.99
560.439	20.89
560.635	21.17
560.831	20.93
561.027	21.3
561.223	21.04
561.419	21.31
561.615	21.67
561.811	21.66
562.007	21.52
562.203	21.94
562.399	22.02
562.595	22.13
562.791	21.83
562.987	22.33
563.183	22.47
563.379	22.91
563.575	22.72
563.771	22.8
563.966	22.82
564.162	22.64
564.358	22.7
564.554	22.74
564.75	22.56
564.945	22.49
565.141	22.21
565.337	22.22
565.533	22.18
565.728	22.04
565.924	22.14
566.12	22.07
566.315	21.78
566.511	21.48
566.707	21.37
566.902	21.41
567.098	21.71
567.293	21.29
567.489	20.78
567.684	20.58
567.88	20.7
568.076	20.54
568.271	20.9
568.467	20.89
568.662	21.4
568.858	21.68
569.053	21.38
569.248	21.32
569.444	21.88
569.639	22.29
569.835	22.62
570.03	22.66
570.225	22.82
570.421	22.47
570.616	22.48
570.812	22.32
571.007	22.24
571.202	22.61
571.397	22.74
571.593	22.83
571.788	22.74
571.983	22.8
572.178	23.13
572.374	23.11
572.569	23.28
572.764	23.5
572.959	23.85
573.154	23.95
573.35	24.36
573.545	24.43
573.74	24.52
573.935	24.49
574.13	24.65
574.325	24.57
574.52	24.37
574.715	24.4
574.91	24.26
575.105	24.11
575.3	24.03
575.495	23.56
575.69	23.67
575.885	23.46
576.08	23.82
576.275	23.59
576.47	23.33
576.665	23.62
576.86	23.58
577.055	23.68
577.25	23.53
577.444	23.98
577.639	24.25
577.834	24.06
578.029	24.05
578.224	23.89
578.418	24.08
578.613	24.5
578.808	24.58
579.003	24.46
579.197	24.94
579.392	25.34
579.587	25.03
579.781	24.57
579.976	24.83
580.171	25.05
580.365	24.67
580.56	24.28
580.755	24.03
580.949	23.83
581.144	24.24
581.338	23.79
581.533	23.61
581.727	23.51
581.922	23.92
582.116	24.04
582.311	23.73
582.505	24.25
582.7	24.44
582.894	24.73
583.089	24.56
583.283	24.66
583.478	25.09
583.672	25.05
583.866	25.17
584.061	25.3
584.255	24.96
584.449	25.23
584.644	25.12
584.838	25.06
585.032	25.18
585.226	25.57
585.421	25.53
585.615	25.47
585.809	25.81
586.003	25.74
586.198	25.77
586.392	25.58
586.586	25.86
586.78	26.31
586.974	26.51
587.168	25.7
587.363	25.79
587.557	25.9
587.751	26.02
587.945	25.75
588.139	25.74
588.333	25.72
588.527	25.99
588.721	26.08
588.915	25.91
589.109	25.96
589.303	26.83
589.497	26.61
589.691	26.7
589.885	26.28
590.079	26.53
590.273	26.8
590.466	26.89
590.66	27.25
590.854	27.01
591.048	27.3
591.242	27.14
591.436	26.47
591.629	26.4
591.823	25.91
592.017	26.3
592.211	26.59
592.404	26.77
592.598	26.28
592.792	26.03
592.986	26.37
593.179	26.07
593.373	26.04
593.567	26.65
593.76	26.65
593.954	27.01
594.147	27.09
594.341	26.42
594.535	26.13
594.728	26.44
594.922	26.38
595.115	25.92
595.309	25.97
595.502	26.47
595.696	26.26
595.889	26.51
596.083	26.44
596.276	26.23
596.47	26.57
596.663	26.61
596.856	26.56
597.05	26.55
597.243	26.71
597.437	26.79
597.63	26.55
597.823	26.71
598.017	26.9
598.21	27
598.403	27.16
598.596	27.19
598.79	27.01
598.983	26.98
599.176	27.29
599.369	27.46
599.563	27.67
599.756	28.23
599.949	28.2
600.142	28
600.335	28.18
600.528	28.39
600.722	28.24
600.915	28.51
601.108	28.75
601.301	28.45
601.494	27.98
601.687	28.08
601.88	27.55
602.073	27.47
602.266	27.33
602.459	27.19
602.652	27.43
602.845	27.57
603.038	27.62
603.231	27.51
603.424	27.6
603.617	27.92
603.809	27.38
604.002	27.31
604.195	27.09
604.388	27.34
604.581	27.4
604.774	27.41
604.966	26.88
605.159	26.85
605.352	26.82
605.545	26.99
605.737	26.98
605.93	27.54
606.123	27.81
606.316	28.29
606.508	28.07
606.701	28.08
606.894	28.04
607.086	28.61
607.279	28.97
607.471	29.13
607.664	28.97
607.857	28.73
608.049	28.23
608.242	28.55
608.434	28.67
608.627	28.86
608.819	28.71
609.012	28.51
609.204	28.29
609.397	27.89
609.589	27.92
609.782	27.84
609.974	27.98
610.166	27.92
610.359	27.24
610.551	27.02
610.743	27.19
610.936	27.58
611.128	27.51
611.32	27.8
611.513	27.9
611.705	28.16
611.897	28.19
612.09	28.31
612.282	28.9
612.474	28.66
612.666	28.58
612.858	27.8
613.051	27.38
613.243	27.34
613.435	27.61
613.627	27.65
613.819	27.22
614.011	28.18
614.203	28.74
614.395	28.72
614.588	29.52
614.78	29.99
614.972	31.11
615.164	31.34
615.356	31.41
615.548	31.15
615.74	31.77
615.932	31.89
616.124	31.1
616.315	30.36
616.507	30.36
616.699	30.07
616.891	29.83
617.083	29.37
617.275	29.25
617.467	29.63
617.659	29.76
617.85	29.36
618.042	29.84
618.234	30.42
618.426	30.4
618.618	29.8
618.809	30.16
619.001	30.33
619.193	29.62
619.384	30.14
619.576	29.77
619.768	29.83
619.959	29.36
620.151	28.26
620.343	28.13
620.534	28.84
620.726	29.18
620.917	28.89
621.109	28.57
621.301	29.58
621.492	28.91
621.684	29.43
621.875	29.1
622.067	29.46
622.258	30.48
622.45	30.2
622.641	29.55
622.832	29.38
623.024	29.33
623.215	28.88
623.407	28.31
623.598	29.33
623.789	28.92
623.981	29.79
624.172	29.69
624.363	29.41
624.555	29.22
624.746	29.22
624.937	29.62
625.129	30.3
625.32	30.96
625.511	31.13
625.702	30.2
625.893	30.16
626.085	29.2
626.276	29.68
626.467	29.44
626.658	29.52
626.849	30.02
627.04	30.11
627.231	29.16
627.422	29.22
627.614	29.5
627.805	29.79
627.996	30.12
628.187	30.57
628.378	30.44
628.569	31.03
628.76	31.1
628.951	30.77
629.142	30.98
629.332	31.55
629.523	31.28
629.714	31.46
629.905	31.7
630.096	31.19
630.287	31.34
630.478	31.41
630.669	31.11
630.859	31.46
631.05	31.93
631.241	31.4
631.432	31.51
631.623	31.53
631.813	31
632.004	30.71
632.195	30.66
632.385	30.49
632.576	30.34
632.767	30.54
632.957	30.56
633.148	30.23
633.339	30.06
633.529	30.07
633.72	29.97
633.91	30.7
634.101	31.08
634.292	31.63
634.482	31.62
634.673	32.09
634.863	32.35
635.054	31.94
635.244	31.72
635.435	32.22
635.625	32.37
635.815	32.88
636.006	32.33
636.196	32.36
636.387	32.23
636.577	32.33
636.767	31.56
636.958	31.1
637.148	31.34
637.338	31.56
637.529	31.41
637.719	31.01
637.909	30.73
638.099	30.91
638.29	30.51
638.48	31.18
638.67	31.38
638.86	31.98
639.05	32.13
639.241	32.21
639.431	32.32
639.621	32.92
639.811	32.74
640.001	32.62
640.191	32.23
640.381	32.72
640.571	31.77
640.761	31.18
640.951	30.97
641.141	31.59
641.331	31.54
641.521	31.46
641.711	31.44
641.901	31.35
642.091	31.65
642.281	31.82
642.471	31.52
642.661	31.62
642.851	32.46
643.041	32.78
643.231	32.69
643.42	32.62
643.61	32.92
643.8	32.62
643.99	33.37
644.18	33.3
644.369	33.42
644.559	33.29
644.749	33.33
644.939	32.68
645.128	32.33
645.318	31.74
645.508	32.02
645.697	32.46
645.887	32.02
646.076	32.15
646.266	32.09
646.456	31.47
646.645	31.96
646.835	31.79
647.024	31.55
647.214	31.67
647.403	31.43
647.593	31.25
647.782	30.71
647.972	31.01
648.161	30.07
648.351	30.34
648.54	30.93
648.73	30.16
648.919	29.53
649.108	29.99
649.298	30.42
649.487	30.32
649.677	30.57
649.866	30.6
650.055	30.35
650.244	30.9
650.434	29.89
650.623	29.78
650.812	30.13
651.002	31.33
651.191	31.12
651.38	31.05
651.569	31.73
651.758	31.31
651.947	31.81
652.137	31.9
652.326	31.63
652.515	31.79
652.704	32.66
652.893	32.82
653.082	32.26
653.271	32.71
653.46	32.15
653.649	31.59
653.838	31.5
654.027	31.12
654.216	31.19
654.405	31.31
654.594	32.4
654.783	31.49
654.972	31.53
655.161	32.06
655.35	32.25
655.539	32.23
655.728	32.57
655.916	32.74
656.105	33.04
656.294	32.58
656.483	32.97
656.672	32.64
656.86	32.49
657.049	32.79
657.238	31.82
657.427	31.06
657.615	31.47
657.804	30.77
657.993	30.39
658.181	29.2
658.37	30.18
658.559	30.16
658.747	29.84
658.936	29.91
659.125	29.81
659.313	30.22
659.502	30.8
659.69	30.47
659.879	30.2
660.067	30.76
660.256	31.57
660.444	30.86
660.633	30.54
660.821	31.28
661.01	31.12
661.198	30.72
661.387	31.39
661.575	30.66
661.763	30.5
661.952	31.64
662.14	31.66
662.328	31.47
662.517	31.37
662.705	31.42
662.893	30.87
663.082	31.38
663.27	31.29
663.458	30.23
663.646	31.03
663.834	31.67
664.023	31.16
664.211	31.05
664.399	31.06
664.587	30.59
664.775	30.74
664.963	31.28
665.152	31.01
665.34	31.48
665.528	32.45
665.716	32.76
665.904	32.43
666.092	32.54
666.28	33.24
666.468	33
666.656	34.08
666.844	34.47
667.032	34.55
667.22	34.18
667.408	33.86
667.596	32.99
667.784	33.03
667.971	32.48
668.159	32.8
668.347	32.19
668.535	33.2
668.723	33.16
668.911	33.37
669.098	33.09
669.286	33.46
669.474	33.64
669.662	35.08
669.849	35.42
670.037	36.43
670.225	36.8
670.413	36.49
670.6	35.73
670.788	35.22
670.976	35.25
671.163	35.29
671.351	35.72
671.538	35.59
671.726	34.44
671.913	33.74
672.101	32.42
672.289	32.39
672.476	32.4
672.664	32.87
672.851	32.77
673.039	32.28
673.226	31.6
673.413	31.31
673.601	31.94
673.788	33.17
673.976	32.89
674.163	33.5
674.35	32.78
674.538	33.41
674.725	34.58
674.912	35.34
675.1	34.78
675.287	34.51
675.474	34.8
675.662	34.92
675.849	34.31
676.036	34.37
676.223	35.42
676.411	35.62
676.598	35.18
676.785	34.64
676.972	34.37
677.159	35.4
677.346	35.91
677.533	35.78
677.721	36.06
677.908	35.18
678.095	36.04
678.282	35.12
678.469	35.5
678.656	35.22
678.843	34.77
679.03	34.48
679.217	34.08
679.404	34.39
679.591	34.49
679.778	33.36
679.964	33.13
680.151	32.74
680.338	32.7
680.525	32.22
680.712	33.06
680.899	32.23
681.086	32.64
681.272	32.49
681.459	32.7
681.646	32.72
681.833	32.74
682.02	33.73
682.206	34.05
682.393	34.54
682.58	34.82
682.766	34.17
682.953	34.88
683.14	34.95
683.326	35.28
683.513	34.97
683.7	33.97
683.886	34.76
684.073	34.64
684.259	34.3
684.446	34.13
684.632	33.62
684.819	34.25
685.005	34.86
685.192	34.9
685.378	34.87
685.565	34.93
685.751	35.56
685.938	35.17
686.124	34.5
686.31	34.79
686.497	35.2
686.683	36.18
686.87	35.81
687.056	35.24
687.242	35.48
687.429	35.09
687.615	34.78
687.801	35.45
687.987	35.81
688.174	36.8
688.36	36.45
688.546	35.97
688.732	35.17
688.918	35.92
689.105	35.96
689.291	35.94
689.477	36.49
689.663	36.87
689.849	37.02
690.035	36.95
690.221	35.91
690.407	36.61
690.593	37.21
690.779	38.26
690.965	37.12
691.151	36.52
691.337	36.49
691.523	36.45
691.709	35.78
691.895	35.85
692.081	36.01
692.267	36.32
692.453	35.27
692.639	34.49
692.825	34.26
693.011	34.31
693.196	35.64
693.382	35.84
693.568	36.42
693.754	36.98
693.94	36.01
694.125	35.98
694.311	36.38
694.497	36.48
694.682	36.74
694.868	36.58
695.054	36.46
695.239	36.14
695.425	35.69
695.611	34.6
695.796	35.06
695.982	34.47
696.168	34.5
696.353	34.93
696.539	34.96
696.724	34.93
696.91	34.96
697.095	35.63
697.281	35.43
697.466	35.73
697.652	35.66
697.837	35.12
698.023	35.7
698.208	34.86
698.393	34.05
698.579	34.39
698.764	34.37
698.949	33.97
699.135	33.7
699.32	33.66
699.505	33.92
699.691	34.09
699.876	33.85
700.061	33.71
700.246	33.79
700.432	33.25
700.617	33.04
700.802	32.61
700.987	33.01
701.172	33.47
701.358	34.28
701.543	33.3
701.728	34.29
701.913	35.64
702.098	34.81
702.283	35.7
702.468	37.07
702.653	37.2
702.838	38.31
703.023	38.2
703.208	37.35
703.393	36.77
703.578	38.26
703.763	37.65
703.948	36.41
704.133	38.6
704.318	39.39
704.503	39.33
704.688	38.62
704.873	37.7
705.057	38.91
705.242	39.91
705.427	40.75
705.612	40.77
705.797	41.89
705.981	41.95
706.166	41.13
706.351	39.63
706.536	39.45
706.72	39.62
706.905	39.97
707.09	39.71
707.274	39.92
707.459	39.26
707.644	37.29
707.828	35.9
708.013	36.63
708.197	37.35
708.382	38.63
708.567	38.94
708.751	38.82
708.936	39.67
709.12	38.86
709.305	37.8
709.489	37.36
709.673	38.06
709.858	38.12
710.042	38
710.227	36.65
710.411	36.19
710.596	35.87
710.78	36.46
710.964	35.67
711.149	35.83
711.333	36.35
711.517	36.18
711.702	36.28
711.886	37.32
712.07	37.67
712.254	38.79
712.438	39.07
712.623	40.03
712.807	40.24
712.991	38.48
713.175	38.38
713.359	38.14
713.544	37.89
713.728	37.64
713.912	36.24
714.096	36.35
714.28	34.83
714.464	35.02
714.648	34.69
714.832	35.22
715.016	36.93
715.2	36.82
715.384	36.51
715.568	36.65
715.752	36.25
715.936	35.94
716.12	35.56
716.304	35.92
716.488	35.31
716.671	35.15
716.855	34.91
717.039	34.49
717.223	34.83
717.407	35.92
717.59	36.15
717.774	37.1
717.958	39.13
718.142	38.61
718.325	39.18
718.509	38.89
718.693	39.84
718.877	40.01
719.06	41.48
719.244	40.98
719.428	40.86
719.611	42.62
719.795	42.06
719.978	42.31
720.162	43.06
720.345	43.09
720.529	43.33
720.713	42.38
720.896	41.36
721.08	40.48
721.263	40.82
721.446	40.06
721.63	39.92
721.813	40.03
721.997	39.48
722.18	40.69
722.364	41.81
722.547	42.26
722.73	42.53
722.914	42.15
723.097	43.71
723.28	44.46
723.464	45.47
723.647	44.51
723.83	44.73
724.013	45.74
724.197	43.66
724.38	41.73
724.563	43.04
724.746	44.34
724.929	46
725.112	44.97
725.296	45.49
725.479	45.75
725.662	45.3
725.845	44.72
726.028	43.92
726.211	44.58
726.394	45.24
726.577	41.74
726.76	40.34
726.943	38.6
727.126	37.88
727.309	36.92
727.492	36.76
727.675	36.5
727.858	37.89
728.041	37.4
728.224	37.28
728.407	37.26
728.589	39.5
728.772	39.07
728.955	38.94
729.138	38.56
729.321	37.92
729.503	37.67
729.686	37.54
729.869	37.55
730.052	37.02
730.234	37.26
730.417	36.97
730.6	36.81
730.782	36.87
730.965	37.19
731.148	37.11
731.33	36.78
731.513	36.33
731.695	36.22
731.878	36.5
732.061	36.01
732.243	35.98
732.426	36.06
732.608	35.44
732.791	35.55
732.973	35.81
733.156	36.54
733.338	36.87
733.52	37.59
733.703	38.36
733.885	36.87
734.068	37.88
734.25	36.18
734.432	37.1
734.615	37.43
734.797	36.12
734.979	35.72
735.162	36.74
735.344	36.62
735.526	34.7
735.708	33.99
735.891	32.46
736.073	33.78
736.255	34.76
736.437	34.43
736.619	34.45
736.802	36.51
736.984	37.92
737.166	38.38
737.348	39.49
737.53	40.97
737.712	42.04
737.894	43.87
738.076	42.36
738.258	42.63
738.44	43
738.622	42.95
738.804	42.38
738.986	40.36
739.168	39.2
739.35	38.83
739.532	39.73
739.714	40.42
739.896	39.75
740.078	41.26
740.259	41.95
740.441	42.45
740.623	42.93
740.805	43.6
740.987	44.34
741.168	43.56
741.35	43.7
741.532	42.91
741.714	41.18
741.895	41.84
742.077	39.97
742.259	38.57
742.44	37.53
742.622	38.36
742.804	38.22
742.985	39.48
743.167	41.09
743.348	42.27
743.53	41.22
743.711	42.35
743.893	42.59
744.075	42.75
744.256	45.1
744.438	46.29
744.619	47.62
744.8	46.73
744.982	47.19
745.163	49.18
745.345	47.58
745.526	49.4
745.707	49.27
745.889	49.41
746.07	53.08
746.252	50.1
746.433	47.46
746.614	47.59
746.795	47.12
746.977	46.95
747.158	43.86
747.339	42.27
747.52	42.22
747.702	41.47
747.883	38.86
748.064	35.51
748.245	39.1
748.426	40.2
748.607	39.12
748.788	41.63
748.97	38.69
749.151	39.33
749.332	40.76
749.513	40.35
749.694	39.84
749.875	43.75
750.056	44.71
750.237	42.8
750.418	46.04
750.599	45.08
750.78	44.05
750.96	46.44
751.141	46.55
751.322	47.08
751.503	45.26
751.684	48.17
751.865	45.07
752.046	44.46
752.226	43.78
752.407	42.09
752.588	41.78
752.769	40.66
752.949	39.96
753.13	41.1
753.311	41.24
753.492	43.08
753.672	43.02
753.853	46.55
754.034	49.19
754.214	48.57
754.395	49.84
754.575	50.14
754.756	49.16
754.937	50.69
755.117	49.25
755.298	51.14
755.478	51.37
755.659	49.08
755.839	47.53
756.02	45.46
756.2	48.41
756.381	46.08
756.561	47.01
756.741	51.07
756.922	49.89
757.102	51.88
757.283	50.07
757.463	48.95
757.643	50.55
757.823	49.24
758.004	48.6
758.184	46.08
758.364	46.01
758.545	44.72
758.725	42.35
758.905	44.58
759.085	43.83
759.265	42.38
759.446	41.9
759.626	41.05
759.806	40.57
759.986	40.17
760.166	41.48
760.346	42.92
760.526	40.7
760.706	41.87
760.886	39.31
761.066	38.01
761.246	38.23
761.426	38.65
761.606	36.91
761.786	36.49
761.966	36.78
762.146	36.16
762.326	35.31
762.506	37.43
762.686	36.73
762.866	37.24
763.046	36.69
763.225	36.85
763.405	36.51
763.585	36.61
763.765	37.7
763.945	37.31
764.124	37.84
764.304	38.46
764.484	39.84
764.664	39.34
764.843	39.8
765.023	42.36
765.203	40.68
765.382	41.23
765.562	43.15
765.741	43.15
765.921	43.81
766.101	44.04
766.28	43.22
766.46	41.46
766.639	42
766.819	41.85
766.998	40.71
767.178	41.37
767.357	42.22
767.537	45.39
767.716	44.46
767.896	42.92
768.075	41.21
768.254	41.89
768.434	41
768.613	43.13
768.792	41.9
768.972	40.08
769.151	42.69
769.33	41.86
769.51	38.82
769.689	40.92
769.868	42.2
770.047	42.36
770.226	41.07
770.406	40.14
770.585	37.54
770.764	38.9
770.943	40.39
771.122	40.56
771.301	42.76
771.48	43.09
771.66	43.75
771.839	46.15
772.018	49.26
772.197	51.65
772.376	55.86
772.555	61.41
772.734	59.28
772.913	60.11
773.092	59.84
773.271	55.97
773.449	55.96
773.628	56.05
773.807	55.32
773.986	53.29
774.165	50.2
774.344	48.56
774.523	43.99
774.701	46.07
774.88	46.85
775.059	47.08
775.238	51.17
775.417	50.77
775.595	50.19
775.774	48.03
775.953	50.82
776.131	53.77
776.31	53.63
776.489	53.21
776.667	52.27
776.846	50.2
777.025	51.21
777.203	48.2
777.382	45.76
777.56	44.06
777.739	46.53
777.917	45.36
778.096	46.1
778.274	47.77
778.453	47.1
778.631	46.13
778.81	45.09
778.988	44.34
779.166	44.63
779.345	47.33
779.523	50.57
779.702	50.72
779.88	51.82
780.058	49.43
780.237	47.45
780.415	50.29
780.593	52.77
780.771	56.81
780.95	56.86
781.128	60.85
781.306	63.41
781.484	61.76
781.662	63.58
781.841	61.65
782.019	59.7
782.197	58.52
782.375	56.19
782.553	55.03
782.731	52.46
782.909	52.81
783.087	48.96
783.265	48.5
783.443	48.38
783.621	45.84
783.799	47.19
783.977	50.75
784.155	53.71
784.333	51.91
784.511	52.64
784.689	54.35
784.867	53.1
785.045	54.07
785.223	50.74
785.4	50.11
785.578	48.06
785.756	43
785.934	43.46
786.112	41.32
786.289	43.48
786.467	46.44
786.645	46.12
786.823	47.76
787	50.69
787.178	53.2
787.356	52.06
787.533	52.71
787.711	53.99
787.889	54.54
788.066	54.1
788.244	56.67
788.421	51.77
788.599	49.57
788.776	51.58
788.954	51.92
789.131	48.27
789.309	49.12
789.486	51.25
789.664	55.44
789.841	54.25
790.019	53.64
790.196	49.75
790.373	51.44
790.551	53.89
790.728	53.36
790.906	51.63
791.083	54.51
791.26	54.49
791.437	52.46
791.615	53.58
791.792	51.14
791.969	56.21
792.146	57.75
792.324	61.28
792.501	63.95
792.678	61.08
792.855	58.2
793.032	58.02
793.209	52.39
793.387	53.04
793.564	51.66
793.741	54.66
793.918	52
794.095	52.08
794.272	52.12
794.449	51.11
794.626	50.07
794.803	52.93
794.98	49.66
795.157	51.17
795.334	48.23
795.511	43.41
795.688	41.12
795.864	44.83
796.041	44.63
796.218	45.56
796.395	40.79
796.572	42.74
796.749	37.77
796.925	39.48
797.102	40.26
797.279	43.3
797.456	46.86
797.632	46.58
797.809	46.28
797.986	47.1
798.162	46.24
798.339	49.62
798.516	45.86
798.692	51.88
798.869	53.39
799.046	53.21
799.222	54
799.399	55.49
799.575	60.44
799.752	56.69
799.928	53.25
800.105	51.98
800.281	50.67
800.458	53.84
800.634	47.24
800.811	47.46
800.987	53.5
801.163	50
801.34	50.57
801.516	48.96
801.692	47.92
801.869	52.07
802.045	51.12
802.221	51.01
802.398	49.45
802.574	56.93
802.75	53.77
802.926	50.84
803.103	54.35
803.279	47.47
803.455	46.15
803.631	49.1
803.807	44.06
803.983	45.57
804.16	51.51
804.336	50.27
804.512	48.92
804.688	55.57
804.864	51.51
805.04	53.48
805.216	59.16
805.392	57.91
805.568	57.67
805.744	60.41
805.92	56.12
806.096	54.18
806.272	60.12
806.448	61.1
806.623	62.53
806.799	66.41
806.975	61.75
807.151	58.72
807.327	61.26
807.503	59.47
807.678	57.24
807.854	62.95
808.03	55.61
808.206	47.83
808.381	47.93
808.557	42.54
808.733	42.08
808.908	42.74
809.084	43.16
809.26	46.37
809.435	48.6
809.611	51.62
809.787	48.01
809.962	53.76
810.138	55.02
810.313	56.71
810.489	55.01
810.664	55.68
810.84	56.95
811.015	56.45
811.191	53.53
811.366	52.2
811.542	54.05
811.717	50.69
811.892	49.36
812.068	52.5
812.243	52.91
812.419	60.32
812.594	63.1
812.769	60.68
812.944	68.35
813.12	65.39
813.295	68.45
813.47	66.73
813.645	71.11
813.821	72.69
813.996	73.59
814.171	72.89
814.346	70.18
814.521	69.77
814.697	66.91
814.872	61.75
815.047	70.46
815.222	66.53
815.397	65.09
815.572	69.31
815.747	69.71
815.922	65.73
816.097	60.44
816.272	58.92
816.447	60.25
816.622	62.89
816.797	62.35
816.972	57.63
817.147	56.01
817.322	56.06
817.496	55.6
817.671	53.47
817.846	53.94
818.021	52.27
818.196	48.81
818.371	42.32
818.545	44.96
818.72	48.21
818.895	47.55
819.069	46.98
819.244	49.89
819.419	47.42
819.594	42.96
819.768	42.72
819.943	45.27
820.117	45.67
820.292	46.8
820.467	43.61
820.641	41.79
820.816	40.51
820.99	40.68
821.165	37.31
821.339	35.66
821.514	36.32
821.688	35.58
821.863	34.48
822.037	34.2
822.212	33.1
822.386	33.82
822.56	32.67
822.735	31.94
822.909	31.5
823.084	31.51
823.258	31.54
823.432	31.28
823.606	31.33
823.781	31.15
823.955	32.02
824.129	31.77
824.303	31.24
824.478	31.49
824.652	32.64
824.826	34.41
825	35.71
825.174	35.9
825.348	36.31
825.523	33.97
825.697	34.85
825.871	32.72
826.045	32.59
826.219	31.4
826.393	31.06
826.567	29.81
826.741	28.83
826.915	29.51
827.089	30.74
827.263	31.58
827.437	34.73
827.611	35.6
827.784	37.12
827.958	40.43
828.132	42.25
828.306	43.32
828.48	46.22
828.654	45.55
828.827	46.54
829.001	45.04
829.175	44.37
829.349	45.19
829.522	45.34
829.696	46.07
829.87	44.87
830.044	47.43
830.217	51.93
830.391	50.95
830.565	51.51
830.738	47.04
830.912	49.39
831.085	49.89
831.259	47.17
831.432	51.52
831.606	51.19
831.779	48
831.953	46.01
832.126	44.15
832.3	45.55
832.473	42.25
832.647	41.76
832.82	42.27
832.994	42.53
833.167	42.15
833.34	39.26
833.514	38.22
833.687	40.32
833.86	37.61
834.034	36.45
834.207	32.37
834.38	33.84
834.553	37.14
834.727	37.48
834.9	38.66
835.073	40.9
835.246	41.63
835.419	45.06
835.593	43.72
835.766	44.89
835.939	46.46
836.112	52.99
836.285	54.68
836.458	52.34
836.631	50.77
836.804	53.54
836.977	55.09
837.15	54.85
837.323	55.5
837.496	55.85
837.669	65.27
837.842	69.89
838.015	65.66
838.188	66.72
838.361	65.18
838.533	66.91
838.706	64.64
838.879	63.98
839.052	65.64
839.225	66.42
839.398	72.03
839.57	66.89
839.743	60.82
839.916	67.95
840.088	64.85
840.261	63.54
840.434	64.42
840.607	64.13
840.779	68.85
840.952	72.77
841.124	68.09
841.297	63.92
841.47	67.51
841.642	70
841.815	68.93
841.987	72.21
842.16	78.04
842.332	89.36
842.505	83.64
842.677	66.51
842.85	67.79
843.022	73.79
843.194	72.93
843.367	59.94
843.539	59.35
843.712	48.4
843.884	60.06
844.056	74.33
844.229	61.37
844.401	72.39
844.573	75.15
844.745	64.82
844.918	66.69
845.09	68.36
845.262	79.89
845.434	86.29
845.606	93.77
845.779	79.13
845.951	70.06
846.123	77.91
846.295	69.54
846.467	80.02
846.639	88.14
846.811	88.99
846.983	91.35
847.155	81.93
847.327	81.09
847.499	86.51
847.671	105.17
847.843	109.87
848.015	119.53
848.187	116.82
848.359	114
848.531	129.06
848.703	130.93
848.875	160.73
849.047	153.26
849.218	172.91
849.39	149.91
849.562	122.5
849.734	100
849.905	100.85
850.077	115.71
850.249	146.37
850.421	103.74
850.592	39.1
850.764	28.08
850.936	43.15
851.107	59.68
851.279	69.43
851.451	75.44
851.622	84.93
851.794	84.34
851.965	73.77
852.137	58.4
852.308	71.27
852.48	91.07
852.651	87.51
852.823	88.73
852.994	92.23
853.166	90.55
853.337	100.07
853.509	110.37
853.68	136.15
853.851	118.28
854.023	134.72
854.194	101.87
854.365	91.72
854.537	110.31
854.708	135.8
854.879	126.15
855.05	108.76
855.222	94.07
855.393	33.92
855.564	28.42
855.735	83.37
855.906	96.92
856.078	126.96
856.249	139.6
856.42	123.08
856.591	116
856.762	113.45
856.933	140.04
857.104	140.17
857.275	166.09
857.446	107.5
857.617	88.24
857.788	98.67
857.959	102.85
858.13	89.67
858.301	96.26
858.472	101.47
858.643	120
858.814	127.3
858.985	144.37
859.155	140.6
859.326	196.84
859.497	214.65
859.668	155.48
859.839	212.22
860.009	181.92
860.18	140.29
860.351	114.21
860.522	97.73
860.692	88.55
860.863	67.93
861.034	79.34
861.204	74.68
861.375	82.13
861.546	82.71
861.716	75.12
861.887	66.74
862.057	71.63
862.228	68.19
862.398	91.65
862.569	91.68
862.739	90.78
862.91	85.76
863.08	94.27
863.251	61.67
863.421	78.96
863.592	98.28
863.762	115.19
863.932	108.72
864.103	124.06
864.273	105.93
864.443	101.73
864.614	111.21
864.784	116.04
864.954	112.29
865.125	122.09
865.295	126.84
865.465	123.63
865.635	139.15
865.805	126.51
865.976	123.98
866.146	124.35
866.316	152.36
866.486	183.39
866.656	134.91
866.826	140.57
866.996	120.37
867.166	128.08
867.336	118.02
867.506	96.73
867.676	73.58
867.846	71.83
868.016	53.29
868.186	46.12
868.356	50.38
868.526	38.15
868.696	32.73
868.866	32.34
869.036	18.23
869.206	20.05
869.376	-1.5
869.545	39.43
869.715	52.31
869.885	74.84
870.055	84.58
870.224	98.54
870.394	161.47
870.564	148.84
870.734	194.42
870.903	171.17
871.073	192.8
871.243	191.62
871.412	162.32
871.582	114.4
871.751	113.35
871.921	106.68
872.091	97.83
872.26	99.28
872.43	66.9
872.599	59.42
872.769	72.89
872.938	78.84
873.108	86.87
873.277	87.46
873.446	155.49
873.616	134.41
873.785	148.02
873.955	188.94
874.124	136.56
874.293	356.92
874.463	520.96
874.632	593.18
874.801	578.99
874.971	190.82
875.14	248.91
875.309	149.35
875.478	154.32
875.647	149.93
875.817	117.04
875.986	145.3
876.155	165.08
876.324	143.62
876.493	141.87
876.662	134.43
876.831	146.13
877	138.57
877.17	143.02
877.339	161.03
877.508	129.56
877.677	151.28
877.846	129.19
878.015	95.26
878.184	95.34
878.352	85.04
878.521	92.02
878.69	100.95
878.859	83.37
879.028	99.21
879.197	90.47
879.366	104.69
879.534	78.17
879.703	78.06
879.872	61.24
880.041	51.08
880.21	46.99
880.378	33.84
880.547	29.47
880.716	35.52
880.884	34.57
881.053	29.95
881.222	22.46
881.39	30.37
881.559	28.23
881.727	30.47
881.896	32.24
882.065	34.17
882.233	34.86
882.402	34.61
882.57	35.35
882.739	35.23
882.907	38.83
883.076	43.73
883.244	45.48
883.412	45.64
883.581	46.63
883.749	47.48
883.918	50.24
884.086	54.34
884.254	53.65
884.423	53.29
884.591	55.21
884.759	49.98
884.927	45.85
885.096	40.49
885.264	50.4
885.432	56.66
885.6	56.49
885.769	55.33
885.937	55.26
886.105	60.66
886.273	64.65
886.441	63.84
886.609	69.63
886.777	76.69
886.945	93.66
887.113	89.44
887.281	96.99
887.449	98.9
887.617	103.37
887.785	115.1
887.953	107.85
888.121	100.42
888.289	113.5
888.457	151.44
888.625	204.22
888.793	160.75
888.961	164.02
889.129	122.09
889.296	123.49
889.464	128.86
889.632	108.48
889.8	130.81
889.967	141.55
890.135	144.37
