Data from JASIL_3205_Reflection_01.txt Node
Date: Fri Nov 13 14:37:56 EST 2015
User: Geneva
Spectrometer: USB4E03002
Autoset integration time: false
Trigger mode: 4
Integration Time (sec): 1.000000E-1
Scans to average: 10
Electric dark correction enabled: false
Nonlinearity correction enabled: false
Boxcar width: 5
Stray light correction enabled: false
XAxis mode: Wavelengths
Stop averaging: false
Number of Pixels in Spectrum: 3648
>>>>>Begin Spectral Data<<<<<
177.575	79.45
177.794	86.16
178.014	92.18
178.233	93.46
178.452	96.86
178.672	105.07
178.891	108.91
179.11	111.36
179.33	112.95
179.549	111.89
179.768	112.27
179.987	112.39
180.207	112.15
180.426	105.49
180.645	104.46
180.864	103.9
181.084	94.92
181.303	95.41
181.522	95.47
181.741	94.42
181.96	93.83
182.179	93.5
182.398	95.17
182.618	91.41
182.837	95.44
183.056	94.02
183.275	93.99
183.494	95.77
183.713	94.8
183.932	98.27
184.151	102.93
184.37	106.68
184.589	109.98
184.808	118.56
185.027	127.26
185.246	123.68
185.465	120.98
185.684	128.13
185.903	126.95
186.122	128.43
186.341	122.65
186.56	118.54
186.779	119.44
186.998	115.93
187.216	114.45
187.435	108.67
187.654	110.65
187.873	117.37
188.092	109.27
188.311	110.08
188.53	109.31
188.748	105.18
188.967	103.27
189.186	98.49
189.405	100.51
189.623	97.71
189.842	96.81
190.061	95.26
190.28	94.42
190.498	94.95
190.717	94.12
190.936	93.83
191.154	101.24
191.373	103.68
191.592	106.63
191.81	101.87
192.029	96.64
192.248	94.95
192.466	95.65
192.685	95.19
192.904	95.56
193.122	97.03
193.341	97.38
193.559	91.55
193.778	92.01
193.996	87.46
194.215	96.46
194.433	100.2
194.652	106.41
194.87	106.69
195.089	104.22
195.307	107
195.526	107.56
195.744	104.92
195.963	104.13
196.181	106.06
196.399	111.14
196.618	107.44
196.836	105.79
197.055	101.68
197.273	96.98
197.491	96.88
197.71	98.22
197.928	100
198.146	97.99
198.365	99.86
198.583	98.03
198.801	91.81
199.019	91.74
199.238	96.8
199.456	98.07
199.674	108.25
199.892	110.6
200.111	107.02
200.329	100.16
200.547	105.72
200.765	104.34
200.983	106.27
201.202	109.69
201.42	114.3
201.638	108.48
201.856	104.27
202.074	97.69
202.292	96.87
202.51	97.24
202.728	103.25
202.946	101.84
203.165	102.43
203.383	98.39
203.601	95.41
203.819	88.27
204.037	86.35
204.255	91.95
204.473	96.23
204.691	95.24
204.909	99.83
205.127	99.79
205.345	102.66
205.562	103.9
205.78	105.94
205.998	115.78
206.216	128.67
206.434	126.82
206.652	125.17
206.87	117.73
207.088	117.53
207.306	112.93
207.523	108.53
207.741	108.82
207.959	103.86
208.177	103.32
208.395	100.17
208.612	94.84
208.83	93.42
209.048	90.4
209.266	99.21
209.483	98.65
209.701	100.27
209.919	97.97
210.136	98.27
210.354	103.66
210.572	104.38
210.79	103.02
211.007	105.05
211.225	102.24
211.442	106.64
211.66	100.6
211.878	98.76
212.095	63.24
212.313	65.85
212.53	66.67
212.748	68.07
212.966	68.35
213.183	72.26
213.401	73.52
213.618	79.31
213.836	82.82
214.053	82.85
214.271	83.3
214.488	123.88
214.705	125.28
214.923	128.38
215.14	130.53
215.358	134.09
215.575	129.24
215.793	137.03
216.01	143.09
216.227	134.03
216.445	130.69
216.662	136.74
216.879	126.68
217.097	129.66
217.314	125.52
217.531	120.61
217.749	115.46
217.966	106.48
218.183	103.59
218.4	99.16
218.618	98.7
218.835	101.21
219.052	97.88
219.269	108.39
219.487	101.56
219.704	103.36
219.921	105.19
220.138	106.14
220.355	108.38
220.572	105.39
220.79	103.14
221.007	100.06
221.224	99.43
221.441	96.07
221.658	90.06
221.875	95.42
222.092	94.3
222.309	95.93
222.526	95.35
222.743	102.23
222.96	100.34
223.177	99.57
223.394	100.87
223.611	102.58
223.828	107.1
224.045	109.67
224.262	108.01
224.479	105.25
224.696	104.88
224.913	102.15
225.13	93.76
225.347	94.4
225.564	94.98
225.781	94.36
225.997	89.25
226.214	86.65
226.431	86.51
226.648	77.65
226.865	75.83
227.082	75.33
227.298	71.33
227.515	74.14
227.732	70.29
227.949	68.87
228.165	67.46
228.382	66.34
228.599	66.45
228.816	63.25
229.032	64.77
229.249	63.72
229.466	59.81
229.682	62.27
229.899	62.55
230.116	62.65
230.332	62.01
230.549	65.31
230.765	69.66
230.982	70.4
231.199	71.77
231.415	72.92
231.632	77.49
231.848	77.02
232.065	81.21
232.281	76.9
232.498	75.24
232.714	77.08
232.931	73.7
233.147	73.82
233.364	74.29
233.58	76.28
233.797	77.99
234.013	76.81
234.23	80.15
234.446	77.24
234.662	82.99
234.879	85.96
235.095	84.49
235.312	87.81
235.528	84.98
235.744	85.02
235.961	82.91
236.177	82.39
236.393	82.53
236.61	80.24
236.826	83.92
237.042	84.73
237.258	84.92
237.475	85.06
237.691	82.26
237.907	85.74
238.123	83.02
238.339	82.11
238.556	80.75
238.772	76.44
238.988	78.01
239.204	76.47
239.42	77.67
239.636	77.39
239.853	76.77
240.069	74.35
240.285	71.28
240.501	68.54
240.717	69.59
240.933	70.94
241.149	71.49
241.365	69.6
241.581	68.79
241.797	66.11
242.013	62.9
242.229	62.68
242.445	67.72
242.661	66.8
242.877	68.59
243.093	68.21
243.309	66.37
243.525	66.04
243.741	64.59
243.957	62.83
244.173	62
244.388	60.55
244.604	55.67
244.82	50.23
245.036	47.61
245.252	46.7
245.468	41.91
245.683	41.03
245.899	40.34
246.115	38.6
246.331	35.6
246.547	33.65
246.762	34.74
246.978	35.59
247.194	35.95
247.409	37.09
247.625	36.7
247.841	37.06
248.057	39.09
248.272	38.42
248.488	41.01
248.703	44.62
248.919	48.47
249.135	50.68
249.35	53.73
249.566	54.82
249.782	55.34
249.997	58.64
250.213	62.57
250.428	61.98
250.644	63.85
250.859	64.26
251.075	59.99
251.29	58.96
251.506	56.68
251.721	55.83
251.937	55.68
252.152	57.1
252.368	57.04
252.583	55.82
252.798	56.71
253.014	56.82
253.229	55.23
253.445	59.8
253.66	63.43
253.875	67.58
254.091	71.47
254.306	73.61
254.521	74.31
254.737	72.71
254.952	72.08
255.167	71.5
255.383	73.91
255.598	75.15
255.813	72.51
256.028	69.06
256.244	64.82
256.459	60.86
256.674	59.2
256.889	55.8
257.104	52.44
257.32	50.21
257.535	46.49
257.75	40.61
257.965	39.56
258.18	39
258.395	38.19
258.61	37.13
258.826	37.07
259.041	34.42
259.256	32.66
259.471	33.7
259.686	34.79
259.901	37.33
260.116	38.22
260.331	39.01
260.546	40.67
260.761	41.48
260.976	43.06
261.191	43.29
261.406	47.01
261.621	49.89
261.836	51.57
262.05	51.67
262.265	50.29
262.48	52.08
262.695	51.88
262.91	52.67
263.125	55.93
263.34	56.34
263.555	56.17
263.769	52.66
263.984	53.99
264.199	51.45
264.414	53.8
264.629	53.29
264.843	52.96
265.058	53.21
265.273	53.1
265.488	48.27
265.702	47.25
265.917	48.43
266.132	51.89
266.346	49.43
266.561	50.06
266.776	49.96
266.99	51.07
267.205	51.7
267.42	49.5
267.634	48.03
267.849	48.94
268.063	47.88
268.278	48.19
268.492	46.59
268.707	47.09
268.922	47.4
269.136	46.93
269.351	47.49
269.565	45.96
269.78	45.42
269.994	45.88
270.209	43.88
270.423	44.69
270.637	42.05
270.852	40.7
271.066	42.29
271.281	41.17
271.495	39.43
271.709	37.62
271.924	37
272.138	39.83
272.353	37.7
272.567	40.63
272.781	41.77
272.996	43.91
273.21	44.38
273.424	43.6
273.638	44.06
273.853	45.13
274.067	45.79
274.281	46.76
274.495	46.1
274.71	47.86
274.924	46.48
275.138	46.25
275.352	45.17
275.566	45.36
275.781	43.77
275.995	44.88
276.209	44.89
276.423	44.45
276.637	43.93
276.851	42.78
277.065	42.95
277.279	41.87
277.493	41.44
277.707	41.02
277.921	40.91
278.135	41.41
278.349	40.85
278.563	41.25
278.777	43.31
278.991	42.1
279.205	43.69
279.419	43.84
279.633	43.55
279.847	41.45
280.061	41.03
280.275	40.11
280.489	41.02
280.703	41.15
280.917	41.3
281.131	38.18
281.344	39.1
281.558	37.22
281.772	36.95
281.986	38.33
282.2	38.57
282.414	37.67
282.627	36.97
282.841	37.65
283.055	36.18
283.269	34.75
283.482	36.17
283.696	35.87
283.91	36.34
284.123	34.42
284.337	33.33
284.551	32.41
284.764	33.98
284.978	35.2
285.192	34.06
285.405	34.67
285.619	33.34
285.833	33.43
286.046	32.91
286.26	31.48
286.473	31.34
286.687	31.61
286.9	31.41
287.114	30.61
287.327	29.65
287.541	29.36
287.754	28.11
287.968	31.1
288.181	29.56
288.395	29.49
288.608	31.23
288.822	31.79
289.035	30.96
289.248	32.97
289.462	33.05
289.675	34.24
289.889	34.01
290.102	35.51
290.315	33.27
290.529	35.07
290.742	36.3
290.955	36.39
291.169	37.41
291.382	38.71
291.595	38.55
291.808	39.08
292.022	36.15
292.235	36.33
292.448	36.21
292.661	37.38
292.875	38.27
293.088	36.95
293.301	37.8
293.514	37.4
293.727	37.04
293.94	36.94
294.153	34.8
294.367	37.16
294.58	36.75
294.793	35.23
295.006	35.4
295.219	32.84
295.432	32.13
295.645	31.19
295.858	28.93
296.071	27.29
296.284	26.14
296.497	28.44
296.71	26.48
296.923	26.82
297.136	26.19
297.349	24.98
297.562	25.62
297.775	26.39
297.988	25.9
298.201	26.75
298.414	26.88
298.626	28.67
298.839	26.21
299.052	28.87
299.265	29.22
299.478	31.14
299.691	31.64
299.903	31.73
300.116	32.06
300.329	32.74
300.542	34.42
300.755	35.74
300.967	34.11
301.18	35.97
301.393	34.72
301.605	33.8
301.818	33.42
302.031	34.43
302.243	33.88
302.456	35.5
302.669	35.47
302.881	35.15
303.094	35.94
303.307	37.56
303.519	37.98
303.732	38.62
303.944	39.54
304.157	40.27
304.37	39.57
304.582	40.56
304.795	40.13
305.007	40.49
305.22	39.49
305.432	39.3
305.645	37.42
305.857	35.93
306.069	36.46
306.282	36.09
306.494	34.43
306.707	35.24
306.919	37.08
307.132	35.93
307.344	34.91
307.556	36.93
307.769	36.32
307.981	37.75
308.193	39.56
308.406	38.13
308.618	38.35
308.83	38.75
309.043	38.37
309.255	36.13
309.467	35.72
309.679	34.54
309.892	34.07
310.104	33.66
310.316	34.15
310.528	32.4
310.74	32.26
310.953	32.46
311.165	32.27
311.377	32.26
311.589	32.27
311.801	33.38
312.013	36.75
312.225	35.9
312.437	36.8
312.649	36.62
312.862	37.71
313.074	38.83
313.286	38.27
313.498	39.06
313.71	39.85
313.922	40.35
314.134	41
314.346	38.21
314.558	38.75
314.77	39.45
314.982	38.1
315.193	37.01
315.405	37.04
315.617	36.38
315.829	36.34
316.041	35.17
316.253	33.68
316.465	32.16
316.677	32.75
316.888	33.99
317.1	33.99
317.312	34.87
317.524	35.38
317.736	35
317.947	37.14
318.159	38.6
318.371	38.39
318.583	39.95
318.794	40.41
319.006	40.41
319.218	40.19
319.43	41.01
319.641	41.32
319.853	42.01
320.064	41.98
320.276	42.72
320.488	42.73
320.699	45.18
320.911	44.47
321.123	45.99
321.334	45.31
321.546	45.11
321.757	45.38
321.969	44.83
322.18	45.44
322.392	46.76
322.603	45.25
322.815	44.34
323.026	42.84
323.238	43.52
323.449	42.57
323.661	43.99
323.872	43.84
324.083	41.24
324.295	41.09
324.506	40.48
324.718	39.37
324.929	37.75
325.14	37.18
325.352	36.51
325.563	36.89
325.774	36.08
325.986	37.27
326.197	36.53
326.408	37.73
326.62	39
326.831	40.36
327.042	40.65
327.253	41.76
327.464	42.96
327.676	43.3
327.887	43.15
328.098	43.5
328.309	41.32
328.52	42.44
328.732	41.57
328.943	41.66
329.154	40.85
329.365	41.11
329.576	42.07
329.787	42.4
329.998	43.31
330.209	43.91
330.42	43.61
330.631	45.15
330.842	44.94
331.053	45.02
331.264	43.42
331.475	42.03
331.686	42.35
331.897	40.87
332.108	38.48
332.319	37.55
332.53	35.66
332.741	36.81
332.952	37.57
333.163	35.81
333.374	35.16
333.585	34.5
333.795	37.26
334.006	35.98
334.217	35.69
334.428	36.56
334.639	36.86
334.849	38.03
335.06	36.9
335.271	36.61
335.482	39.08
335.692	40.45
335.903	40.92
336.114	39.09
336.325	41.38
336.535	42.59
336.746	43.75
336.957	44.43
337.167	45.32
337.378	46.71
337.589	47.73
337.799	46.4
338.01	46.54
338.22	47.79
338.431	47.31
338.642	46.29
338.852	46.16
339.063	45.72
339.273	46.16
339.484	44.76
339.694	44.02
339.905	41.42
340.115	42.83
340.326	41.98
340.536	41.82
340.746	41.28
340.957	40.21
341.167	39.27
341.378	37.59
341.588	36.83
341.799	37.41
342.009	37.07
342.219	37.19
342.43	37.09
342.64	37.24
342.85	37.65
343.061	37.78
343.271	38.95
343.481	38.92
343.691	39.52
343.902	39.02
344.112	38.45
344.322	37.71
344.532	36.23
344.743	34.83
344.953	34.47
345.163	34.51
345.373	35.44
345.583	34.37
345.793	34.3
346.004	36.12
346.214	34.96
346.424	34.49
346.634	35.18
346.844	36.93
347.054	36.54
347.264	36.99
347.474	35.72
347.684	34.32
347.894	34.12
348.104	35.3
348.314	33.03
348.524	33.25
348.734	33.88
348.944	33.51
349.154	33.6
349.364	34.13
349.574	32.71
349.784	33.38
349.994	34.93
350.204	34.65
350.413	33.49
350.623	34.23
350.833	33.94
351.043	31.92
351.253	32.2
351.463	31.56
351.672	31.69
351.882	33.04
352.092	32.19
352.302	32.05
352.511	32.7
352.721	33.02
352.931	31.9
353.141	32.66
353.35	34.16
353.56	33.52
353.77	32.98
353.979	32.05
354.189	30.96
354.399	30.84
354.608	31.54
354.818	31.98
355.027	31.57
355.237	32.61
355.447	32.38
355.656	31.65
355.866	32.01
356.075	32.73
356.285	33.57
356.494	34.96
356.704	36.35
356.913	34.54
357.123	33.52
357.332	32.1
357.542	32.29
357.751	31.76
357.96	31.8
358.17	31.44
358.379	31.21
358.589	31.43
358.798	30.41
359.007	29.17
359.217	30.48
359.426	30.25
359.635	31.01
359.845	29.67
360.054	29.45
360.263	29.59
360.472	29.01
360.682	28.57
360.891	27.69
361.1	27.46
361.309	27.35
361.519	26.4
361.728	25.63
361.937	26.14
362.146	27.42
362.355	27.75
362.564	27.32
362.774	27.33
362.983	26.85
363.192	27.56
363.401	28.68
363.61	27.96
363.819	28.3
364.028	28.33
364.237	27.8
364.446	26.95
364.655	26.75
364.864	27.9
365.073	29.4
365.282	30.45
365.491	30.55
365.7	29.2
365.909	29.22
366.118	29.57
366.327	31.56
366.536	32.21
366.745	32.36
366.954	32.45
367.162	31.8
367.371	30.87
367.58	30.11
367.789	29.8
367.998	30.58
368.207	31.19
368.415	31.33
368.624	30.25
368.833	28.63
369.042	29.01
369.25	29.53
369.459	29.59
369.668	29.08
369.877	29.89
370.085	28.84
370.294	27.54
370.503	27.51
370.711	26.81
370.92	27.27
371.129	28.34
371.337	27.11
371.546	26.08
371.754	26.8
371.963	26.29
372.171	25.88
372.38	27.16
372.589	27.19
372.797	26.86
373.006	27.27
373.214	25.48
373.423	25.4
373.631	26.73
373.84	26.59
374.048	26.3
374.256	26.72
374.465	27.1
374.673	26.9
374.882	28.23
375.09	27.27
375.298	27.27
375.507	28.27
375.715	28.16
375.923	27.01
376.132	28.25
376.34	28.84
376.548	28.91
376.757	28.18
376.965	27.51
377.173	26.95
377.381	28.38
377.59	28.9
377.798	29.22
378.006	28.85
378.214	29.91
378.423	30.11
378.631	28.49
378.839	28.86
379.047	29.99
379.255	30.82
379.463	30.34
379.671	31.04
379.879	29.9
380.088	29.41
380.296	29.79
380.504	30.35
380.712	29.9
380.92	30.2
381.128	30.31
381.336	29.52
381.544	28.37
381.752	28.27
381.96	27.52
382.168	28.34
382.376	28.96
382.584	28.85
382.791	27.28
382.999	26.71
383.207	26.14
383.415	26.52
383.623	26.65
383.831	27.49
384.039	27.59
384.247	27.2
384.454	27.45
384.662	25.97
384.87	25.11
385.078	25.8
385.285	25.41
385.493	25.77
385.701	26.41
385.909	25.67
386.116	25.46
386.324	25.9
386.532	25.57
386.739	24.76
386.947	25.71
387.155	27.79
387.362	27.03
387.57	28.34
387.778	27.45
387.985	25.69
388.193	26.57
388.4	26.44
388.608	27.08
388.816	26.68
389.023	26.01
389.231	26.3
389.438	25.03
389.646	25.24
389.853	24.53
390.061	25.77
390.268	25.14
390.475	24.87
390.683	24.92
390.89	23.98
391.098	24.91
391.305	26.44
391.512	26.62
391.72	26.45
391.927	26.23
392.135	25.95
392.342	25.68
392.549	27.24
392.756	26.82
392.964	26.95
393.171	27.85
393.378	27.42
393.586	25.8
393.793	25.09
394	25.56
394.207	26.43
394.414	27.27
394.622	27.43
394.829	26.48
395.036	26.15
395.243	26.48
395.45	26.26
395.657	26.57
395.864	27.82
396.072	28.71
396.279	28.98
396.486	28.2
396.693	27.78
396.9	27.26
397.107	26.87
397.314	28.17
397.521	27.55
397.728	25.93
397.935	25.74
398.142	24
398.349	23.52
398.556	23.05
398.763	23.72
398.97	23.98
399.177	24.39
399.383	24.85
399.59	23.72
399.797	24.15
400.004	25.56
400.211	25.31
400.418	26.61
400.625	27.03
400.831	27.61
401.038	26.4
401.245	26.47
401.452	26.85
401.658	26.73
401.865	27.07
402.072	27.42
402.279	27.26
402.485	27.25
402.692	26.71
402.899	27.18
403.105	26.65
403.312	27.88
403.519	27.3
403.725	27.38
403.932	26.77
404.138	26.53
404.345	25.88
404.552	25.58
404.758	26.56
404.965	26.94
405.171	26.23
405.378	26.62
405.584	26.08
405.791	26.14
405.997	26.21
406.204	27.22
406.41	27.9
406.617	27.76
406.823	28.06
407.029	27.31
407.236	26.86
407.442	27.33
407.649	27.02
407.855	27.2
408.061	26.8
408.268	26.39
408.474	27.17
408.68	26.9
408.887	27.73
409.093	27.62
409.299	27.91
409.505	27.9
409.712	27.96
409.918	27.64
410.124	28.18
410.33	28.73
410.537	28.37
410.743	28.2
410.949	28.57
411.155	27.85
411.361	28.08
411.567	27.72
411.773	27.55
411.98	26.83
412.186	27.88
412.392	27.6
412.598	27.99
412.804	28.76
413.01	27.5
413.216	27.34
413.422	26.88
413.628	26.18
413.834	25.67
414.04	26.76
414.246	27.45
414.452	26.21
414.658	25.63
414.864	24.71
415.07	24.22
415.275	25.17
415.481	25.17
415.687	25.78
415.893	25.61
416.099	25.49
416.305	24.46
416.511	23.79
416.716	23.36
416.922	23.12
417.128	22.78
417.334	22.33
417.539	21.76
417.745	21.44
417.951	20.6
418.157	20.72
418.362	20.47
418.568	19.93
418.774	19.72
418.979	20.13
419.185	19.67
419.391	19.29
419.596	19.08
419.802	18.83
420.008	18.33
420.213	19.21
420.419	19.24
420.624	19.58
420.83	20.18
421.035	20.15
421.241	20.25
421.446	20.21
421.652	20.68
421.857	20.88
422.063	20.95
422.268	21.12
422.474	20.33
422.679	20.12
422.885	20.27
423.09	20.18
423.295	20.25
423.501	20.07
423.706	20.58
423.911	20.21
424.117	20.07
424.322	20.13
424.527	20.59
424.733	20.91
424.938	20.61
425.143	20.29
425.349	20.42
425.554	20.34
425.759	20.96
425.964	20.73
426.169	21.26
426.375	22.07
426.58	22.34
426.785	22.32
426.99	22.13
427.195	22.8
427.4	23.47
427.605	23.46
427.811	24.01
428.016	23.09
428.221	23.28
428.426	22.79
428.631	22.3
428.836	22.19
429.041	22.14
429.246	22.58
429.451	22.88
429.656	22.56
429.861	22.81
430.066	22.94
430.271	23.35
430.476	23.96
430.681	25.19
430.886	25.15
431.09	25.06
431.295	25.05
431.5	25.15
431.705	25.16
431.91	25.17
432.115	24.58
432.32	23.83
432.524	23.31
432.729	22.13
432.934	21.66
433.139	21.17
433.343	21.2
433.548	20.87
433.753	20.66
433.958	20.27
434.162	19.89
434.367	20.06
434.572	20.38
434.776	20.52
434.981	20.68
435.186	20.4
435.39	20.79
435.595	21.13
435.799	21.19
436.004	21.05
436.209	21.49
436.413	21.59
436.618	21.19
436.822	20.93
437.027	20.67
437.231	21.38
437.436	20.77
437.64	20.95
437.845	20.16
438.049	20.41
438.253	20.41
438.458	20.29
438.662	20.06
438.867	20.29
439.071	20.32
439.275	20.16
439.48	19.5
439.684	19.98
439.888	20
440.093	19.9
440.297	19.48
440.501	19.55
440.706	19.44
440.91	19.6
441.114	19.29
441.318	19.43
441.523	19.91
441.727	20.6
441.931	20.89
442.135	20.58
442.339	20.88
442.543	21.54
442.748	21.67
442.952	21.64
443.156	21.65
443.36	22.39
443.564	22.22
443.768	21.97
443.972	22.37
444.176	21.77
444.38	21.87
444.584	21.88
444.788	21.31
444.992	21.22
445.196	21.04
445.4	21.07
445.604	20.24
445.808	20.48
446.012	20.64
446.216	19.64
446.42	19.66
446.624	19.97
446.828	20.21
447.032	20.36
447.235	20.39
447.439	20.14
447.643	19.87
447.847	20.6
448.051	21.16
448.254	21.56
448.458	22.29
448.662	22.43
448.866	21.73
449.069	21.34
449.273	21.43
449.477	21.28
449.681	22.07
449.884	22.61
450.088	22.61
450.292	21.78
450.495	21.39
450.699	21.5
450.902	22.03
451.106	22.28
451.31	22.56
451.513	22.59
451.717	22.19
451.92	21.92
452.124	21.47
452.327	21.59
452.531	21.07
452.734	21.41
452.938	21.19
453.141	20.72
453.345	20.55
453.548	20.5
453.752	20.74
453.955	21.59
454.158	21.87
454.362	21.93
454.565	21.66
454.769	22.65
454.972	21.86
455.175	21.82
455.379	22.3
455.582	23.12
455.785	23.29
455.988	22.78
456.192	22.55
456.395	21.96
456.598	22.54
456.801	22.52
457.005	22.26
457.208	22.44
457.411	22.22
457.614	20.96
457.817	20.51
458.021	20.34
458.224	20.57
458.427	20.23
458.63	20.47
458.833	19.68
459.036	19.18
459.239	19.01
459.442	18.99
459.645	18.96
459.848	19.47
460.051	19.67
460.254	19.7
460.457	19.38
460.66	19.65
460.863	19.75
461.066	20.49
461.269	20.69
461.472	20.99
461.675	21.23
461.878	21.56
462.081	21.88
462.284	21.6
462.486	21.45
462.689	21.69
462.892	21.57
463.095	21.61
463.298	21.77
463.5	22.91
463.703	23.13
463.906	23.13
464.109	23.41
464.311	23.53
464.514	24.17
464.717	24.46
464.92	24.45
465.122	23.93
465.325	23.89
465.528	23.54
465.73	22.88
465.933	22.48
466.135	22.13
466.338	21.67
466.541	21.77
466.743	21.06
466.946	20.68
467.148	20.86
467.351	21.34
467.553	20.88
467.756	21.14
467.958	20.67
468.161	20.28
468.363	20.29
468.566	20.54
468.768	20.27
468.971	20.85
469.173	20.96
469.375	20.95
469.578	21.05
469.78	21.06
469.983	21.16
470.185	22.14
470.387	22.6
470.59	22.79
470.792	22.56
470.994	22.87
471.196	22.76
471.399	22.92
471.601	23.04
471.803	22.58
472.005	22.64
472.208	22.02
472.41	21.64
472.612	21.47
472.814	21.5
473.016	22.13
473.218	21.95
473.421	21.48
473.623	21.56
473.825	21.51
474.027	21.49
474.229	21.55
474.431	21.83
474.633	21.56
474.835	21.98
475.037	21.75
475.239	21.24
475.441	21.03
475.643	21.47
475.845	21.27
476.047	21.24
476.249	21.6
476.451	22.13
476.653	22.42
476.855	22.93
477.057	22.91
477.258	23.17
477.46	22.98
477.662	23.14
477.864	22.65
478.066	22.54
478.268	22.46
478.469	22.23
478.671	21.32
478.873	21.09
479.075	20.84
479.276	20.56
479.478	20.3
479.68	20.03
479.882	19.96
480.083	20.03
480.285	19.82
480.487	19.52
480.688	19.26
480.89	19.62
481.091	18.94
481.293	18.3
481.495	17.71
481.696	17.19
481.898	16.79
482.099	16.32
482.301	16.03
482.502	15.82
482.704	15.54
482.905	15.27
483.107	14.81
483.308	14.75
483.51	14.67
483.711	14.62
483.913	14.6
484.114	14.62
484.315	14.57
484.517	14.52
484.718	14.5
484.92	14.51
485.121	14.69
485.322	14.87
485.524	15.13
485.725	15.27
485.926	15.32
486.127	15.44
486.329	15.43
486.53	15.43
486.731	15.56
486.932	15.53
487.134	15.47
487.335	15.37
487.536	15.47
487.737	15.38
487.938	15.44
488.139	15.56
488.341	15.61
488.542	15.83
488.743	16.13
488.944	16.24
489.145	16.45
489.346	16.65
489.547	16.86
489.748	16.81
489.949	16.75
490.15	16.75
490.351	16.61
490.552	16.6
490.753	16.46
490.954	16.23
491.155	16.09
491.356	15.98
491.557	16.12
491.758	16.23
491.959	16.21
492.159	16.39
492.36	16.56
492.561	16.74
492.762	17.16
492.963	17.26
493.164	17.85
493.364	18.28
493.565	18.38
493.766	18.68
493.967	18.75
494.167	18.96
494.368	19.11
494.569	18.92
494.769	19.19
494.97	19
495.171	19.33
495.371	19.13
495.572	19.05
495.773	19.23
495.973	19.02
496.174	18.89
496.375	18.93
496.575	19.11
496.776	19.33
496.976	19.22
497.177	19.01
497.377	19.04
497.578	19.19
497.778	19.2
497.979	19.4
498.179	19.25
498.38	19.58
498.58	19.72
498.78	19.54
498.981	20.08
499.181	20.51
499.382	20.8
499.582	20.86
499.782	21.14
499.983	21.47
500.183	21.58
500.383	22.01
500.584	22.02
500.784	22.19
500.984	22.22
501.184	21.52
501.385	21.38
501.585	21.33
501.785	21.46
501.985	21.3
502.185	21.14
502.386	21.15
502.586	20.86
502.786	21.01
502.986	20.54
503.186	20.61
503.386	21.07
503.586	20.83
503.786	20.47
503.987	20.43
504.187	20.1
504.387	20.43
504.587	20.52
504.787	20.71
504.987	20.82
505.187	21.04
505.387	21.22
505.587	20.97
505.786	21.19
505.986	21.67
506.186	21.23
506.386	21.8
506.586	21.27
506.786	21.05
506.986	21.01
507.186	20.61
507.386	21.18
507.585	20.4
507.785	20.4
507.985	20.22
508.185	20
508.384	20.45
508.584	19.86
508.784	20.54
508.984	20.72
509.183	20.45
509.383	20.9
509.583	21.15
509.782	21.67
509.982	21.67
510.182	21.84
510.381	22.2
510.581	22.08
510.781	22.38
510.98	22.18
511.18	22.37
511.379	22.57
511.579	22
511.778	21.7
511.978	21.79
512.177	21.64
512.377	21.6
512.576	21.81
512.776	21.98
512.975	22.01
513.175	21.89
513.374	21.97
513.573	22.38
513.773	23.14
513.972	22.93
514.172	23.22
514.371	23.58
514.57	23.78
514.77	24.03
514.969	23.99
515.168	24.42
515.367	24.43
515.567	24.2
515.766	24.29
515.965	23.73
516.164	24.07
516.364	23.8
516.563	23.53
516.762	23.29
516.961	23
517.16	22.73
517.359	22.38
517.559	22.8
517.758	22.58
517.957	22.13
518.156	22.32
518.355	21.99
518.554	22.13
518.753	22.26
518.952	22.46
519.151	22.39
519.35	22.79
519.549	23.27
519.748	23.08
519.947	23.46
520.146	23.63
520.345	23.7
520.544	23.92
520.743	24.12
520.942	24.26
521.141	24.25
521.339	24.26
521.538	24.16
521.737	23.71
521.936	23.31
522.135	23.23
522.333	23.62
522.532	23.82
522.731	23.78
522.93	23.42
523.129	23.28
523.327	23.4
523.526	23.48
523.725	23.61
523.923	23.29
524.122	23.35
524.321	23.35
524.519	23.45
524.718	23.2
524.917	23.26
525.115	23.23
525.314	23.27
525.512	23.3
525.711	23.03
525.909	22.62
526.108	22.52
526.306	22.51
526.505	22.2
526.703	21.7
526.902	21.38
527.1	21.1
527.299	20.97
527.497	20.76
527.696	20.4
527.894	20.44
528.092	20.52
528.291	20.73
528.489	20.69
528.688	20.9
528.886	21.07
529.084	21.5
529.283	21.58
529.481	21.65
529.679	22.01
529.877	22.32
530.076	22.42
530.274	22.75
530.472	22.8
530.67	23
530.869	22.92
531.067	23.11
531.265	22.81
531.463	23.05
531.661	23.07
531.859	22.79
532.057	22.96
532.255	23.08
532.454	23.18
532.652	23.06
532.85	23.22
533.048	23.31
533.246	23.35
533.444	23.5
533.642	23.76
533.84	23.96
534.038	24.2
534.236	24.24
534.434	24.35
534.632	24.29
534.83	24.73
535.027	24.81
535.225	24.84
535.423	24.94
535.621	25.22
535.819	24.92
536.017	25.06
536.215	25.44
536.412	25.77
536.61	25.82
536.808	26.37
537.006	26.53
537.203	26.6
537.401	26.56
537.599	26.64
537.797	26.72
537.994	27.19
538.192	27.45
538.39	27.27
538.587	26.91
538.785	27.21
538.983	26.98
539.18	27.19
539.378	26.72
539.575	27.02
539.773	26.82
539.97	26.54
540.168	26.32
540.366	26.25
540.563	26.11
540.761	25.95
540.958	25.86
541.155	25.65
541.353	25.35
541.55	25.66
541.748	25.92
541.945	25.89
542.143	26.07
542.34	26.22
542.537	26.38
542.735	26.76
542.932	27.29
543.129	27.4
543.327	27.78
543.524	28.12
543.721	28.16
543.919	27.94
544.116	28.23
544.313	28.56
544.51	28.88
544.708	28.9
544.905	28.84
545.102	29.07
545.299	29.13
545.496	29.13
545.693	29.18
545.891	29.45
546.088	30.02
546.285	30.15
546.482	30.25
546.679	30.35
546.876	30.57
547.073	31.16
547.27	31.21
547.467	31.78
547.664	32.05
547.861	32.66
548.058	32.64
548.255	32.2
548.452	32.62
548.649	33.1
548.846	33.44
549.043	33.78
549.24	33.53
549.437	33.95
549.633	33.92
549.83	34.19
550.027	34.45
550.224	35.33
550.421	35.42
550.618	36.08
550.814	35.79
551.011	35.52
551.208	35.62
551.405	35.88
551.601	35.85
551.798	35.91
551.995	36.1
552.191	36.09
552.388	36.01
552.585	36.34
552.781	36.15
552.978	36.55
553.175	36.78
553.371	37.12
553.568	37.19
553.764	38.04
553.961	38.26
554.157	38.38
554.354	37.97
554.55	38.35
554.747	38.68
554.943	38.54
555.14	38.48
555.336	38.66
555.533	38.75
555.729	39.05
555.926	38.61
556.122	38.66
556.318	38.34
556.515	38.9
556.711	38.55
556.907	38.9
557.104	39.87
557.3	40.04
557.496	40.13
557.693	40.15
557.889	40.42
558.085	40.63
558.281	40.97
558.478	41.35
558.674	40.43
558.87	40.62
559.066	40.79
559.262	40.31
559.459	40.46
559.655	40.61
559.851	40.2
560.047	40.34
560.243	40.22
560.439	40.71
560.635	40.57
560.831	41.87
561.027	41.75
561.223	41.64
561.419	41.75
561.615	41.62
561.811	42.12
562.007	42.81
562.203	42.68
562.399	42.88
562.595	42.8
562.791	43.31
562.987	42.86
563.183	42.89
563.379	42.88
563.575	42.61
563.771	42.86
563.966	42.49
564.162	42.23
564.358	42.4
564.554	41.8
564.75	40.96
564.945	40.67
565.141	40.39
565.337	40.64
565.533	40.57
565.728	40.48
565.924	40.31
566.12	40.38
566.315	40.61
566.511	40.65
566.707	41.21
566.902	41.38
567.098	42.16
567.293	42.73
567.489	42.95
567.684	43.37
567.88	43.96
568.076	44.19
568.271	44.45
568.467	45.03
568.662	44.55
568.858	44.58
569.053	45.37
569.248	44.78
569.444	44.81
569.639	44.81
569.835	44.13
570.03	43.97
570.225	43.91
570.421	43.7
570.616	43.12
570.812	43.41
571.007	43.47
571.202	42.73
571.397	43.14
571.593	42.98
571.788	42.96
571.983	43.36
572.178	43.44
572.374	43.76
572.569	43.67
572.764	43.81
572.959	43.95
573.154	43.61
573.35	44.01
573.545	44.05
573.74	44.36
573.935	44.52
574.13	44.6
574.325	44.36
574.52	43.93
574.715	44.45
574.91	44.64
575.105	44.4
575.3	45
575.495	45.24
575.69	45.34
575.885	45.57
576.08	45.43
576.275	45.49
576.47	46.41
576.665	47.15
576.86	46.94
577.055	46.01
577.25	46.47
577.444	46.85
577.639	47.4
577.834	47.43
578.029	48.03
578.224	48.36
578.418	48.63
578.613	48.39
578.808	48.36
579.003	49.07
579.197	50.3
579.392	50.31
579.587	50.24
579.781	49.62
579.976	49.24
580.171	49.11
580.365	49.47
580.56	49.57
580.755	49.6
580.949	49.9
581.144	49.51
581.338	49.54
581.533	49.94
581.727	49.41
581.922	49.74
582.116	50.8
582.311	50.52
582.505	50.17
582.7	50.78
582.894	50.29
583.089	49.82
583.283	50.24
583.478	50.58
583.672	50.29
583.866	50.84
584.061	50.93
584.255	50.58
584.449	51.12
584.644	51.71
584.838	50.98
585.032	51.8
585.226	51.78
585.421	51.7
585.615	51.59
585.809	51.86
586.003	51.91
586.198	51.66
586.392	51.99
586.586	51.76
586.78	51.84
586.974	52.44
587.168	52.45
587.363	52.42
587.557	52.45
587.751	51.93
587.945	51.82
588.139	51.73
588.333	52.27
588.527	52.12
588.721	51.83
588.915	51.69
589.109	51.42
589.303	51.05
589.497	51.84
589.691	51.57
589.885	52.35
590.079	52.28
590.273	52.65
590.466	52.65
590.66	52.46
590.854	52.84
591.048	53.05
591.242	53.4
591.436	53.42
591.629	53.57
591.823	54.08
592.017	53.09
592.211	53.9
592.404	53.26
592.598	52.99
592.792	52.95
592.986	52.52
593.179	51.64
593.373	50.78
593.567	51.82
593.76	51.18
593.954	50.56
594.147	51.76
594.341	51.31
594.535	51.65
594.728	51.74
594.922	51.94
595.115	52.31
595.309	52.5
595.502	53.55
595.696	52.52
595.889	52.61
596.083	52.84
596.276	51.78
596.47	51.46
596.663	51.39
596.856	51.51
597.05	51.64
597.243	51.62
597.437	52.05
597.63	51.59
597.823	52.17
598.017	52.34
598.21	52.9
598.403	54.22
598.596	55.53
598.79	55.97
598.983	56.23
599.176	56.26
599.369	56.34
599.563	56.53
599.756	56.52
599.949	56.46
600.142	56.45
600.335	56.51
600.528	56.09
600.722	55.16
600.915	54.84
601.108	54.44
601.301	54.74
601.494	54.72
601.687	54.37
601.88	54.63
602.073	54.53
602.266	54.65
602.459	54.27
602.652	53.62
602.845	53.59
603.038	53.36
603.231	53.57
603.424	52.93
603.617	52.99
603.809	53.05
604.002	52.39
604.195	52.55
604.388	52.26
604.581	52.33
604.774	52.93
604.966	52.75
605.159	52.91
605.352	52.87
605.545	53.81
605.737	53.58
605.93	53.41
606.123	54.26
606.316	54.87
606.508	55.68
606.701	55.58
606.894	54.88
607.086	54.86
607.279	55.22
607.471	55.95
607.664	55.37
607.857	55.08
608.049	55.34
608.242	55.1
608.434	54.09
608.627	53.22
608.819	52.92
609.012	53.51
609.204	54.02
609.397	53.78
609.589	53.43
609.782	53.73
609.974	53.85
610.166	54.07
610.359	54.63
610.551	55.61
610.743	55.9
610.936	56.6
611.128	57.11
611.32	57.86
611.513	58.93
611.705	59.32
611.897	59.5
612.09	59.74
612.282	59.91
612.474	59.65
612.666	59.73
612.858	60.8
613.051	61.32
613.243	61.81
613.435	61.72
613.627	61.01
613.819	61.05
614.011	60.63
614.203	61.17
614.395	60.59
614.588	60.98
614.78	60.45
614.972	60.61
615.164	60.23
615.356	60.48
615.548	59.94
615.74	61.11
615.932	60.96
616.124	60.85
616.315	61.26
616.507	62.52
616.699	61.89
616.891	62.05
617.083	61.58
617.275	61.6
617.467	60.29
617.659	60.19
617.85	59.61
618.042	59.28
618.234	60.12
618.426	60.28
618.618	59.95
618.809	60.29
619.001	60.04
619.193	59.32
619.384	59.47
619.576	60.57
619.768	60.64
619.959	60.67
620.151	60.37
620.343	60.19
620.534	60.07
620.726	59.78
620.917	60.23
621.109	59.95
621.301	60.76
621.492	60.76
621.684	60.57
621.875	61.55
622.067	61.39
622.258	61.9
622.45	62.06
622.641	61.92
622.832	61.96
623.024	61.86
623.215	62.58
623.407	62.56
623.598	62.68
623.789	62.45
623.981	61.79
624.172	61.45
624.363	61.33
624.555	60.82
624.746	60.98
624.937	60.94
625.129	60.78
625.32	60.38
625.511	60.32
625.702	60
625.893	59.55
626.085	58.6
626.276	58.56
626.467	58.55
626.658	58.57
626.849	58.45
627.04	59.08
627.231	59.12
627.422	59.29
627.614	59.4
627.805	60.5
627.996	61.03
628.187	62.27
628.378	62.8
628.569	63.51
628.76	63.5
628.951	63.99
629.142	63.32
629.332	63.63
629.523	64.04
629.714	63.94
629.905	63.11
630.096	63.91
630.287	63.68
630.478	63.86
630.669	63.96
630.859	64.67
631.05	63.88
631.241	63.4
631.432	63.51
631.623	64.2
631.813	64.33
632.004	64.51
632.195	63.14
632.385	63.72
632.576	63.61
632.767	62.35
632.957	61.64
633.148	60.78
633.339	61.42
633.529	60.91
633.72	60.64
633.91	60.69
634.101	60.68
634.292	61.31
634.482	60.76
634.673	60.17
634.863	61.52
635.054	62.04
635.244	63.79
635.435	63.59
635.625	63.88
635.815	63.74
636.006	64.02
636.196	64.95
636.387	65.45
636.577	65.69
636.767	65.61
636.958	65.62
637.148	65.07
637.338	64.52
637.529	65.83
637.719	66.72
637.909	66.87
638.099	66.69
638.29	66.36
638.48	66.02
638.67	65.94
638.86	66.48
639.05	65.71
639.241	67.39
639.431	68.1
639.621	67.47
639.811	67.54
640.001	68.01
640.191	67.6
640.381	66.86
640.571	67.55
640.761	67.38
640.951	68.42
641.141	69.35
641.331	69.14
641.521	69.14
641.711	69.11
641.901	68.56
642.091	68.54
642.281	69.4
642.471	69.9
642.661	69.95
642.851	70.28
643.041	69.23
643.231	70.3
643.42	69.84
643.61	69.85
643.8	69.89
643.99	69.26
644.18	69.75
644.369	69.26
644.559	69.03
644.749	69.75
644.939	69.99
645.128	70.81
645.318	69.69
645.508	68.71
645.697	68.41
645.887	68.87
646.076	69.29
646.266	68.6
646.456	69.25
646.645	69.59
646.835	67.85
647.024	67.66
647.214	68.06
647.403	67.41
647.593	69.33
647.782	69.19
647.972	68.55
648.161	69.27
648.351	68.36
648.54	67.89
648.73	67.28
648.919	67.69
649.108	66.99
649.298	66.46
649.487	66.54
649.677	65.7
649.866	66.23
650.055	65.86
650.244	64.55
650.434	65.81
650.623	67.16
650.812	68.29
651.002	68.73
651.191	69.65
651.38	70.16
651.569	71.12
651.758	70.13
651.947	69.69
652.137	70.25
652.326	71.36
652.515	71.54
652.704	70.27
652.893	69.93
653.082	70.55
653.271	71.22
653.46	70.98
653.649	69.89
653.838	70.7
654.027	70.61
654.216	70.72
654.405	71.21
654.594	69.5
654.783	69.53
654.972	68.8
655.161	68.23
655.35	68.1
655.539	67.51
655.728	67.87
655.916	67.6
656.105	66.69
656.294	65.96
656.483	65.63
656.672	66.27
656.86	66.23
657.049	66.46
657.238	65.96
657.427	65.77
657.615	65.57
657.804	65.23
657.993	65.44
658.181	66.43
658.37	66.52
658.559	66.41
658.747	66.43
658.936	66.42
659.125	66.9
659.313	67.93
659.502	67.44
659.69	67.12
659.879	67.47
660.067	67.17
660.256	67.09
660.444	67.91
660.633	67.75
660.821	68.69
661.01	69.02
661.198	69.17
661.387	68.51
661.575	68.95
661.763	69.66
661.952	69.98
662.14	71.33
662.328	72
662.517	71.73
662.705	71.61
662.893	71.19
663.082	71.04
663.27	71.16
663.458	71.14
663.646	70.73
663.834	70.52
664.023	71.9
664.211	71.74
664.399	72.08
664.587	73.2
664.775	73.44
664.963	73.54
665.152	73.5
665.34	72.67
665.528	73.05
665.716	73.82
665.904	74.35
666.092	73.15
666.28	72.95
666.468	72.07
666.656	71.43
666.844	71.27
667.032	71.45
667.22	72.47
667.408	73.46
667.596	72.81
667.784	71.65
667.971	72.09
668.159	73.01
668.347	73.45
668.535	74.55
668.723	74.52
668.911	76.02
669.098	75.78
669.286	75.53
669.474	75.95
669.662	77.38
669.849	78.51
670.037	78.02
670.225	77.3
670.413	76.53
670.6	76.44
670.788	76.12
670.976	74.99
671.163	74.86
671.351	74.82
671.538	74.42
671.726	73.38
671.913	72.95
672.101	73.51
672.289	73.16
672.476	73.97
672.664	73.12
672.851	74.35
673.039	74.45
673.226	75.57
673.413	75.32
673.601	73.61
673.788	73.05
673.976	73.09
674.163	73.79
674.35	74.47
674.538	74.04
674.725	74.35
674.912	72.15
675.1	71.86
675.287	71.76
675.474	71.83
675.662	74.05
675.849	74.97
676.036	74.66
676.223	74.86
676.411	74.26
676.598	74.03
676.785	74.81
676.972	76.92
677.159	78.02
677.346	77.72
677.533	77.36
677.721	75.53
677.908	74.78
678.095	75.73
678.282	74.47
678.469	73.98
678.656	73.51
678.843	73.14
679.03	71.36
679.217	70.94
679.404	71.04
679.591	70.99
679.778	72.08
679.964	72.72
680.151	71.9
680.338	71.71
680.525	72.21
680.712	73.56
680.899	73.58
681.086	74.42
681.272	74.21
681.459	73.74
681.646	73.55
681.833	73.18
682.02	73.24
682.206	73.55
682.393	74.39
682.58	75.02
682.766	74.23
682.953	74.49
683.14	76.15
683.326	77.57
683.513	78.08
683.7	78.35
683.886	77.83
684.073	78.3
684.259	78.93
684.446	79.21
684.632	78.52
684.819	78.23
685.005	77.88
685.192	77.54
685.378	76.21
685.565	76.8
685.751	76.65
685.938	77.02
686.124	77.1
686.31	76.92
686.497	76.6
686.683	77.31
686.87	76.9
687.056	76.64
687.242	75.17
687.429	75.07
687.615	73.37
687.801	73.54
687.987	72.8
688.174	71.45
688.36	72.47
688.546	72.79
688.732	71.78
688.918	72.78
689.105	72.97
689.291	74.18
689.477	74.37
689.663	75.14
689.849	76.29
690.035	78.96
690.221	80.38
690.407	79.26
690.593	78.24
690.779	77.62
690.965	77.71
691.151	77.83
691.337	77.34
691.523	78.44
691.709	78.36
691.895	79.3
692.081	78.44
692.267	77.15
692.453	78.73
692.639	79.95
692.825	81.58
693.011	80.22
693.196	80.25
693.382	80.07
693.568	78.9
693.754	78.7
693.94	76.44
694.125	76.29
694.311	77.2
694.497	75.99
694.682	76.19
694.868	75.84
695.054	76.34
695.239	75.54
695.425	76.55
695.611	76.99
695.796	77.08
695.982	77.35
696.168	75.97
696.353	74.83
696.539	75.08
696.724	73.5
696.91	72.67
697.095	73.04
697.281	73.68
697.466	72.99
697.652	71.5
697.837	71.15
698.023	70.77
698.208	71.06
698.393	71.08
698.579	70.44
698.764	70.38
698.949	71.02
699.135	71.35
699.32	70.37
699.505	69.56
699.691	72.19
699.876	72.1
700.061	72.72
700.246	73.26
700.432	74.36
700.617	75.64
700.802	75.3
700.987	76.24
701.172	78.62
701.358	79.59
701.543	80.76
701.728	79.4
701.913	80.3
702.098	80.1
702.283	80.26
702.468	80.2
702.653	80.72
702.838	82.24
703.023	82.04
703.208	78.7
703.393	79.56
703.578	80.98
703.763	82.06
703.948	82.3
704.133	84.29
704.318	85.61
704.503	85.24
704.688	83.8
704.873	83.84
705.057	84.03
705.242	85.28
705.427	84.64
705.612	82.14
705.797	81.14
705.981	81.32
706.166	80.52
706.351	79.19
706.536	80.18
706.72	81.29
706.905	81.55
707.09	80.69
707.274	80.68
707.459	80.09
707.644	81.57
707.828	81.58
708.013	81.92
708.197	80.09
708.382	79.66
708.567	80
708.751	78.38
708.936	78
709.12	79.34
709.305	79.36
709.489	80.4
709.673	79.46
709.858	78.21
710.042	77.56
710.227	78.6
710.411	78.65
710.596	77.92
710.78	79.15
710.964	80.99
711.149	80.99
711.333	81.46
711.517	82.09
711.702	83.26
711.886	84.51
712.07	84.25
712.254	85.68
712.438	85.95
712.623	84.69
712.807	83.77
712.991	81.3
713.175	80.58
713.359	79.91
713.544	78.12
713.728	79.12
713.912	79.77
714.096	79.96
714.28	77.06
714.464	77.09
714.648	77.76
714.832	78.94
715.016	80.79
715.2	80.1
715.384	80.24
715.568	81.09
715.752	78.32
715.936	76.98
716.12	77.49
716.304	78.57
716.488	78.91
716.671	77.95
716.855	76.01
717.039	74.5
717.223	74.55
717.407	75.23
717.59	74.78
717.774	75.3
717.958	75.94
718.142	74.31
718.325	74.17
718.509	72.49
718.693	74.88
718.877	75.32
719.06	75.11
719.244	76.84
719.428	74.99
719.611	76.59
719.795	78.24
719.978	76.63
720.162	78.18
720.345	79.72
720.529	81.34
720.713	79.96
720.896	80.3
721.08	82.07
721.263	81.17
721.446	80.62
721.63	80.64
721.813	79.74
721.997	80.53
722.18	79.51
722.364	79.2
722.547	79.88
722.73	79.03
722.914	80.16
723.097	78.24
723.28	78.07
723.464	79.92
723.647	80.25
723.83	80.57
724.013	83.05
724.197	83.07
724.38	82.27
724.563	81.95
724.746	83.9
724.929	83.65
725.112	84.42
725.296	86.22
725.479	86.05
725.662	83.9
725.845	83.77
726.028	82.81
726.211	83.21
726.394	84.31
726.577	84.84
726.76	81.54
726.943	81.43
727.126	81.93
727.309	79.22
727.492	79.94
727.675	80.79
727.858	80.48
728.041	80.27
728.224	80.78
728.407	80.19
728.589	80.9
728.772	83.61
728.955	84.16
729.138	82.1
729.321	83.59
729.503	81.47
729.686	80.55
729.869	81.29
730.052	80.91
730.234	79.98
730.417	80.08
730.6	78.73
730.782	78.43
730.965	78.11
731.148	80.11
731.33	81.28
731.513	82.78
731.695	83.96
731.878	83.99
732.061	84.16
732.243	85.1
732.426	85.92
732.608	84.69
732.791	84.33
732.973	83.73
733.156	83.56
733.338	83.7
733.52	83.61
733.703	83.08
733.885	83.28
734.068	83.42
734.25	83.63
734.432	82.8
734.615	85.99
734.797	85.02
734.979	86.36
735.162	85.2
735.344	82.71
735.526	82.33
735.708	81.81
735.891	81.67
736.073	82.99
736.255	83.95
736.437	83.51
736.619	83.11
736.802	85.61
736.984	86.13
737.166	88.69
737.348	90.01
737.53	90.33
737.712	92.13
737.894	92.53
738.076	91.45
738.258	89.32
738.44	90.13
738.622	89.61
738.804	87.3
738.986	87.41
739.168	86.76
739.35	88.32
739.532	88.6
739.714	88.46
739.896	87.41
740.078	88.02
740.259	89.98
740.441	90
740.623	88.46
740.805	90.18
740.987	89
741.168	89.77
741.35	90.21
741.532	89.18
741.714	88.98
741.895	90.6
742.077	90.42
742.259	90.54
742.44	91.32
742.622	92.14
742.804	92.17
742.985	93.16
743.167	94.91
743.348	95.35
743.53	96.79
743.711	96.08
743.893	96.23
744.075	95.3
744.256	93.8
744.438	95.37
744.619	94.61
744.8	95.22
744.982	94.72
745.163	92.71
745.345	89.19
745.526	89.5
745.707	91.89
745.889	92.26
746.07	92.75
746.252	93.88
746.433	91.79
746.614	93.8
746.795	92.01
746.977	91.6
747.158	92.43
747.339	93.98
747.52	91.35
747.702	88.82
747.883	87.8
748.064	89.19
748.245	89.18
748.426	89.97
748.607	89.11
748.788	91.1
748.97	93.08
749.151	91.98
749.332	92.02
749.513	91.92
749.694	94.16
749.875	94.37
750.056	92.66
750.237	92.48
750.418	91.67
750.599	90.33
750.78	89.31
750.96	87.97
751.141	87.15
751.322	86.98
751.503	89.53
751.684	89.62
751.865	89.43
752.046	89.66
752.226	91.37
752.407	90.11
752.588	89.35
752.769	88.82
752.949	88.32
753.13	88.96
753.311	90.22
753.492	91.68
753.672	90.76
753.853	89.67
754.034	88.38
754.214	84.98
754.395	88.64
754.575	92.45
754.756	93.11
754.937	93.65
755.117	93.48
755.298	91.43
755.478	90.31
755.659	88.03
755.839	88.53
756.02	89.04
756.2	90.45
756.381	86.2
756.561	83.17
756.741	84.61
756.922	82.36
757.102	80.17
757.283	80.11
757.463	79.44
757.643	79.34
757.823	79.14
758.004	79.63
758.184	78.22
758.364	79.71
758.545	79.66
758.725	78.54
758.905	80.51
759.085	83.13
759.265	84.1
759.446	83.75
759.626	84.07
759.806	82.83
759.986	83.91
760.166	85.76
760.346	83.54
760.526	82.77
760.706	81.72
760.886	80.13
761.066	79.12
761.246	77.91
761.426	76.78
761.606	77.4
761.786	77.64
761.966	73.36
762.146	72.53
762.326	75.59
762.506	76.77
762.686	76.1
762.866	76.15
763.046	75.98
763.225	76.25
763.405	76.19
763.585	75.94
763.765	76.99
763.945	79.66
764.124	81.3
764.304	80.69
764.484	80.51
764.664	80.99
764.843	81.34
765.023	82.09
765.203	82.2
765.382	84.33
765.562	85.61
765.741	85.06
765.921	85.8
766.101	83.85
766.28	85.01
766.46	85.61
766.639	87.66
766.819	87.69
766.998	89.24
767.178	90.12
767.357	89.58
767.537	88.86
767.716	90.69
767.896	91.42
768.075	94.58
768.254	93.98
768.434	95.17
768.613	95.4
768.792	96.08
768.972	94.91
769.151	96.32
769.33	98.56
769.51	100.3
769.689	99.45
769.868	99.53
770.047	98.83
770.226	96.22
770.406	95.81
770.585	92.78
770.764	94.23
770.943	93.41
771.122	92.44
771.301	92.77
771.48	90.6
771.66	90.91
771.839	89.51
772.018	87.01
772.197	85.95
772.376	87.1
772.555	89.34
772.734	91.28
772.913	93.45
773.092	95.16
773.271	96.81
773.449	100.3
773.628	102.38
773.807	102.31
773.986	105.96
774.165	107.4
774.344	109.27
774.523	109.84
774.701	107.72
774.88	107.95
775.059	107.69
775.238	104.48
775.417	101.96
775.595	100.78
775.774	102.22
775.953	100.85
776.131	102.02
776.31	101.13
776.489	98.55
776.667	98.78
776.846	99.89
777.025	100.49
777.203	99.74
777.382	103.37
777.56	102.34
777.739	99.52
777.917	98.9
778.096	102.98
778.274	100.42
778.453	102.91
778.631	102.95
778.81	100.73
778.988	98.44
779.166	99.33
779.345	96.9
779.523	95.42
779.702	97.23
779.88	96.98
780.058	94.58
780.237	96.57
780.415	98.18
780.593	99.57
780.771	97.17
780.95	98.96
781.128	96.52
781.306	96.96
781.484	101.3
781.662	101.31
781.841	104.22
782.019	102.61
782.197	102.63
782.375	101.72
782.553	98.87
782.731	99.84
782.909	99.61
783.087	102.98
783.265	103.59
783.443	99.26
783.621	99.39
783.799	98.32
783.977	101.33
784.155	99.41
784.333	97.41
784.511	98.36
784.689	101.24
784.867	99.37
785.045	100.4
785.223	99.38
785.4	100.89
785.578	101.13
785.756	99.74
785.934	95.49
786.112	94.51
786.289	97.27
786.467	96.52
786.645	95.94
786.823	97.81
787	96.19
787.178	94.25
787.356	94.66
787.533	93.35
787.711	93.37
787.889	97.69
788.066	95.66
788.244	91.3
788.421	91.66
788.599	91.33
788.776	88.93
788.954	87.46
789.131	89.37
789.309	87.62
789.486	88.17
789.664	88.54
789.841	87.7
790.019	89.94
790.196	92.18
790.373	93
790.551	91.66
790.728	92.84
790.906	95.14
791.083	94.29
791.26	94.31
791.437	96.95
791.615	97.74
791.792	96.55
791.969	94.98
792.146	95.98
792.324	95.36
792.501	97
792.678	96.22
792.855	95.53
793.032	97.04
793.209	97.93
793.387	97.96
793.564	100.47
793.741	100.85
793.918	103.38
794.095	103.4
794.272	102.51
794.449	104.07
794.626	109.43
794.803	107.31
794.98	104.16
795.157	100.81
795.334	100.43
795.511	101.19
795.688	101.8
795.864	104.06
796.041	103.56
796.218	104.92
796.395	102.33
796.572	99.07
796.749	101.5
796.925	103.94
797.102	104.4
797.279	103.53
797.456	98.03
797.632	98.18
797.809	96.92
797.986	96.9
798.162	95.9
798.339	98.14
798.516	96.25
798.692	95.21
798.869	95.93
799.046	98.69
799.222	96.04
799.399	97.81
799.575	100.08
799.752	97.53
799.928	96.09
800.105	95.12
800.281	92.48
800.458	93.09
800.634	95.05
800.811	94.55
800.987	95.81
801.163	100.6
801.34	100.26
801.516	97.17
801.692	97.35
801.869	97.65
802.045	99.91
802.221	102.04
802.398	101.29
802.574	102.22
802.75	102.36
802.926	100.55
803.103	96.14
803.279	95.14
803.455	93.8
803.631	94.75
803.807	95.9
803.983	92.89
804.16	92.93
804.336	95.02
804.512	89.99
804.688	86.32
804.864	87.6
805.04	89.34
805.216	90.79
805.392	92.27
805.568	92.69
805.744	91.79
805.92	95.38
806.096	95.36
806.272	97.6
806.448	102.76
806.623	105.94
806.799	105.81
806.975	104.02
807.151	102.05
807.327	101.87
807.503	103.38
807.678	102.78
807.854	100.4
808.03	100.74
808.206	97.7
808.381	92.7
808.557	91.88
808.733	93.45
808.908	93.35
809.084	96.34
809.26	92.05
809.435	87.94
809.611	90.04
809.787	92.64
809.962	89.01
810.138	89.06
810.313	90.56
810.489	92.98
810.664	89.55
810.84	92
811.015	90.25
811.191	92.81
811.366	94.65
811.542	94.53
811.717	95.1
811.892	97.81
812.068	96.46
812.243	97.07
812.419	95.54
812.594	98.46
812.769	93.76
812.944	96.04
813.12	95.15
813.295	94.93
813.47	92.91
813.645	89.03
813.821	84.97
813.996	81.18
814.171	82
814.346	81.87
814.521	84.74
814.697	85.41
814.872	84.6
815.047	84.28
815.222	83.06
815.397	82.49
815.572	84.32
815.747	87.36
815.922	93.73
816.097	90.99
816.272	90.69
816.447	88.09
816.622	87.91
816.797	86.98
816.972	87.13
817.147	87.86
817.322	88.92
817.496	88.78
817.671	89.13
817.846	90.53
818.021	92.48
818.196	90.73
818.371	86.49
818.545	90.14
818.72	88.94
818.895	89.67
819.069	89.22
819.244	89.05
819.419	84.76
819.594	81.31
819.768	76.47
819.943	74.93
820.117	75.5
820.292	74.63
820.467	72.01
820.641	71.2
820.816	69.55
820.99	68.29
821.165	66.6
821.339	66.1
821.514	65.44
821.688	65.67
821.863	64.85
822.037	64.2
822.212	64.64
822.386	64.57
822.56	64.11
822.735	65.1
822.909	65.95
823.084	66.14
823.258	66.56
823.432	67.55
823.606	66.55
823.781	67.45
823.955	67.62
824.129	67.67
824.303	68.27
824.478	66.82
824.652	65.58
824.826	65.24
825	66.08
825.174	67.16
825.348	67.09
825.523	68.22
825.697	68.77
825.871	69.23
826.045	70.98
826.219	70.62
826.393	73.13
826.567	72.41
826.741	72.67
826.915	73.54
827.089	75.41
827.263	75.2
827.437	76.39
827.611	76.83
827.784	77.58
827.958	77.44
828.132	76.98
828.306	77.78
828.48	80.51
828.654	81.93
828.827	81.54
829.001	79.54
829.175	82.94
829.349	85.42
829.522	85.9
829.696	88.38
829.87	90.14
830.044	91.95
830.217	93.16
830.391	94.58
830.565	95.87
830.738	95.69
830.912	98.73
831.085	96.88
831.259	95.3
831.432	93.54
831.606	89.67
831.779	88.01
831.953	86.86
832.126	85.09
832.3	82.42
832.473	80.86
832.647	79.36
832.82	77.35
832.994	77.71
833.167	77.28
833.34	78.7
833.514	79.66
833.687	79.88
833.86	81.35
834.034	82.57
834.207	82.57
834.38	83.39
834.553	85
834.727	87.66
834.9	88.12
835.073	87.79
835.246	87.65
835.419	88.39
835.593	86.59
835.766	86.05
835.939	85.28
836.112	88.77
836.285	89.67
836.458	90.74
836.631	89.51
836.804	90.21
836.977	92.87
837.15	97.08
837.323	98.92
837.496	101.83
837.669	101.02
837.842	107.59
838.015	103.72
838.188	102.62
838.361	100.33
838.533	102.3
838.706	105.26
838.879	104.1
839.052	97.46
839.225	95.86
839.398	96.29
839.57	98.99
839.743	94.55
839.916	95.62
840.088	95.67
840.261	98.83
840.434	98.61
840.607	95.01
840.779	95.35
840.952	97.47
841.124	97.23
841.297	95.23
841.47	94.2
841.642	91.48
841.815	93.72
841.987	91.67
842.16	89.76
842.332	89.49
842.505	93.88
842.677	96.57
842.85	95.6
843.022	99.07
843.194	101.4
843.367	105.49
843.539	105.28
843.712	102.73
843.884	102.85
844.056	103.75
844.229	102.51
844.401	101.37
844.573	100.04
844.745	99.74
844.918	97.58
845.09	99.82
845.262	94.17
845.434	97.14
845.606	100.16
845.779	101.62
845.951	101.32
846.123	100.42
846.295	100.05
846.467	93.28
846.639	92.17
846.811	91.15
846.983	91.09
847.155	93.1
847.327	92.54
847.499	89.14
847.671	89.47
847.843	91.79
848.015	90.15
848.187	91.19
848.359	96.41
848.531	99.32
848.703	104.12
848.875	100.92
849.047	101.99
849.218	100
849.39	102.77
849.562	104.61
849.734	101.31
849.905	103.06
850.077	101.36
850.249	101.93
850.421	97.28
850.592	96.13
850.764	99.66
850.936	102.43
851.107	105.63
851.279	105.05
851.451	108.38
851.622	108.75
851.794	111.47
851.965	112.77
852.137	110.82
852.308	119.63
852.48	118.12
852.651	116.8
852.823	110.42
852.994	108.89
853.166	106.09
853.337	106.71
853.509	107.19
853.68	103.04
853.851	105.85
854.023	106.63
854.194	106.15
854.365	105.78
854.537	100.37
854.708	102.04
854.879	101.56
855.05	104.07
855.222	101.85
855.393	105.04
855.564	111.34
855.735	104.52
855.906	104.57
856.078	99.6
856.249	98.09
856.42	103.61
856.591	109.1
856.762	112.23
856.933	113.95
857.104	114.45
857.275	113.35
857.446	111.33
857.617	112.74
857.788	110.97
857.959	120.6
858.13	125.63
858.301	123.35
858.472	112.61
858.643	106.64
858.814	106.81
858.985	104.49
859.155	103.6
859.326	100.98
859.497	105.29
859.668	106.49
859.839	105.7
860.009	103.3
860.18	104.84
860.351	111.48
860.522	114.51
860.692	119.01
860.863	122.03
861.034	122.89
861.204	123.21
861.375	123.28
861.546	124.59
861.716	120.12
861.887	118.16
862.057	117.57
862.228	111
862.398	110.86
862.569	106.03
862.739	102.61
862.91	101.29
863.08	102.45
863.251	102.54
863.421	101.89
863.592	102.77
863.762	105.53
863.932	101.77
864.103	104.16
864.273	106.45
864.443	105.45
864.614	106.52
864.784	104.54
864.954	102.02
865.125	101.5
865.295	105.12
865.465	106.02
865.635	105.15
865.805	111.01
865.976	106.28
866.146	103.28
866.316	102.52
866.486	102.36
866.656	102.09
866.826	105.84
866.996	104.11
867.166	100.66
867.336	104.35
867.506	105.19
867.676	98.35
867.846	102.09
868.016	106.09
868.186	103.65
868.356	102.25
868.526	101.74
868.696	98.95
868.866	97.95
869.036	93.62
869.206	87.2
869.376	85.3
869.545	87.72
869.715	90.34
869.885	86.43
870.055	88.68
870.224	92.64
870.394	94.47
870.564	96.06
870.734	95.59
870.903	96.56
871.073	99.55
871.243	99.03
871.412	100.49
871.582	99
871.751	101.29
871.921	105.47
872.091	100.82
872.26	100.26
872.43	99.09
872.599	98.56
872.769	100.86
872.938	100.52
873.108	99.84
873.277	99.93
873.446	98.72
873.616	96.21
873.785	89.15
873.955	89.42
874.124	88.28
874.293	89.18
874.463	94.43
874.632	97.31
874.801	92.49
874.971	95.3
875.14	98.49
875.309	98.9
875.478	102.87
875.647	103.82
875.817	108.9
875.986	114.4
876.155	119.38
876.324	112.08
876.493	109.24
876.662	110.03
876.831	110.28
877	104.92
877.17	106.15
877.339	100.68
877.508	99.95
877.677	96.84
877.846	96.59
878.015	90.26
878.184	92.2
878.352	94.37
878.521	95.85
878.69	95.27
878.859	90.34
879.028	91.29
879.197	97.33
879.366	98.32
879.534	97.38
879.703	90.08
879.872	84.45
880.041	85.59
880.21	83.49
880.378	80.32
880.547	77.14
880.716	79.5
880.884	74.74
881.053	70.41
881.222	72.29
881.39	71.15
881.559	72
881.727	74.64
881.896	72.65
882.065	71.8
882.233	71.45
882.402	71.24
882.57	71.99
882.739	75.27
882.907	75.67
883.076	77.77
883.244	77.7
883.412	77.85
883.581	77.29
883.749	77.42
883.918	78.58
884.086	81.97
884.254	81.99
884.423	84.5
884.591	82.18
884.759	85.67
884.927	83.28
885.096	85.24
885.264	89.87
885.432	93.94
885.6	98.33
885.769	98.19
885.937	95.06
886.105	96.69
886.273	95.54
886.441	93.5
886.609	95.39
886.777	94.12
886.945	92.89
887.113	92.31
887.281	90.16
887.449	90.49
887.617	90.27
887.785	93.5
887.953	96.28
888.121	96.12
888.289	102.4
888.457	100.94
888.625	103.37
888.793	109.92
888.961	107.46
889.129	109.86
889.296	100.47
889.464	102.58
889.632	103.07
889.8	103.39
889.967	104.61
890.135	103.16
