Data from JASIL_3235_Reflection_2.txt Node
Date: Mon Nov 16 20:14:43 EST 2015
User: Geneva
Spectrometer: USB4E03002
Autoset integration time: false
Trigger mode: 4
Integration Time (sec): 1.000000E-1
Scans to average: 10
Electric dark correction enabled: false
Nonlinearity correction enabled: false
Boxcar width: 5
Stray light correction enabled: false
XAxis mode: Wavelengths
Stop averaging: false
Number of Pixels in Spectrum: 3648
>>>>>Begin Spectral Data<<<<<
177.575	1625.49
177.794	2859.09
178.014	1721.97
178.233	1557.89
178.452	1096.43
178.672	2098.12
178.891	2642.31
179.11	2197.45
179.33	2420.71
179.549	1590.62
179.768	1666.23
179.987	1110.51
180.207	876.23
180.426	1182.14
180.645	1327.95
180.864	1540.08
181.084	971.96
181.303	1204.32
181.522	1382.73
181.741	1064.36
181.96	891.25
182.179	1067.4
182.398	1419.78
182.618	5432.35
182.837	4635.8
183.056	4130.34
183.275	2342.5
183.494	4914.67
183.713	1982.26
183.932	1153.07
184.151	1749.06
184.37	1970.1
184.589	1843.38
184.808	1861.43
185.027	1139.26
185.246	943.74
185.465	1004.67
185.684	1842.86
185.903	1270.28
186.122	1448.92
186.341	6006.25
186.56	2550
186.779	-4803.9
186.998	-3646.46
187.216	-2173.84
187.435	-9351.22
187.654	-5005.33
187.873	-6666.07
188.092	-10244.44
188.311	-37840
188.53	-3675.51
188.748	5148.65
188.967	-6100
189.186	4569.74
189.405	2019.41
189.623	1609.57
189.842	3196.19
190.061	4992.75
190.28	2068.07
190.498	2680.47
190.717	4772.06
190.936	3305.94
191.154	7560.47
191.373	4051.9
191.592	3771.11
191.81	4639.19
192.029	3727.17
192.248	-8220.51
192.466	-9364.71
192.685	-1306.99
192.904	-1967.97
193.122	-1395.35
193.341	-3543.33
193.559	-2140.91
193.778	-3055.26
193.996	6909.43
194.215	-7793.48
194.433	-1849.48
194.652	-1753.62
194.87	-1774.26
195.089	-3318.02
195.307	-1960
195.526	-2666.67
195.744	-1752.97
195.963	-1378.83
196.181	-1025.84
196.399	-636.68
196.618	-530.21
196.836	-1191.86
197.055	-1222.33
197.273	-65833.33
197.491	-12345.45
197.71	3052.9
197.928	9870
198.146	6222.22
198.365	2541.56
198.583	1434.18
198.801	1056.68
199.019	685.34
199.238	931.33
199.456	854.51
199.674	1199.34
199.892	1040.57
200.111	1110.34
200.329	863.26
200.547	1135.91
200.765	1817.5
200.983	11962.07
201.202	-3293.27
201.42	-2670.63
201.638	-5613.11
201.856	13615.38
202.074	3336.45
202.292	7608.7
202.51	-5968.97
202.728	6365.45
202.946	3232.71
203.165	1743.43
203.383	1675.96
203.601	1313.09
203.819	2380.41
204.037	4809.59
204.255	10182.35
204.473	-5627.42
204.691	-15290.91
204.909	-19158.82
205.127	-2607.5
205.345	7741.86
205.562	2292.57
205.78	1370.87
205.998	1044.2
206.216	854.35
206.434	1009.04
206.652	942.22
206.87	1136.56
207.088	911.43
207.306	1335.71
207.523	2216.39
207.741	7014.04
207.959	25412.5
208.177	-11466.67
208.395	-2481.82
208.612	-3302.46
208.83	3498.26
209.048	3663.48
209.266	410500
209.483	-3979.61
209.701	20855
209.919	3183.33
210.136	1344.41
210.354	931.05
210.572	693.89
210.79	545.05
211.007	536.73
211.225	650.15
211.442	640.42
211.66	486.63
211.878	504.9
212.095	511.18
212.313	516.34
212.53	687.35
212.748	797.09
212.966	1084.37
213.183	1432.72
213.401	1299.15
213.618	1457.69
213.836	1204.57
214.053	1371.6
214.271	840
214.488	785.5
214.705	867.68
214.923	695.47
215.14	1260.15
215.358	878.2
215.575	1188.97
215.793	1082.08
216.01	638.09
216.227	770.94
216.445	755.39
216.662	1018.31
216.879	1128.06
217.097	720.92
217.314	686.02
217.531	575.31
217.749	619.02
217.966	557.99
218.183	657.89
218.4	1454.55
218.618	1080.23
218.835	946.95
219.052	848.5
219.269	909.05
219.487	2361.49
219.704	3400.97
219.921	1764
220.138	1595.02
220.355	880.88
220.572	1532.87
220.79	1002.01
221.007	1131.82
221.224	1206
221.441	2008.65
221.658	1719.37
221.875	1516.87
222.092	2378.71
222.309	60116.67
222.526	3635.35
222.743	8454.76
222.96	1849.46
223.177	649.05
223.394	649.06
223.611	599.14
223.828	577.5
224.045	475.71
224.262	385.06
224.479	367.45
224.696	323.84
224.913	321.53
225.13	331.05
225.347	282.84
225.564	343.32
225.781	290.83
225.997	277.55
226.214	225.04
226.431	202.98
226.648	189.59
226.865	175.09
227.082	160.88
227.298	142.4
227.515	123.79
227.732	111.25
227.949	97.52
228.165	91.97
228.382	87.01
228.599	82.21
228.816	79.6
229.032	79.49
229.249	77.05
229.466	74.68
229.682	82.25
229.899	91.04
230.116	98.64
230.332	107.13
230.549	108.93
230.765	116.85
230.982	125.32
231.199	143.88
231.415	153.44
231.632	157.72
231.848	160.72
232.065	170.47
232.281	166.95
232.498	163.18
232.714	179.34
232.931	185.51
233.147	175.44
233.364	177.88
233.58	170.37
233.797	156.12
234.013	146.3
234.23	146.75
234.446	137.99
234.662	141.65
234.879	146.48
235.095	130.53
235.312	127.16
235.528	136.71
235.744	136.54
235.961	136.88
236.177	149.26
236.393	153.89
236.61	158.67
236.826	155.88
237.042	169.18
237.258	163.83
237.475	181.56
237.691	182.32
237.907	171.61
238.123	165.66
238.339	159.93
238.556	155.89
238.772	154.15
238.988	143.83
239.204	135.6
239.42	117.66
239.636	114.85
239.853	105.29
240.069	98.69
240.285	89.98
240.501	86.55
240.717	83.99
240.933	74.57
241.149	72.59
241.365	69.28
241.581	65.45
241.797	62.79
242.013	60.11
242.229	58.18
242.445	56.34
242.661	57.1
242.877	59.9
243.093	57.71
243.309	61.78
243.525	63.29
243.741	63.89
243.957	67.97
244.173	66.72
244.388	67.39
244.604	66.57
244.82	65.19
245.036	63.7
245.252	55.6
245.468	53.36
245.683	48.83
245.899	43.92
246.115	41.58
246.331	38.35
246.547	37.15
246.762	36.52
246.978	36.31
247.194	36.59
247.409	35.94
247.625	37.56
247.841	37.68
248.057	39.19
248.272	41.92
248.488	44.61
248.703	47.82
248.919	51.63
249.135	53.46
249.35	56.45
249.566	59.08
249.782	64.57
249.997	67.61
250.213	69.13
250.428	68.86
250.644	68.4
250.859	67.48
251.075	66.51
251.29	63.99
251.506	62.76
251.721	59.98
251.937	61.2
252.152	59.42
252.368	57.57
252.583	60.57
252.798	64.61
253.014	67.4
253.229	70.21
253.445	74.07
253.66	81
253.875	85.24
254.091	89.44
254.306	91.12
254.521	97.54
254.737	104.38
254.952	104.13
255.167	103.6
255.383	101.77
255.598	101.69
255.813	97.38
256.028	93.46
256.244	93.77
256.459	89.2
256.674	83.02
256.889	73.8
257.104	64.28
257.32	59.2
257.535	52.95
257.75	49.03
257.965	44.82
258.18	41.4
258.395	36.71
258.61	33.99
258.826	32.85
259.041	30.25
259.256	29.13
259.471	27.8
259.686	27.96
259.901	28.24
260.116	27.78
260.331	28.97
260.546	30.61
260.761	33.06
260.976	34.48
261.191	37.02
261.406	40.25
261.621	41.88
261.836	46.14
262.05	48.83
262.265	51.42
262.48	53.88
262.695	56.63
262.91	56.66
263.125	56.27
263.34	56.34
263.555	55.17
263.769	55.89
263.984	58.37
264.199	59.87
264.414	56.59
264.629	54.27
264.843	55.36
265.058	54.53
265.273	54.31
265.488	54.34
265.702	53.98
265.917	54.29
266.132	52.04
266.346	51.54
266.561	50.39
266.776	50.32
266.99	50.38
267.205	49.05
267.42	47.85
267.634	46.88
267.849	45.37
268.063	43.75
268.278	43.02
268.492	43.38
268.707	42.05
268.922	41.79
269.136	41.48
269.351	40.16
269.565	38.79
269.78	37.29
269.994	37.75
270.209	36.93
270.423	38.2
270.637	35.88
270.852	35.78
271.066	34.68
271.281	35.77
271.495	35.78
271.709	35.97
271.924	36.54
272.138	37.07
272.353	36.32
272.567	38.35
272.781	37.74
272.996	38.59
273.21	39.82
273.424	41.93
273.638	41.86
273.853	42.65
274.067	44.47
274.281	45.94
274.495	47
274.71	48.47
274.924	47.81
275.138	46.71
275.352	50.43
275.566	48.62
275.781	48.64
275.995	47.59
276.209	47.99
276.423	46.27
276.637	46.07
276.851	45.47
277.065	43.67
277.279	43.93
277.493	46.29
277.707	45.24
277.921	45.62
278.135	44.53
278.349	44.1
278.563	42.63
278.777	44.74
278.991	44.76
279.205	44.17
279.419	44.51
279.633	45.6
279.847	43.89
280.061	40.43
280.275	40.54
280.489	40.13
280.703	40.13
280.917	39.6
281.131	37.53
281.344	37.35
281.558	36.97
281.772	37.12
281.986	34.62
282.2	34.28
282.414	35.29
282.627	34
282.841	34.51
283.055	34.44
283.269	34.72
283.482	34.67
283.696	33.73
283.91	33.99
284.123	32.04
284.337	32.1
284.551	31.4
284.764	32.29
284.978	33.27
285.192	31.48
285.405	31.85
285.619	32.42
285.833	32.45
286.046	33.16
286.26	34.07
286.473	34.27
286.687	34.86
286.9	35.24
287.114	34.93
287.327	34.19
287.541	35.34
287.754	35.5
287.968	34.82
288.181	34.75
288.395	33.28
288.608	32.13
288.822	32.43
289.035	32.04
289.248	31.64
289.462	31.91
289.675	32.11
289.889	32.1
290.102	31.96
290.315	32.46
290.529	32.36
290.742	33.14
290.955	33.08
291.169	34.33
291.382	35.29
291.595	37.54
291.808	38.22
292.022	37.62
292.235	37.79
292.448	36.64
292.661	36.44
292.875	37.08
293.088	36.4
293.301	36.59
293.514	35.4
293.727	35.14
293.94	33.35
294.153	32
294.367	33
294.58	32.65
294.793	32.19
295.006	32.02
295.219	30.54
295.432	31.29
295.645	29.78
295.858	30.13
296.071	28.29
296.284	28.04
296.497	27.35
296.71	26.04
296.923	25.62
297.136	25.54
297.349	25.46
297.562	25.73
297.775	25.55
297.988	26.78
298.201	27.09
298.414	28.39
298.626	28.94
298.839	28.87
299.052	29.7
299.265	31.17
299.478	31.37
299.691	32.3
299.903	32.2
300.116	31.99
300.329	32.53
300.542	32.16
300.755	31.93
300.967	33.17
301.18	33.4
301.393	33.26
301.605	32.4
301.818	32.08
302.031	31.22
302.243	31.59
302.456	31.37
302.669	30.95
302.881	31.81
303.094	32.26
303.307	30.85
303.519	31.7
303.732	33.24
303.944	33.13
304.157	34.95
304.37	35.33
304.582	35.36
304.795	34.53
305.007	34.44
305.22	33.24
305.432	33.82
305.645	33.81
305.857	33.58
306.069	33.01
306.282	33.57
306.494	33.59
306.707	33.77
306.919	33.26
307.132	34.37
307.344	34.79
307.556	35.5
307.769	33.84
307.981	34.45
308.193	33.96
308.406	32.63
308.618	32.34
308.83	31.18
309.043	30.16
309.255	31.07
309.467	31.82
309.679	30.77
309.892	29.71
310.104	31.21
310.316	30.6
310.528	30.4
310.74	31.09
310.953	31.92
311.165	32.72
311.377	32.45
311.589	32.91
311.801	31.54
312.013	32.18
312.225	33.33
312.437	32.68
312.649	32.88
312.862	32.67
313.074	33.18
313.286	33.45
313.498	34.14
313.71	36.32
313.922	35.76
314.134	37.75
314.346	37.75
314.558	36.92
314.77	37.47
314.982	38.87
315.193	40.91
315.405	40.98
315.617	40.29
315.829	40.7
316.041	39.81
316.253	40.71
316.465	40.75
316.677	40.97
316.888	43.32
317.1	43.91
317.312	43.18
317.524	43.6
317.736	45.05
317.947	44.84
318.159	45.02
318.371	46.15
318.583	46.85
318.794	47.38
319.006	48.47
319.218	47.45
319.43	46.84
319.641	46.61
319.853	45
320.064	45.04
320.276	46.63
320.488	45.5
320.699	45.43
320.911	44.23
321.123	44.1
321.334	43.34
321.546	43.07
321.757	44.36
321.969	45.81
322.18	44.63
322.392	42.43
322.603	40.25
322.815	39.92
323.026	38.44
323.238	37.77
323.449	36.8
323.661	37.04
323.872	36.52
324.083	35.69
324.295	34.6
324.506	35.74
324.718	35.23
324.929	34.89
325.14	34.14
325.352	34.96
325.563	35.01
325.774	34.83
325.986	34.55
326.197	35.18
326.408	35.37
326.62	34.65
326.831	35.09
327.042	36.41
327.253	37.47
327.464	38.72
327.676	38.84
327.887	39.8
328.098	39.9
328.309	40.14
328.52	39.1
328.732	39.32
328.943	39.91
329.154	40.17
329.365	40.51
329.576	40.74
329.787	41.29
329.998	39.86
330.209	39.37
330.42	38.17
330.631	38.51
330.842	39.22
331.053	38.12
331.264	38.2
331.475	37.96
331.686	37.62
331.897	36.86
332.108	36.61
332.319	37.09
332.53	37.37
332.741	38.15
332.952	38.18
333.163	38.83
333.374	39.28
333.585	38.62
333.795	39.06
334.006	39.25
334.217	40.34
334.428	40.76
334.639	42.02
334.849	40.67
335.06	40.18
335.271	39.34
335.482	38.8
335.692	38.76
335.903	39.4
336.114	39.24
336.325	38.95
336.535	38.61
336.746	38.64
336.957	37.98
337.167	39.69
337.378	39.91
337.589	40.68
337.799	40.41
338.01	40.36
338.22	40.58
338.431	40.76
338.642	40.21
338.852	40.57
339.063	40.79
339.273	40.48
339.484	40.12
339.694	40.96
339.905	41.52
340.115	42.51
340.326	43.23
340.536	43.08
340.746	42.5
340.957	43.19
341.167	42.79
341.378	41.83
341.588	41.98
341.799	42.23
342.009	41.9
342.219	40.48
342.43	39.28
342.64	39.53
342.85	38.89
343.061	37.83
343.271	38.11
343.481	37.41
343.691	37.02
343.902	36.28
344.112	34.09
344.322	32.83
344.532	32.16
344.743	33.18
344.953	32.32
345.163	32.85
345.373	34.47
345.583	33.37
345.793	32.82
346.004	32.62
346.214	32.92
346.424	33.82
346.634	34.78
346.844	36.29
347.054	36.04
347.264	35.88
347.474	35.44
347.684	34.23
347.894	34.11
348.104	34.32
348.314	35.09
348.524	35.29
348.734	35.43
348.944	35.21
349.154	33.69
349.364	33
349.574	32.53
349.784	33.48
349.994	33.79
350.204	34.23
350.413	34.5
350.623	33.72
350.833	33.45
351.043	33.46
351.253	32.13
351.463	32.13
351.672	32.51
351.882	31.85
352.092	31.37
352.302	31.64
352.511	31.14
352.721	30.75
352.931	31.28
353.141	31.07
353.35	31.1
353.56	32.36
353.77	32.14
353.979	33.22
354.189	34.45
354.399	33.49
354.608	32.46
354.818	32.23
355.027	32.98
355.237	32.05
355.447	31.82
355.656	31.31
355.866	30.58
356.075	30.64
356.285	29.51
356.494	28.59
356.704	29.15
356.913	29.17
357.123	28.68
357.332	28.13
357.542	28
357.751	28.05
357.96	28.42
358.17	28.66
358.379	29.45
358.589	29.21
358.798	28.94
359.007	27.74
359.217	27.4
359.426	27.79
359.635	27.02
359.845	26.87
360.054	26.89
360.263	26.55
360.472	26.5
360.682	26.07
360.891	26.01
361.1	25.51
361.309	26.28
361.519	25.29
361.728	24.88
361.937	24.57
362.146	24.75
362.355	24.48
362.564	24.41
362.774	24.5
362.983	24.43
363.192	23.87
363.401	24.85
363.61	24.8
363.819	26.72
364.028	26.5
364.237	27.26
364.446	27.9
364.655	28.11
364.864	28.7
365.073	28.96
365.282	28.26
365.491	28.36
365.7	27.94
365.909	28.56
366.118	28.19
366.327	28.56
366.536	28.42
366.745	28.64
366.954	28.17
367.162	27.99
367.371	27.34
367.58	28.79
367.789	29.31
367.998	30.54
368.207	29.69
368.415	29.86
368.624	30.61
368.833	31.15
369.042	30.26
369.25	30.94
369.459	30.93
369.668	31.79
369.877	31.16
370.085	30.76
370.294	29.8
370.503	30.08
370.711	29.68
370.92	29.09
371.129	28.87
371.337	28.42
371.546	27.44
371.754	27.28
371.963	26.7
372.171	26.99
372.38	26.67
372.589	26.48
372.797	26.3
373.006	26.04
373.214	26.65
373.423	26.61
373.631	27.33
373.84	28.76
374.048	28.84
374.256	28.56
374.465	28.55
374.673	29.35
374.882	29.64
375.09	29.21
375.298	29.3
375.507	28.84
375.715	28.59
375.923	28.08
376.132	27.16
376.34	26.96
376.548	26.92
376.757	27.06
376.965	26.4
377.173	25.82
377.381	26.4
377.59	27.11
377.798	26.47
378.006	26.35
378.214	26.78
378.423	27.35
378.631	27.4
378.839	28.04
379.047	27.76
379.255	28.01
379.463	28.47
379.671	28.6
379.879	27.18
380.088	28.42
380.296	28.6
380.504	28.26
380.712	27.91
380.92	27.57
381.128	26.98
381.336	26.1
381.544	25.75
381.752	25.91
381.96	26.09
382.168	26.82
382.376	27.14
382.584	27.82
382.791	27.89
382.999	27.95
383.207	28.19
383.415	28.38
383.623	29.51
383.831	29.85
384.039	29.51
384.247	28.71
384.454	29.37
384.662	28.84
384.87	28.45
385.078	27.97
385.285	27.72
385.493	27.63
385.701	26.9
385.909	26.3
386.116	25.96
386.324	25.76
386.532	25.61
386.739	24.63
386.947	24.72
387.155	24.96
387.362	25.69
387.57	26.48
387.778	26.92
387.985	27.61
388.193	28.09
388.4	27.98
388.608	28.79
388.816	29.03
389.023	30.02
389.231	29.5
389.438	29.17
389.646	28.48
389.853	27.28
390.061	27.31
390.268	26.54
390.475	24.98
390.683	25.61
390.89	24.71
391.098	24.38
391.305	23.45
391.512	23.37
391.72	23.41
391.927	23.69
392.135	23.8
392.342	22.97
392.549	23.49
392.756	24.15
392.964	24.27
393.171	24.84
393.378	24.75
393.586	24.9
393.793	24.8
394	24.2
394.207	24.44
394.414	24.63
394.622	24.93
394.829	24.49
395.036	24.83
395.243	24.45
395.45	24.56
395.657	25.47
395.864	25.81
396.072	25.69
396.279	26.24
396.486	25.82
396.693	26.36
396.9	26.21
397.107	26.51
397.314	26.48
397.521	27.12
397.728	26.6
397.935	26.25
398.142	26
398.349	26.78
398.556	26.6
398.763	27.08
398.97	26.42
399.177	26.78
399.383	26.6
399.59	25.99
399.797	25.19
400.004	25.17
400.211	25.14
400.418	25.12
400.625	25.37
400.831	25.27
401.038	25.26
401.245	25.3
401.452	25.48
401.658	25.77
401.865	26.26
402.072	26.71
402.279	26.47
402.485	26.15
402.692	25.65
402.899	25.08
403.105	24.87
403.312	24.63
403.519	24.29
403.725	23.47
403.932	23.52
404.138	23.38
404.345	23.15
404.552	23.54
404.758	23.5
404.965	24.49
405.171	24.41
405.378	24.57
405.584	24.44
405.791	25
405.997	25.66
406.204	26.14
406.41	26.58
406.617	26.16
406.823	25.91
407.029	25.95
407.236	25.46
407.442	25.87
407.649	26.25
407.855	25.91
408.061	26
408.268	25.73
408.474	25.09
408.68	24.94
408.887	25.32
409.093	25.05
409.299	25.41
409.505	24.69
409.712	24.59
409.918	23.85
410.124	24.43
410.33	24.1
410.537	24.87
410.743	25.17
410.949	25.21
411.155	25.65
411.361	25.6
411.567	25.62
411.773	26.49
411.98	26.69
412.186	27.4
412.392	27.11
412.598	27.54
412.804	26.52
413.01	26.27
413.216	26.14
413.422	25.77
413.628	26.14
413.834	26.27
414.04	26.41
414.246	25.87
414.452	25.56
414.658	25.5
414.864	25.41
415.07	25.41
415.275	25.84
415.481	25.51
415.687	25.55
415.893	25.38
416.099	24.44
416.305	23.41
416.511	23.06
416.716	22.45
416.922	22.22
417.128	21.96
417.334	22.15
417.539	21.36
417.745	21.17
417.951	20.62
418.157	20.57
418.362	20.47
418.568	20.73
418.774	20.71
418.979	20.86
419.185	20.68
419.391	20.17
419.596	19.86
419.802	19.87
420.008	19.93
420.213	22
420.419	21.86
420.624	21.92
420.83	21.62
421.035	21.25
421.241	21.24
421.446	20.95
421.652	21.02
421.857	21.06
422.063	21.05
422.268	20.97
422.474	19.12
422.679	19.08
422.885	19.2
423.09	19.38
423.295	19.61
423.501	19.55
423.706	19.97
423.911	20.17
424.117	20.21
424.322	20.34
424.527	20.33
424.733	19.96
424.938	20.12
425.143	20.02
425.349	19.98
425.554	20.28
425.759	20.61
425.964	20.71
426.169	20.84
426.375	20.87
426.58	21.22
426.785	21.48
426.99	22.22
427.195	22.43
427.4	23.02
427.605	23.39
427.811	23.26
428.016	23.09
428.221	23.54
428.426	23.69
428.631	24.25
428.836	23.97
429.041	24.02
429.246	23.92
429.451	23.95
429.656	23.86
429.861	23.77
430.066	24.25
430.271	24.37
430.476	24.21
430.681	24.04
430.886	23.48
431.09	23.95
431.295	23.83
431.5	24.06
431.705	23.95
431.91	23.95
432.115	24.09
432.32	23.95
432.524	23.58
432.729	23.08
432.934	23.06
433.139	23.58
433.343	22.95
433.548	22.97
433.753	22.7
433.958	22.6
434.162	22.62
434.367	22.9
434.572	22.77
434.776	23.21
434.981	23.44
435.186	23.56
435.39	23.03
435.595	23.4
435.799	23.18
436.004	23.22
436.209	23.35
436.413	23.06
436.618	22.73
436.822	22.9
437.027	22.64
437.231	22.79
437.436	22.54
437.64	22.49
437.845	22.45
438.049	22.52
438.253	22.21
438.458	21.81
438.662	21.91
438.867	21.65
439.071	21.53
439.275	21.22
439.48	21.06
439.684	20.92
439.888	21.08
440.093	20.65
440.297	20.72
440.501	21.12
440.706	21.44
440.91	21.31
441.114	21.11
441.318	21.01
441.523	21.42
441.727	21.4
441.931	21.83
442.135	21.88
442.339	22.21
442.543	21.91
442.748	21.89
442.952	21.64
443.156	21.73
443.36	21.95
443.564	22.2
443.768	21.88
443.972	21.93
444.176	21.54
444.38	21.56
444.584	21.38
444.788	21.78
444.992	21.25
445.196	21.38
445.4	21.16
445.604	21.1
445.808	20.93
446.012	20.85
446.216	20.78
446.42	20.94
446.624	20.51
446.828	20.46
447.032	20.31
447.235	20.54
447.439	20.22
447.643	20.29
447.847	20.62
448.051	20.75
448.254	21.2
448.458	21.64
448.662	22.01
448.866	22.13
449.069	22.51
449.273	22.63
449.477	22.77
449.681	23.21
449.884	23.37
450.088	23.22
450.292	23.21
450.495	23.13
450.699	22.75
450.902	22.53
451.106	23.01
451.31	23.39
451.513	23.17
451.717	23.17
451.92	23.43
452.124	23.71
452.327	23.36
452.531	23.24
452.734	23.16
452.938	23.43
453.141	23.4
453.345	23.31
453.548	22.99
453.752	23.28
453.955	23.5
454.158	23.4
454.362	22.9
454.565	23.47
454.769	23.53
454.972	23.69
455.175	23.56
455.379	23.63
455.582	23.79
455.785	23.77
455.988	23.95
456.192	23.67
456.395	23.39
456.598	23.3
456.801	23.04
457.005	23.22
457.208	23.05
457.411	22.84
457.614	22.59
457.817	22.29
458.021	21.91
458.224	21.38
458.427	21.46
458.63	21.55
458.833	21.64
459.036	21.34
459.239	21.08
459.442	20.77
459.645	20.71
459.848	20.45
460.051	20.43
460.254	20.41
460.457	20.86
460.66	20.71
460.863	20.52
461.066	21
461.269	21.2
461.472	21.45
461.675	21.77
461.878	22.19
462.081	22.62
462.284	22.69
462.486	23.02
462.689	23.14
462.892	23.33
463.095	23.77
463.298	23.34
463.5	23.78
463.703	23.65
463.906	23.68
464.109	23.31
464.311	23.53
464.514	23.79
464.717	23.8
464.92	23.3
465.122	23.25
465.325	23.29
465.528	23.49
465.73	23.52
465.933	23.19
466.135	23.32
466.338	23.46
466.541	23.34
466.743	23.28
466.946	23.31
467.148	23.76
467.351	23.59
467.553	23.4
467.756	23.39
467.958	23.3
468.161	23.74
468.363	23.83
468.566	24.3
468.768	24.26
468.971	24.51
469.173	24.64
469.375	24.73
469.578	24.97
469.78	25.19
469.983	25.27
470.185	24.84
470.387	24.55
470.59	24.47
470.792	24.16
470.994	24.21
471.196	23.91
471.399	23.55
471.601	23.24
471.803	22.97
472.005	22.61
472.208	22.27
472.41	22.49
472.612	22.46
472.814	22.46
473.016	22.69
473.218	22.65
473.421	22.57
473.623	22.69
473.825	22.75
474.027	23.11
474.229	23.42
474.431	23.89
474.633	23.9
474.835	23.84
475.037	23.57
475.239	23.23
475.441	23.29
475.643	23.34
475.845	23.43
476.047	23.02
476.249	22.99
476.451	23.01
476.653	22.55
476.855	22.37
477.057	22.49
477.258	22.34
477.46	22.27
477.662	22.21
477.864	22.07
478.066	21.84
478.268	22.05
478.469	21.99
478.671	21.55
478.873	21.63
479.075	21.72
479.276	21.4
479.478	21.59
479.68	21.19
479.882	20.95
480.083	20.97
480.285	20.93
480.487	20.95
480.688	20.85
480.89	20.89
481.091	20.52
481.293	20.37
481.495	20.37
481.696	20
481.898	19.76
482.099	19.39
482.301	19
482.502	18.62
482.704	18.2
482.905	17.83
483.107	17.41
483.308	17.25
483.51	16.91
483.711	16.74
483.913	16.64
484.114	16.55
484.315	16.56
484.517	16.58
484.718	16.56
484.92	16.6
485.121	16.64
485.322	16.79
485.524	16.88
485.725	17.16
485.926	17.23
486.127	17.26
486.329	17.32
486.53	17.27
486.731	17.21
486.932	17.27
487.134	17.43
487.335	17.33
487.536	17.36
487.737	17.37
487.938	17.31
488.139	17.29
488.341	17.38
488.542	17.59
488.743	17.68
488.944	17.81
489.145	17.91
489.346	17.81
489.547	18.06
489.748	18.13
489.949	18.16
490.15	18.19
490.351	18.25
490.552	18.26
490.753	18.09
490.954	17.96
491.155	17.93
491.356	18.01
491.557	18.02
491.758	17.99
491.959	18.07
492.159	18.26
492.36	18.19
492.561	18.3
492.762	18.52
492.963	18.76
493.164	19.2
493.364	19.59
493.565	19.81
493.766	19.93
493.967	20.11
494.167	20.19
494.368	20.19
494.569	20.67
494.769	20.77
494.97	20.66
495.171	20.65
495.371	20.51
495.572	20.48
495.773	20.24
495.973	20.49
496.174	20.61
496.375	20.79
496.575	20.74
496.776	20.69
496.976	20.63
497.177	20.47
497.377	20.46
497.578	20.48
497.778	20.53
497.979	20.5
498.179	20.39
498.38	20.45
498.58	20.42
498.78	20.44
498.981	20.57
499.181	20.82
499.382	21.36
499.582	21.35
499.782	21.53
499.983	21.56
500.183	22.02
500.383	22.23
500.584	22.16
500.784	22.23
500.984	22.33
501.184	22.23
501.385	22.21
501.585	22.19
501.785	22.36
501.985	22.34
502.185	22.16
502.386	22.08
502.586	21.97
502.786	22.23
502.986	22.44
503.186	22.37
503.386	22.44
503.586	22.64
503.786	22.62
503.987	22.52
504.187	22.53
504.387	22.6
504.587	22.47
504.787	22.84
504.987	22.78
505.187	22.56
505.387	22.78
505.587	22.92
505.786	22.75
505.986	22.79
506.186	22.85
506.386	23.01
506.586	23.34
506.786	23.42
506.986	23.28
507.186	23.38
507.386	23.6
507.585	23.35
507.785	23.01
507.985	22.94
508.185	22.85
508.384	22.68
508.584	22.47
508.784	21.85
508.984	22.14
509.183	21.99
509.383	22.12
509.583	22.38
509.782	22.59
509.982	22.91
510.182	22.99
510.381	22.75
510.581	22.95
510.781	23.33
510.98	23.85
511.18	23.79
511.379	24.07
511.579	23.9
511.778	23.64
511.978	23.56
512.177	23.65
512.377	23.91
512.576	24.03
512.776	24.19
512.975	23.99
513.175	23.95
513.374	24.07
513.573	24.04
513.773	24.41
513.972	24.62
514.172	24.85
514.371	25.08
514.57	24.95
514.77	25.19
514.969	25.55
515.168	25.49
515.367	25.96
515.567	25.98
515.766	25.99
515.965	25.68
516.164	25.2
516.364	25.21
516.563	24.91
516.762	24.96
516.961	24.88
517.16	24.57
517.359	24.71
517.559	24.29
517.758	24.12
517.957	23.83
518.156	23.82
518.355	24.05
518.554	23.95
518.753	23.96
518.952	23.89
519.151	24.24
519.35	24.3
519.549	24.42
519.748	24.32
519.947	24.34
520.146	24.56
520.345	24.68
520.544	24.68
520.743	24.86
520.942	25.11
521.141	25.11
521.339	24.89
521.538	25.1
521.737	25.27
521.936	25.54
522.135	25.66
522.333	25.97
522.532	26.07
522.731	26.34
522.93	26.52
523.129	26.77
523.327	27.13
523.526	27.03
523.725	26.95
523.923	26.81
524.122	26.97
524.321	26.97
524.519	26.54
524.718	26.59
524.917	26.52
525.115	26.4
525.314	25.96
525.512	25.86
525.711	25.82
525.909	26.06
526.108	25.96
526.306	26.04
526.505	26.02
526.703	26.15
526.902	25.89
527.1	25.82
527.299	25.76
527.497	25.8
527.696	25.77
527.894	25.73
528.092	25.5
528.291	25.52
528.489	25.42
528.688	25.44
528.886	25.37
529.084	25.43
529.283	25.36
529.481	25.44
529.679	25.65
529.877	25.84
530.076	26.05
530.274	26.28
530.472	26.47
530.67	26.75
530.869	26.99
531.067	27.33
531.265	27.77
531.463	28.05
531.661	28.19
531.859	28.42
532.057	28.42
532.255	28.51
532.454	28.48
532.652	28.52
532.85	28.34
533.048	28.48
533.246	28.53
533.444	28.5
533.642	28.68
533.84	28.72
534.038	28.72
534.236	28.86
534.434	29.01
534.632	29.18
534.83	29.47
535.027	29.86
535.225	29.87
535.423	30.15
535.621	30.22
535.819	30.26
536.017	30.67
536.215	30.51
536.412	30.42
536.61	30.43
536.808	30.46
537.006	30.4
537.203	30.53
537.401	30.58
537.599	30.55
537.797	30.82
537.994	31.18
538.192	31.14
538.39	31.5
538.587	31.58
538.785	31.76
538.983	31.87
539.18	31.96
539.378	31.82
539.575	31.99
539.773	32.06
539.97	31.99
540.168	31.72
540.366	31.65
540.563	31.46
540.761	31.39
540.958	31.35
541.155	31.32
541.353	31.28
541.55	31.32
541.748	31.19
541.945	31.13
542.143	31.08
542.34	31.19
542.537	31.3
542.735	31.39
542.932	31.63
543.129	31.87
543.327	32.29
543.524	32.37
543.721	32.48
543.919	32.7
544.116	33.09
544.313	33.43
544.51	33.64
544.708	33.86
544.905	34.25
545.102	34.66
545.299	34.75
545.496	34.92
545.693	35.08
545.891	34.9
546.088	35.07
546.285	35.1
546.482	35.13
546.679	35.18
546.876	35.12
547.073	35.18
547.27	34.92
547.467	35.24
547.664	35.21
547.861	35.86
548.058	36.59
548.255	37.1
548.452	37.35
548.649	37.9
548.846	38.19
549.043	38.66
549.24	38.84
549.437	39.51
549.633	39.38
549.83	40
550.027	40.07
550.224	40.4
550.421	40.27
550.618	40.46
550.814	40.27
551.011	40.66
551.208	40.71
551.405	40.77
551.601	40.87
551.798	41.11
551.995	40.74
552.191	40.78
552.388	40.59
552.585	40.81
552.781	40.73
552.978	40.79
553.175	40.92
553.371	41.36
553.568	41.47
553.764	41.73
553.961	41.52
554.157	41.73
554.354	42.1
554.55	42.65
554.747	43.14
554.943	43.47
555.14	43.73
555.336	43.79
555.533	43.87
555.729	44.03
555.926	43.89
556.122	44.38
556.318	44.71
556.515	44.46
556.711	44.34
556.907	44.25
557.104	44.4
557.3	44.71
557.496	44.48
557.693	44.33
557.889	44.7
558.085	44.58
558.281	45.1
558.478	45.1
558.674	45.27
558.87	45.22
559.066	45.27
559.262	44.96
559.459	44.61
559.655	45.1
559.851	45.35
560.047	45.49
560.243	45.87
560.439	45.58
560.635	45.16
560.831	44.94
561.027	45.23
561.223	45.19
561.419	45.41
561.615	45.75
561.811	45.72
562.007	45.52
562.203	45.06
562.399	45.26
562.595	45.64
562.791	46.32
562.987	47.04
563.183	46.91
563.379	46.94
563.575	47.24
563.771	47.44
563.966	47.31
564.162	47.54
564.358	47.99
564.554	47.81
564.75	47.39
564.945	47.31
565.141	46.87
565.337	47.16
565.533	47.16
565.728	47.1
565.924	47.11
566.12	47.39
566.315	47.35
566.511	47.31
566.707	47.37
566.902	47.57
567.098	47.26
567.293	47.24
567.489	47.24
567.684	47.2
567.88	47.64
568.076	47.69
568.271	47.47
568.467	47.21
568.662	47.33
568.858	47.63
569.053	47.41
569.248	47.74
569.444	47.72
569.639	47.62
569.835	47.68
570.03	47.44
570.225	47.36
570.421	47.62
570.616	47.74
570.812	47.61
571.007	47.18
571.202	47.54
571.397	47.68
571.593	47.94
571.788	48.08
571.983	48.04
572.178	48.24
572.374	48.42
572.569	48.25
572.764	48.54
572.959	48.45
573.154	48.88
573.35	48.75
573.545	48.76
573.74	48.74
573.935	48.46
574.13	48.57
574.325	48.32
574.52	48.27
574.715	48.64
574.91	48.47
575.105	48.93
575.3	48.92
575.495	49.19
575.69	49.31
575.885	49.34
576.08	49.73
576.275	49.98
576.47	50.47
576.665	50.73
576.86	50.41
577.055	50.74
577.25	50.95
577.444	51.09
577.639	51.01
577.834	50.99
578.029	51.25
578.224	51.52
578.418	51.66
578.613	51.84
578.808	52.12
579.003	52.72
579.197	53.01
579.392	52.8
579.587	52.97
579.781	53.4
579.976	53.83
580.171	53.73
580.365	54.03
580.56	54.15
580.755	54.16
580.949	53.56
581.144	53.38
581.338	53.68
581.533	53.93
581.727	53.93
581.922	53.73
582.116	53.75
582.311	53.67
582.505	53.38
582.7	53.44
582.894	53.27
583.089	54.02
583.283	54.6
583.478	54.8
583.672	54.88
583.866	55.03
584.061	54.94
584.255	54.78
584.449	55.61
584.644	55.71
584.838	55.76
585.032	56.05
585.226	55.76
585.421	55.54
585.615	55.04
585.809	55.07
586.003	55.14
586.198	55.31
586.392	55.45
586.586	55.03
586.78	55.5
586.974	55.59
587.168	55.17
587.363	54.98
587.557	54.58
587.751	54.93
587.945	55.17
588.139	55.19
588.333	54.87
588.527	55.03
588.721	55.13
588.915	54.84
589.109	54.61
589.303	55.12
589.497	55.54
589.691	56.27
589.885	56.07
590.079	56.08
590.273	56.22
590.466	57.06
590.66	56.62
590.854	56.93
591.048	57.11
591.242	56.89
591.436	56.27
591.629	56.01
591.823	55.81
592.017	55.9
592.211	55.85
592.404	55.65
592.598	55.26
592.792	55.48
592.986	55.16
593.179	54.83
593.373	55.3
593.567	56.11
593.76	56.25
593.954	56.21
594.147	56.51
594.341	56.41
594.535	56.52
594.728	56.51
594.922	56.07
595.115	56.12
595.309	56.03
595.502	56.35
595.696	55.79
595.889	55.85
596.083	55.6
596.276	55.52
596.47	55.46
596.663	55.47
596.856	55.8
597.05	56.19
597.243	56.33
597.437	56.19
597.63	55.92
597.823	56.18
598.017	56.2
598.21	56.58
598.403	56.36
598.596	56.71
598.79	56.98
598.983	57.02
599.176	57.3
599.369	57.41
599.563	58.25
599.756	58.85
599.949	58.73
600.142	59
600.335	59.09
600.528	59.18
600.722	58.97
600.915	59.22
601.108	59.26
601.301	58.73
601.494	58.21
601.687	57.88
601.88	57.25
602.073	57.04
602.266	56.61
602.459	56.33
602.652	55.98
602.845	55.82
603.038	55.16
603.231	54.8
603.424	54.92
603.617	55.13
603.809	55
604.002	54.9
604.195	55.42
604.388	55.62
604.581	55.62
604.774	56.1
604.966	56.1
605.159	56.12
605.352	56.59
605.545	57.04
605.737	57.32
605.93	57.04
606.123	57.8
606.316	57.87
606.508	57.75
606.701	58.06
606.894	57.85
607.086	58.69
607.279	59.25
607.471	58.91
607.664	58.34
607.857	57.92
608.049	58.22
608.242	57.79
608.434	57.49
608.627	57.47
608.819	57.02
609.012	57.18
609.204	57.01
609.397	56.95
609.589	56.56
609.782	56.87
609.974	57.16
610.166	57.34
610.359	57.43
610.551	57.52
610.743	58.09
610.936	59.02
611.128	59.45
611.32	59.8
611.513	60.11
611.705	61.27
611.897	61.32
612.09	62.22
612.282	62.63
612.474	62.65
612.666	63.14
612.858	63.21
613.051	63.24
613.243	63.29
613.435	62.84
613.627	62.91
613.819	62.83
614.011	64.3
614.203	64.23
614.395	64.24
614.588	64.7
614.78	64.52
614.972	64.75
615.164	64.56
615.356	64.5
615.548	64.34
615.74	64.48
615.932	64.5
616.124	63.09
616.315	63.26
616.507	64.03
616.699	64.41
616.891	63.93
617.083	63.97
617.275	64.52
617.467	64.35
617.659	64.6
617.85	64.52
618.042	65.05
618.234	65.5
618.426	65.66
618.618	64.24
618.809	63.82
619.001	64.17
619.193	64.35
619.384	64.48
619.576	64.89
619.768	64.63
619.959	64.38
620.151	63.22
620.343	63
620.534	62.64
620.726	63.86
620.917	63.73
621.109	64.03
621.301	63.63
621.492	63.43
621.684	63.65
621.875	64.02
622.067	63.4
622.258	63.98
622.45	64.6
622.641	64.14
622.832	63.02
623.024	63.47
623.215	63.46
623.407	63.2
623.598	63.13
623.789	63.04
623.981	62.42
624.172	63.47
624.363	63.07
624.555	62.58
624.746	62.79
624.937	63.5
625.129	62.96
625.32	62.5
625.511	62.45
625.702	61.64
625.893	61.31
626.085	61.54
626.276	61.12
626.467	61.47
626.658	61.31
626.849	60.74
627.04	60.64
627.231	60.81
627.422	61.27
627.614	61.45
627.805	62.1
627.996	61.78
628.187	62.53
628.378	63.14
628.569	63.01
628.76	62.97
628.951	63.54
629.142	63.88
629.332	64.06
629.523	63.99
629.714	64.09
629.905	64.1
630.096	64.45
630.287	64.28
630.478	63.68
630.669	63.49
630.859	64.23
631.05	63.94
631.241	63.18
631.432	62.74
631.623	62.8
631.813	63.14
632.004	62.29
632.195	61.76
632.385	61.63
632.576	61.78
632.767	62.27
632.957	62.09
633.148	62.76
633.339	63.5
633.529	63.62
633.72	62.62
633.91	61.64
634.101	62.09
634.292	63.19
634.482	63.02
634.673	63.07
634.863	62.74
635.054	62.2
635.244	62.22
635.435	62.08
635.625	61.6
635.815	62.48
636.006	63.16
636.196	63.48
636.387	62.71
636.577	62.89
636.767	62.86
636.958	62.89
637.148	63.68
637.338	63.72
637.529	63.35
637.719	64.37
637.909	64.6
638.099	64.48
638.29	64.43
638.48	65.33
638.67	65.82
638.86	66.7
639.05	67.16
639.241	67.47
639.431	68.24
639.621	69.13
639.811	69
640.001	68.83
640.191	69.4
640.381	69.96
640.571	70.16
640.761	70.02
640.951	70.2
641.141	70.58
641.331	69.89
641.521	68.35
641.711	68.25
641.901	68.71
642.091	69.13
642.281	69.21
642.471	68.84
642.661	68.44
642.851	68.83
643.041	68.22
643.231	67.71
643.42	68.38
643.61	69.43
643.8	69.32
643.99	69.33
644.18	69.98
644.369	70.06
644.559	70.02
644.749	70.11
644.939	70.32
645.128	69.51
645.318	68.89
645.508	68.11
645.697	67.88
645.887	68.1
646.076	67.82
646.266	67.71
646.456	67.79
646.645	68.52
646.835	69.29
647.024	68.72
647.214	69.62
647.403	70.15
647.593	70.67
647.782	70.08
647.972	69.97
648.161	70.45
648.351	70.37
648.54	69.72
648.73	69.33
648.919	68.53
649.108	68.43
649.298	68.08
649.487	68.38
649.677	68.51
649.866	68.88
650.055	69.08
650.244	69.04
650.434	68.53
650.623	69.15
650.812	69.38
651.002	69.06
651.191	69.04
651.38	69.53
651.569	69.47
651.758	69.22
651.947	68.79
652.137	68.66
652.326	68.21
652.515	68.38
652.704	68.83
652.893	68.4
653.082	67.87
653.271	68.61
653.46	67.86
653.649	68.25
653.838	67.99
654.027	68.74
654.216	68.86
654.405	68.47
654.594	68.42
654.783	67.82
654.972	68.25
655.161	69.01
655.35	68.42
655.539	69.2
655.728	68.92
655.916	69.29
656.105	68.88
656.294	69.4
656.483	69.72
656.672	69.67
656.86	69.37
657.049	68.57
657.238	68.42
657.427	68.41
657.615	67.6
657.804	67.24
657.993	66.64
658.181	66.94
658.37	65.95
658.559	65.33
658.747	64.94
658.936	65.3
659.125	65.47
659.313	65.58
659.502	65.53
659.69	65.94
659.879	66.1
660.067	66.62
660.256	66.45
660.444	66.59
660.633	67.46
660.821	67.94
661.01	67.68
661.198	68.66
661.387	69.13
661.575	69.33
661.763	69.24
661.952	69.38
662.14	70.43
662.328	70.94
662.517	71.97
662.705	72.46
662.893	71.77
663.082	71.93
663.27	72.31
663.458	71.93
663.646	72.35
663.834	73.11
664.023	72.88
664.211	72.18
664.399	72.54
664.587	72.05
664.775	71.97
664.963	72.6
665.152	72.85
665.34	71.93
665.528	71.64
665.716	70.25
665.904	70.53
666.092	70.75
666.28	70.7
666.468	70.11
666.656	70.2
666.844	70.47
667.032	70.56
667.22	70.38
667.408	70.37
667.596	71.07
667.784	71.86
667.971	71.63
668.159	71.5
668.347	71.26
668.535	71.24
668.723	71.2
668.911	70.96
669.098	71.92
669.286	72.39
669.474	72.55
669.662	72.34
669.849	73.27
670.037	73.34
670.225	73.68
670.413	73.7
670.6	74.48
670.788	74.68
670.976	73.95
671.163	74.23
671.351	73.64
671.538	73.66
671.726	73.29
671.913	73.04
672.101	72.06
672.289	72.48
672.476	73.26
672.664	72.85
672.851	72.65
673.039	73.32
673.226	73.44
673.413	73.96
673.601	74.22
673.788	74.98
673.976	74.11
674.163	74.76
674.35	74.39
674.538	74
674.725	74.11
674.912	74.72
675.1	75.68
675.287	75.85
675.474	76
675.662	75.88
675.849	75.51
676.036	75.46
676.223	75.9
676.411	76.25
676.598	75.14
676.785	75.25
676.972	74.68
677.159	74.34
677.346	73.12
677.533	72.93
677.721	72.34
677.908	73.05
678.095	73.25
678.282	72.81
678.469	72.65
678.656	73.21
678.843	72.11
679.03	71.97
679.217	71.58
679.404	71.45
679.591	71.61
679.778	72.03
679.964	71.82
680.151	70.95
680.338	71.27
680.525	71.08
680.712	71.28
680.899	71.72
681.086	71.76
681.272	71.59
681.459	72.22
681.646	72.26
681.833	72.25
682.02	71.81
682.206	72.95
682.393	72.64
682.58	72.43
682.766	72.37
682.953	73.55
683.14	73.86
683.326	74.92
683.513	75.42
683.7	74.71
683.886	75.37
684.073	76.08
684.259	75.83
684.446	77.27
684.632	77.27
684.819	78.07
685.005	76.36
685.192	76.72
685.378	75.98
685.565	75.26
685.751	75.22
685.938	74.48
686.124	74.5
686.31	74.1
686.497	72.78
686.683	72.77
686.87	72.49
687.056	73.93
687.242	73.8
687.429	75.16
687.615	75.22
687.801	76.43
687.987	76.61
688.174	76.35
688.36	77.69
688.546	76.66
688.732	77.23
688.918	77.82
689.105	77.39
689.291	77.83
689.477	76.77
689.663	77.66
689.849	77.9
690.035	78.64
690.221	79.1
690.407	79.43
690.593	80.89
690.779	80.74
690.965	80.79
691.151	81.49
691.337	80.99
691.523	81.34
691.709	81.43
691.895	80.68
692.081	80.06
692.267	79.91
692.453	79.36
692.639	79.55
692.825	81.26
693.011	80.54
693.196	80.85
693.382	81.59
693.568	81.1
693.754	79.85
693.94	80.21
694.125	80.22
694.311	81.16
694.497	81.16
694.682	80.66
694.868	79.79
695.054	80.37
695.239	79.65
695.425	78.6
695.611	78.88
695.796	79.17
695.982	78.02
696.168	77.15
696.353	75.37
696.539	74.94
696.724	75.24
696.91	74.98
697.095	74.41
697.281	73.61
697.466	73.08
697.652	71.98
697.837	71.05
698.023	71.75
698.208	71.81
698.393	71.79
698.579	71.88
698.764	71.42
698.949	70.11
699.135	70.69
699.32	70.92
699.505	70.86
699.691	71.12
699.876	70.94
700.061	70.68
700.246	71.44
700.432	71.01
700.617	72.52
700.802	72.51
700.987	74.65
701.172	73.35
701.358	73.71
701.543	75.94
701.728	76.41
701.913	79.06
702.098	80.68
702.283	81.84
702.468	83.65
702.653	81.84
702.838	83.52
703.023	83.81
703.208	83.97
703.393	85.68
703.578	85.83
703.763	87.3
703.948	87.16
704.133	86.32
704.318	85.6
704.503	84.76
704.688	86.13
704.873	85.22
705.057	84.52
705.242	86.87
705.427	84.86
705.612	83.89
705.797	83.93
705.981	83.28
706.166	83.17
706.351	83.33
706.536	84.09
706.72	83.34
706.905	83.96
707.09	83.87
707.274	83.32
707.459	83.38
707.644	83.78
707.828	83.73
708.013	83.58
708.197	83.42
708.382	83.11
708.567	82.7
708.751	81.57
708.936	80.66
709.12	80.75
709.305	81.02
709.489	81.5
709.673	81.13
709.858	81.75
710.042	81.19
710.227	81.12
710.411	80.98
710.596	81.31
710.78	82.9
710.964	83.93
711.149	83.97
711.333	82.73
711.517	82.72
711.702	82.44
711.886	81.39
712.07	82.03
712.254	82.59
712.438	82.16
712.623	82.22
712.807	79.93
712.991	79.34
713.175	79.85
713.359	81.17
713.544	80.85
713.728	81.23
713.912	80.58
714.096	81.66
714.28	81.81
714.464	82.91
714.648	82.69
714.832	84.26
715.016	85.01
715.2	85.75
715.384	85.23
715.568	85.82
715.752	85.89
715.936	87.09
716.12	86.94
716.304	88.32
716.488	87.55
716.671	87.46
716.855	87.98
717.039	87.57
717.223	86.91
717.407	88.64
717.59	89
717.774	89.46
717.958	88.24
718.142	88.01
718.325	87.85
718.509	88.29
718.693	88.92
718.877	87.26
719.06	88.51
719.244	88.06
719.428	86.83
719.611	87.23
719.795	87.7
719.978	88.52
720.162	88.99
720.345	89.47
720.529	89.05
720.713	91.31
720.896	93.6
721.08	90.56
721.263	92.02
721.446	90.71
721.63	91.93
721.813	92.31
721.997	91.67
722.18	90.51
722.364	90.43
722.547	93.89
722.73	92.77
722.914	92.51
723.097	95.48
723.28	94.83
723.464	95.38
723.647	94.87
723.83	94.57
724.013	96.17
724.197	97.67
724.38	94.43
724.563	90.61
724.746	90.65
724.929	90.73
725.112	92.47
725.296	91.27
725.479	91.89
725.662	91.33
725.845	91.74
726.028	90.97
726.211	91.34
726.394	93.45
726.577	95.25
726.76	94.71
726.943	95.31
727.126	90.77
727.309	91.22
727.492	91.28
727.675	90.48
727.858	88.33
728.041	88.38
728.224	88.15
728.407	88.05
728.589	87.65
728.772	85.76
728.955	85.23
729.138	85.12
729.321	84.24
729.503	85
729.686	85.25
729.869	86.96
730.052	86.47
730.234	87.27
730.417	87.3
730.6	86.91
730.782	89.73
730.965	89.91
731.148	92.92
731.33	92.97
731.513	92.57
731.695	89.93
731.878	90.96
732.061	91.95
732.243	91.01
732.426	91.23
732.608	90.79
732.791	89.97
732.973	90.1
733.156	88.69
733.338	89.3
733.52	89.29
733.703	92.02
733.885	90.86
734.068	90.09
734.25	89.86
734.432	88.35
734.615	88.93
734.797	89.97
734.979	88.44
735.162	88.1
735.344	89.91
735.526	89.83
735.708	91.05
735.891	92.26
736.073	93.37
736.255	94.27
736.437	94.36
736.619	94.59
736.802	93.13
736.984	94.53
737.166	97.21
737.348	95.84
737.53	97.8
737.712	96.22
737.894	94.06
738.076	94.19
738.258	93.07
738.44	91.94
738.622	92.35
738.804	93.62
738.986	94.26
739.168	92.42
739.35	93.62
739.532	93.69
739.714	97.2
739.896	98.21
740.078	98.76
740.259	100.33
740.441	102.51
740.623	102.12
740.805	101.19
740.987	99.38
741.168	100.97
741.35	100.72
741.532	98.92
741.714	95.77
741.895	96.23
742.077	96.62
742.259	98.58
742.44	100.09
742.622	98.25
742.804	100.79
742.985	102.37
743.167	102.24
743.348	104.87
743.53	106.34
743.711	105.38
743.893	107.35
744.075	105.61
744.256	103.8
744.438	104.85
744.619	108.03
744.8	104.37
744.982	105.86
745.163	105.86
745.345	100.95
745.526	100.49
745.707	102.21
745.889	101.51
746.07	101.97
746.252	100.35
746.433	96.73
746.614	98.21
746.795	99.71
746.977	98.61
747.158	98.66
747.339	100.81
747.52	100.46
747.702	100.52
747.883	100.27
748.064	102.79
748.245	102.8
748.426	106.18
748.607	103.52
748.788	103
748.97	105.7
749.151	106.42
749.332	106.89
749.513	107.23
749.694	106.01
749.875	106.84
750.056	106.42
750.237	109.48
750.418	112.09
750.599	113.78
750.78	113.94
750.96	112.92
751.141	113.63
751.322	115.58
751.503	116.89
751.684	120.1
751.865	118.41
752.046	117.82
752.226	114.57
752.407	109
752.588	110.49
752.769	113.39
752.949	111.68
753.13	111.09
753.311	106.18
753.492	105.4
753.672	104.28
753.853	105.17
754.034	104.1
754.214	107.7
754.395	108.16
754.575	109.68
754.756	110.35
754.937	111.11
755.117	107.97
755.298	111.22
755.478	111.98
755.659	110.03
755.839	110.42
756.02	110.55
756.2	109.59
756.381	110.81
756.561	109.52
756.741	105.73
756.922	105.99
757.102	109.4
757.283	108.91
757.463	109.13
757.643	111.21
757.823	110.4
758.004	112.99
758.184	110.95
758.364	110.21
758.545	109.93
758.725	111.74
758.905	110.06
759.085	107.72
759.265	109.21
759.446	107.17
759.626	106.78
759.806	107.54
759.986	105.58
760.166	108.98
760.346	107.09
760.526	105.14
760.706	105.06
760.886	103.48
761.066	105.69
761.246	103.33
761.426	101.6
761.606	97.2
761.786	95.59
761.966	95.03
762.146	91.29
762.326	91.63
762.506	92.15
762.686	89.97
762.866	89.27
763.046	85.31
763.225	85.37
763.405	84.53
763.585	86.45
763.765	85.18
763.945	85.51
764.124	86.11
764.304	88.2
764.484	87.37
764.664	89.75
764.843	92.75
765.023	97.44
765.203	97.08
765.382	101.09
765.562	103.08
765.741	104.52
765.921	106.99
766.101	107.87
766.28	106.6
766.46	108.82
766.639	106.79
766.819	106.33
766.998	105.32
767.178	104.75
767.357	104.55
767.537	105.45
767.716	108.88
767.896	107.88
768.075	106.91
768.254	107.07
768.434	107.51
768.613	109.92
768.792	110.72
768.972	112.38
769.151	117.49
769.33	118.51
769.51	117.08
769.689	116.82
769.868	121.91
770.047	124.06
770.226	125.07
770.406	126.4
770.585	131.84
770.764	132.3
770.943	130.91
771.122	131.86
771.301	132.11
771.48	136.07
771.66	137.93
771.839	133.39
772.018	137.72
772.197	135.63
772.376	131.3
772.555	127.59
772.734	132.37
772.913	133.76
773.092	128.21
773.271	125.47
773.449	127.82
773.628	124.17
773.807	122.05
773.986	121.23
774.165	124.69
774.344	129.38
774.523	128.29
774.701	125.37
774.88	130.19
775.059	134.96
775.238	140.83
775.417	137.55
775.595	142.48
775.774	148.53
775.953	145.73
776.131	142.29
776.31	140.69
776.489	145.45
776.667	143.61
776.846	138.39
777.025	139.44
777.203	134.94
777.382	129.82
777.56	129.24
777.739	123.51
777.917	124.46
778.096	129.45
778.274	131.7
778.453	128.5
778.631	129.49
778.81	128.38
778.988	128.03
779.166	130.34
779.345	131.66
779.523	128.88
779.702	128.82
779.88	130.72
780.058	127.26
780.237	125.04
780.415	124.17
780.593	126.04
780.771	130.84
780.95	131.21
781.128	135.68
781.306	140.02
781.484	142.72
781.662	157.5
781.841	152.06
782.019	151.67
782.197	152.76
782.375	150.43
782.553	148.21
782.731	148.16
782.909	145.74
783.087	142.7
783.265	143.13
783.443	146.99
783.621	136.27
783.799	144.35
783.977	149.52
784.155	151.89
784.333	158.78
784.511	157.19
784.689	158.43
784.867	158.33
785.045	157.44
785.223	158.72
785.4	152.2
785.578	150.25
785.756	144.87
785.934	139.96
786.112	141.95
786.289	139.04
786.467	135.53
786.645	130.95
786.823	130.01
787	128.65
787.178	127.13
787.356	123.75
787.533	130.9
787.711	129.28
787.889	132.3
788.066	127.61
788.244	129.65
788.421	133.05
788.599	131.47
788.776	131.63
788.954	131.32
789.131	125.07
789.309	131.04
789.486	125.52
789.664	128.61
789.841	126.94
790.019	127.59
790.196	133.42
790.373	138.28
790.551	145.61
790.728	146.19
790.906	145.11
791.083	152.81
791.26	154.78
791.437	154.32
791.615	159.11
791.792	161.79
791.969	160.65
792.146	147.62
792.324	141.21
792.501	139.33
792.678	142.6
792.855	140.34
793.032	141.86
793.209	142.28
793.387	140.67
793.564	135.15
793.741	137.36
793.918	140.08
794.095	142.48
794.272	146.79
794.449	141.92
794.626	142.78
794.803	145.02
794.98	144.8
795.157	139.24
795.334	143.66
795.511	142.44
795.688	137.79
795.864	134.28
796.041	134.51
796.218	137.45
796.395	136.51
796.572	134.09
796.749	138.25
796.925	141.23
797.102	146.73
797.279	146.39
797.456	153.18
797.632	155.23
797.809	163.32
797.986	168
798.162	165.06
798.339	167.54
798.516	174.98
798.692	175.49
798.869	166.91
799.046	164.58
799.222	160.21
799.399	160.55
799.575	166.41
799.752	165.46
799.928	160.32
800.105	160.59
800.281	170.86
800.458	161.01
800.634	160.34
800.811	173.17
800.987	184.36
801.163	196.08
801.34	196.31
801.516	193.3
801.692	211.86
801.869	216.5
802.045	234.3
802.221	219.79
802.398	223.96
802.574	220.15
802.75	206.6
802.926	196.41
803.103	189.61
803.279	187.11
803.455	181.78
803.631	173.34
803.807	170.6
803.983	162.4
804.16	168.25
804.336	171.52
804.512	171.8
804.688	171.67
804.864	173.39
805.04	181.41
805.216	188.45
805.392	195.52
805.568	199.71
805.744	198.47
805.92	203.15
806.096	200
806.272	205.03
806.448	212.46
806.623	222.04
806.799	217.9
806.975	212.2
807.151	207.02
807.327	212.12
807.503	199.56
807.678	218.72
807.854	212.95
808.03	217.28
808.206	208.92
808.381	192.01
808.557	181.78
808.733	179.59
808.908	184.89
809.084	185.49
809.26	178.41
809.435	185.09
809.611	175.06
809.787	173.33
809.962	175.13
810.138	175.4
810.313	178.6
810.489	186.73
810.664	190.08
810.84	192.02
811.015	194.73
811.191	200.2
811.366	194.72
811.542	189.09
811.717	187.27
811.892	180.08
812.068	185.34
812.243	189.27
812.419	182.02
812.594	186.94
812.769	181.43
812.944	175.33
813.12	173.81
813.295	179.2
813.47	180.85
813.645	190.02
813.821	189.98
813.996	184.5
814.171	192.11
814.346	191.91
814.521	185
814.697	192.61
814.872	188.55
815.047	193.53
815.222	194.56
815.397	195.4
815.572	189.97
815.747	187.3
815.922	192.4
816.097	191
816.272	191.81
816.447	187.14
816.622	182.51
816.797	184.9
816.972	176.05
817.147	172.68
817.322	172.2
817.496	175.56
817.671	168.83
817.846	165.44
818.021	159.05
818.196	148.69
818.371	145.67
818.545	139.15
818.72	139.61
818.895	139.64
819.069	135.96
819.244	129.51
819.419	119.43
819.594	124.35
819.768	123.81
819.943	117.38
820.117	112.74
820.292	106.74
820.467	99.25
820.641	92.08
820.816	87.97
820.99	83.8
821.165	79.76
821.339	78.46
821.514	76.18
821.688	72.22
821.863	70.87
822.037	69.59
822.212	68.52
822.386	67.86
822.56	67.74
822.735	67.64
822.909	67.08
823.084	67.84
823.258	67.57
823.432	67.7
823.606	68.82
823.781	70.05
823.955	71.72
824.129	74.43
824.303	78.3
824.478	81.69
824.652	81.75
824.826	83.79
825	86
825.174	90.23
825.348	90.76
825.523	93.48
825.697	93.8
825.871	95.54
826.045	94.73
826.219	95.12
826.393	96.86
826.567	99.02
826.741	101.96
826.915	101.11
827.089	100.68
827.263	99.22
827.437	97.82
827.611	97.88
827.784	100.17
827.958	103.25
828.132	103.98
828.306	105.13
828.48	106.25
828.654	105.42
828.827	107.18
829.001	109.76
829.175	115.25
829.349	120.51
829.522	130.76
829.696	135.68
829.87	137.15
830.044	138.89
830.217	140.89
830.391	146.36
830.565	153.64
830.738	153.08
830.912	153.47
831.085	160.07
831.259	169.52
831.432	160.33
831.606	156.37
831.779	152.83
831.953	151.08
832.126	141.46
832.3	136.52
832.473	128.85
832.647	130.85
832.82	127.12
832.994	118.07
833.167	113.81
833.34	111.85
833.514	105.21
833.687	106.93
833.86	108.39
834.034	110.16
834.207	113.62
834.38	114.11
834.553	116.09
834.727	115.14
834.9	120.87
835.073	125.41
835.246	130.72
835.419	140.22
835.593	139.59
835.766	139.57
835.939	145.49
836.112	142.54
836.285	150.88
836.458	166.38
836.631	178.24
836.804	181.4
836.977	178.09
837.15	186.47
837.323	198.11
837.496	203.9
837.669	203.06
837.842	197.37
838.015	215.15
838.188	214.9
838.361	206.21
838.533	201.64
838.706	207.57
838.879	209.44
839.052	204.08
839.225	200.41
839.398	201.11
839.57	199.3
839.743	205.99
839.916	196.59
840.088	206.79
840.261	212.85
840.434	207.4
840.607	219.01
840.779	218.61
840.952	210.68
841.124	236.57
841.297	271.54
841.47	299.26
841.642	307.86
841.815	316.52
841.987	316.63
842.16	289.81
842.332	354.75
842.505	355.07
842.677	330.98
842.85	306.97
843.022	286.86
843.194	270.29
843.367	315.09
843.539	301.25
843.712	299.17
843.884	297.88
844.056	330.22
844.229	312.74
844.401	291.17
844.573	334.44
844.745	432.07
844.918	437.54
845.09	387.23
845.262	349.77
845.434	381.53
845.606	410.51
845.779	502.2
845.951	504.28
846.123	635.87
846.295	614.79
846.467	486.35
846.639	526.99
846.811	517.7
846.983	537.81
847.155	486.1
847.327	536.91
847.499	547.57
847.671	529.46
847.843	506.02
848.015	427.36
848.187	534.85
848.359	552.2
848.531	456.55
848.703	386.07
848.875	468.66
849.047	422.36
849.218	412.12
849.39	398.52
849.562	336.75
849.734	348.83
849.905	404.74
850.077	370.46
850.249	388.59
850.421	406.07
850.592	419.16
850.764	404.89
850.936	432.85
851.107	443.38
851.279	448.35
851.451	588.03
851.622	517.54
851.794	470.07
851.965	485.29
852.137	489.14
852.308	480.46
852.48	552.2
852.651	452.57
852.823	465.3
852.994	464.32
853.166	455.48
853.337	444.75
853.509	501.66
853.68	557.26
853.851	473.61
854.023	429.18
854.194	391.92
854.365	377.78
854.537	433.78
854.708	417.08
854.879	429.22
855.05	442.75
855.222	368.97
855.393	350.48
855.564	314.91
855.735	327.9
855.906	371.28
856.078	502.97
856.249	485.61
856.42	458.94
856.591	458.54
856.762	471.73
856.933	431.35
857.104	510.16
857.275	509.93
857.446	567.01
857.617	514.38
857.788	477.36
857.959	374.71
858.13	384.41
858.301	372.91
858.472	373.76
858.643	344.22
858.814	357.8
858.985	394.77
859.155	462.58
859.326	512.31
859.497	881.67
859.668	1638.36
859.839	1692.82
860.009	1828.11
860.18	9063.89
860.351	-10340.63
860.522	9185.71
860.692	-17089.47
860.863	5266.13
861.034	2044.97
861.204	1341.6
861.375	655.41
861.546	488.38
861.716	507.92
861.887	450.24
862.057	445.24
862.228	427
862.398	511.5
862.569	438.56
862.739	441.01
862.91	429.93
863.08	438.45
863.251	500.27
863.421	602.86
863.592	825.35
863.762	1727.45
863.932	1103.8
864.103	947.66
864.273	846.4
864.443	1031.51
864.614	1338.81
864.784	734.74
864.954	615.77
865.125	511.08
865.295	497.63
865.465	388.17
865.635	357.38
865.805	368.48
865.976	382.93
866.146	415.3
866.316	404.55
866.486	357.69
866.656	446.09
866.826	462.15
866.996	462.98
867.166	375.59
867.336	428.79
867.506	366.07
867.676	377.5
867.846	401.21
868.016	372.26
868.186	356.31
868.356	358.72
868.526	326.42
868.696	372.27
868.866	384.57
869.036	500
869.206	480.62
869.376	561.31
869.545	487.4
869.715	486.31
869.885	459.55
870.055	429.52
870.224	441.92
870.394	488.54
870.564	442.46
870.734	494.26
870.903	465.79
871.073	474.37
871.243	417.3
871.412	503.2
871.582	477.82
871.751	521.25
871.921	659.33
872.091	669.71
872.26	633.38
872.43	643.08
872.599	559.75
872.769	493.87
872.938	569.32
873.108	680.59
873.277	631.87
873.446	598.38
873.616	557.83
873.785	516.41
873.955	549.51
874.124	395.65
874.293	407.56
874.463	417.43
874.632	363.25
874.801	360.84
874.971	427.5
875.14	428.94
875.309	391.86
875.478	421.2
875.647	409.64
875.817	354.66
875.986	465.66
876.155	409.47
876.324	453.08
876.493	595.89
876.662	422.69
876.831	328.31
877	340.48
877.17	393.07
877.339	411.44
877.508	442.64
877.677	449.04
877.846	397.84
878.015	486.53
878.184	500.63
878.352	451.54
878.521	489.73
878.69	514.54
878.859	475.97
879.028	422.46
879.197	408.62
879.366	468.14
879.534	451.24
879.703	399.07
879.872	341.44
880.041	271.88
880.21	251.01
880.378	243.38
880.547	228.75
880.716	198.77
880.884	189.95
881.053	172.02
881.222	150.17
881.39	140.59
881.559	133.83
881.727	128.28
881.896	123.93
882.065	116.26
882.233	113.63
882.402	110.48
882.57	110.55
882.739	106.27
882.907	107.01
883.076	104.15
883.244	104.15
883.412	109.14
883.581	115.1
883.749	120.57
883.918	125.99
884.086	136.97
884.254	146.18
884.423	146.39
884.591	159.99
884.759	162.63
884.927	171.69
885.096	181.35
885.264	198.35
885.432	202.3
885.6	209.69
885.769	246.94
885.937	247.33
886.105	259.93
886.273	288.84
886.441	312.28
886.609	359.37
886.777	374.39
886.945	410.12
887.113	454.22
887.281	528.48
887.449	515.23
887.617	438.73
887.785	446.06
887.953	464.92
888.121	581.12
888.289	513.71
888.457	456.8
888.625	473.36
888.793	566.56
888.961	504.59
889.129	487.42
889.296	479.82
889.464	488.74
889.632	516.88
889.8	491.85
889.967	428.74
890.135	431.51
