Data from JASIL_3202_Reflection_02.txt Node
Date: Fri Nov 13 14:27:37 EST 2015
User: Geneva
Spectrometer: USB4E03002
Autoset integration time: false
Trigger mode: 4
Integration Time (sec): 1.000000E-1
Scans to average: 10
Electric dark correction enabled: false
Nonlinearity correction enabled: false
Boxcar width: 5
Stray light correction enabled: false
XAxis mode: Wavelengths
Stop averaging: false
Number of Pixels in Spectrum: 3648
>>>>>Begin Spectral Data<<<<<
177.575	84.26
177.794	86.03
178.014	89.11
178.233	84.29
178.452	86.59
178.672	88.35
178.891	100.04
179.11	103.43
179.33	111.28
179.549	103.33
179.768	97.86
179.987	96.97
180.207	95.04
180.426	97.15
180.645	98.72
180.864	102.07
181.084	98.89
181.303	91.61
181.522	95.88
181.741	91.18
181.96	91.91
182.179	92.16
182.398	94.26
182.618	97.87
182.837	97.79
183.056	104.4
183.275	98.28
183.494	100.77
183.713	99.73
183.932	96.51
184.151	95.78
184.37	99.31
184.589	103.83
184.808	106.18
185.027	107.53
185.246	102.76
185.465	97.26
185.684	102.26
185.903	101.67
186.122	100.17
186.341	95.12
186.56	95.7
186.779	90.27
186.998	87.61
187.216	89.08
187.435	85.57
187.654	85.17
187.873	85.27
188.092	80.21
188.311	78.9
188.53	80.07
188.748	79.63
188.967	80.18
189.186	82.89
189.405	84.01
189.623	85.95
189.842	84.72
190.061	86.18
190.28	87.35
190.498	93.22
190.717	94.98
190.936	93.06
191.154	96.51
191.373	97.44
191.592	103.7
191.81	102.97
192.029	94.37
192.248	94.9
192.466	97.25
192.685	96.92
192.904	95.44
193.122	96.48
193.341	98.87
193.559	101.84
193.778	104.12
193.996	96.75
194.215	97.92
194.433	105.91
194.652	107.34
194.87	100.35
195.089	97.89
195.307	97.38
195.526	98.89
195.744	97.88
195.963	92.07
196.181	88.66
196.399	92.93
196.618	93.15
196.836	88.61
197.055	83.77
197.273	86.49
197.491	88.52
197.71	88.65
197.928	86.01
198.146	83.34
198.365	86.75
198.583	91.2
198.801	84.24
199.019	81.51
199.238	84.78
199.456	89.47
199.674	90.96
199.892	87.84
200.111	87.86
200.329	89.71
200.547	95.54
200.765	93.23
200.983	87.76
201.202	92.03
201.42	98.27
201.638	100.58
201.856	99.41
202.074	95.64
202.292	97.98
202.51	95.97
202.728	95
202.946	92.64
203.165	91.34
203.383	91.39
203.601	91.43
203.819	89
204.037	84.12
204.255	86.64
204.473	89.65
204.691	88.42
204.909	91.22
205.127	89.65
205.345	94.09
205.562	100.11
205.78	101.76
205.998	110.84
206.216	118.63
206.434	115.61
206.652	115.9
206.87	108.28
207.088	106.18
207.306	105.39
207.523	106.02
207.741	102.01
207.959	94.83
208.177	87.78
208.395	82.56
208.612	81.53
208.83	82.82
209.048	82.74
209.266	88.81
209.483	86.91
209.701	82.67
209.919	83.26
210.136	84.28
210.354	93.96
210.572	99.03
210.79	100.46
211.007	100.14
211.225	101.74
211.442	99.02
211.66	93.37
211.878	99.88
212.095	101.55
212.313	100.71
212.53	97.54
212.748	95.44
212.966	98.37
213.183	96.29
213.401	93.9
213.618	95.61
213.836	99.8
214.053	103.7
214.271	101.73
214.488	107.34
214.705	106.2
214.923	106.37
215.14	107.42
215.358	104.12
215.575	107.08
215.793	112.06
216.01	115.56
216.227	108.16
216.445	99.44
216.662	104.29
216.879	98.87
217.097	99.32
217.314	104.17
217.531	103.89
217.749	101.87
217.966	103.03
218.183	102.63
218.4	100.52
218.618	97.65
218.835	101.91
219.052	98.24
219.269	104.99
219.487	104.55
219.704	104.24
219.921	101.58
220.138	102.66
220.355	95.5
220.572	91.18
220.79	88.53
221.007	86.33
221.224	90.6
221.441	85.89
221.658	80.49
221.875	80.51
222.092	78.19
222.309	79.04
222.526	85.31
222.743	90.17
222.96	90.11
223.177	88.92
223.394	91.19
223.611	86
223.828	91.58
224.045	93.28
224.262	91.45
224.479	91.76
224.696	89.9
224.913	84.55
225.13	84.27
225.347	83.2
225.564	79.86
225.781	78.84
225.997	77.4
226.214	76.97
226.431	76.07
226.648	71.11
226.865	69.47
227.082	69.3
227.298	67.73
227.515	64.15
227.732	61.67
227.949	62.44
228.165	62.1
228.382	63.02
228.599	59.71
228.816	58.67
229.032	57.01
229.249	54.75
229.466	54.04
229.682	52.96
229.899	54.32
230.116	55.62
230.332	54.57
230.549	56.24
230.765	57.76
230.982	59.5
231.199	59.84
231.415	66.18
231.632	68.17
231.848	70.37
232.065	74.05
232.281	73.97
232.498	72.21
232.714	69.76
232.931	67.9
233.147	67.12
233.364	67.31
233.58	69.14
233.797	64.63
234.013	67.22
234.23	68.71
234.446	63.32
234.662	65.63
234.879	68.86
235.095	74.29
235.312	76.49
235.528	75.28
235.744	79.26
235.961	78.48
236.177	81.17
236.393	81.38
236.61	80.02
236.826	82.17
237.042	82.5
237.258	82.52
237.475	81.51
237.691	76.57
237.907	78.15
238.123	74.27
238.339	73.66
238.556	77.52
238.772	72.77
238.988	70.26
239.204	70.39
239.42	68.58
239.636	64.76
239.853	62.73
240.069	64.22
240.285	62.11
240.501	60.08
240.717	59.63
240.933	55.88
241.149	53.24
241.365	49.55
241.581	49.5
241.797	49.32
242.013	49.59
242.229	52.27
242.445	54.26
242.661	55.31
242.877	55.7
243.093	57.12
243.309	56.58
243.525	58.41
243.741	59.93
243.957	59.5
244.173	57.84
244.388	56.76
244.604	51.5
244.82	50.44
245.036	44.98
245.252	43.52
245.468	39.26
245.683	37.89
245.899	35.87
246.115	35.36
246.331	32.63
246.547	30.59
246.762	31.58
246.978	32.6
247.194	32.81
247.409	34.48
247.625	34.9
247.841	34.06
248.057	35.82
248.272	36.76
248.488	39.68
248.703	42.77
248.919	46.9
249.135	45.53
249.35	47.28
249.566	46
249.782	47.77
249.997	49.29
250.213	53
250.428	53.37
250.644	54.98
250.859	53.33
251.075	51.18
251.29	50.16
251.506	50.63
251.721	50.12
251.937	50.57
252.152	50.7
252.368	50.45
252.583	49.54
252.798	50.59
253.014	50.47
253.229	50.41
253.445	52.18
253.66	51.32
253.875	52.89
254.091	54.51
254.306	55.15
254.521	54.96
254.737	54.87
254.952	53.89
255.167	54.81
255.383	55.63
255.598	58.56
255.813	61.55
256.028	62.95
256.244	62.65
256.459	60.48
256.674	61.79
256.889	58.23
257.104	55.46
257.32	54.79
257.535	49.59
257.75	44.94
257.965	42.26
258.18	38.16
258.395	37.4
258.61	34.26
258.826	33.51
259.041	30.74
259.256	29.81
259.471	31.07
259.686	31.41
259.901	33.16
260.116	34.97
260.331	34.38
260.546	36.97
260.761	37.35
260.976	40.99
261.191	42.51
261.406	43.63
261.621	46.31
261.836	47.72
262.05	49.9
262.265	51.89
262.48	52.26
262.695	53.29
262.91	53.76
263.125	54.96
263.34	54.29
263.555	52.25
263.769	53.09
263.984	52.72
264.199	49.13
264.414	48.01
264.629	44.79
264.843	44.45
265.058	45.2
265.273	43.66
265.488	40.91
265.702	40.16
265.917	41.64
266.132	42.39
266.346	42.24
266.561	44.17
266.776	42.58
266.99	44.23
267.205	43.69
267.42	41.76
267.634	41.14
267.849	43.59
268.063	42.98
268.278	42.09
268.492	40.32
268.707	41.39
268.922	39.4
269.136	39.95
269.351	39.2
269.565	39.94
269.78	39.54
269.994	37.48
270.209	36.38
270.423	35.58
270.637	34.64
270.852	35.46
271.066	35.11
271.281	35.45
271.495	34.55
271.709	34.25
271.924	33.4
272.138	35.68
272.353	36.57
272.567	36.52
272.781	37.92
272.996	40.18
273.21	39.32
273.424	38.52
273.638	38.79
273.853	38.87
274.067	37.1
274.281	37.78
274.495	38.03
274.71	38.19
274.924	39.12
275.138	40.18
275.352	39.99
275.566	41.17
275.781	41.91
275.995	41.74
276.209	43.88
276.423	44.41
276.637	43.65
276.851	41.68
277.065	42.05
277.279	40.58
277.493	39.41
277.707	37.79
277.921	36.39
278.135	35.79
278.349	35.37
278.563	33.04
278.777	32.94
278.991	32.76
279.205	33.27
279.419	32.3
279.633	31.9
279.847	31.28
280.061	31.78
280.275	32.08
280.489	32.66
280.703	31.9
280.917	33.8
281.131	34.19
281.344	34.74
281.558	33.86
281.772	34.04
281.986	33.42
282.2	34.35
282.414	33.05
282.627	32.65
282.841	32.45
283.055	32.78
283.269	32.66
283.482	32.24
283.696	30.94
283.91	31.88
284.123	31.12
284.337	31.53
284.551	29.32
284.764	30.14
284.978	29.62
285.192	30.63
285.405	30.53
285.619	28.71
285.833	29.85
286.046	30.04
286.26	27.91
286.473	28.95
286.687	30.29
286.9	31.2
287.114	30.69
287.327	32.21
287.541	32.06
287.754	32.08
287.968	34.5
288.181	33.55
288.395	33.55
288.608	36.08
288.822	35.31
289.035	34.23
289.248	34.62
289.462	34.56
289.675	34.02
289.889	33.42
290.102	33.1
290.315	31.56
290.529	31.72
290.742	31.42
290.955	31.42
291.169	32.57
291.382	33.54
291.595	33.81
291.808	34.17
292.022	34.71
292.235	32.42
292.448	33.07
292.661	33.6
292.875	33.96
293.088	34.45
293.301	34.11
293.514	33.66
293.727	32.4
293.94	32.25
294.153	32.49
294.367	31.62
294.58	33.04
294.793	32.99
295.006	32.91
295.219	32.39
295.432	31.56
295.645	30.33
295.858	28.73
296.071	28.74
296.284	27.12
296.497	26.3
296.71	25.62
296.923	25.97
297.136	24.18
297.349	22.77
297.562	23.17
297.775	23.47
297.988	24.49
298.201	25.12
298.414	24.1
298.626	26.03
298.839	25.17
299.052	25.28
299.265	25.91
299.478	27.79
299.691	29.12
299.903	29.01
300.116	29.13
300.329	29.94
300.542	30.68
300.755	32.17
300.967	31.38
301.18	33.35
301.393	33.59
301.605	31.03
301.818	32.07
302.031	32.39
302.243	32.45
302.456	34.21
302.669	33.51
302.881	34.21
303.094	33.81
303.307	35.3
303.519	35.16
303.732	36.98
303.944	39.15
304.157	39.7
304.37	38.9
304.582	39.44
304.795	39.26
305.007	39.9
305.22	39.7
305.432	40.81
305.645	39.18
305.857	39.77
306.069	37.33
306.282	35.78
306.494	34.94
306.707	34.51
306.919	32.98
307.132	31.78
307.344	30.94
307.556	30.47
307.769	30.55
307.981	30.91
308.193	29.05
308.406	29.94
308.618	30.69
308.83	30.56
309.043	31.43
309.255	31.96
309.467	31.61
309.679	31.21
309.892	30.96
310.104	30.03
310.316	29.94
310.528	31.43
310.74	30.75
310.953	31.51
311.165	31.5
311.377	30.28
311.589	29.99
311.801	30.3
312.013	32.25
312.225	31.64
312.437	32.93
312.649	33.48
312.862	32.59
313.074	32.75
313.286	32.02
313.498	32.28
313.71	34.14
313.922	34.34
314.134	36
314.346	33.52
314.558	35.6
314.77	36.83
314.982	36.6
315.193	38.2
315.405	38.68
315.617	38.39
315.829	38.56
316.041	38.42
316.253	38.84
316.465	38.65
316.677	39.35
316.888	39.52
317.1	37.72
317.312	39.09
317.524	38.12
317.736	39.01
317.947	41.85
318.159	42.55
318.371	41.63
318.583	42.02
318.794	41.03
319.006	40.81
319.218	40.85
319.43	42.18
319.641	42.95
319.853	43.5
320.064	43.49
320.276	42.25
320.488	41.18
320.699	42.49
320.911	41.72
321.123	43.91
321.334	45.58
321.546	44.47
321.757	43.83
321.969	42.77
322.18	41.58
322.392	41.68
322.603	41.89
322.815	42.89
323.026	42.47
323.238	43.01
323.449	41.79
323.661	39.71
323.872	39.43
324.083	37.64
324.295	36.74
324.506	36.67
324.718	36.88
324.929	35.1
325.14	34.73
325.352	33
325.563	31.59
325.774	30.42
325.986	32.18
326.197	33.11
326.408	33.46
326.62	34.64
326.831	34.66
327.042	34.12
327.253	35.33
327.464	36.1
327.676	37.09
327.887	38.46
328.098	40.21
328.309	37.32
328.52	36.97
328.732	37.28
328.943	36.94
329.154	38.54
329.365	39.13
329.576	38.94
329.787	40.62
329.998	41.99
330.209	42.24
330.42	41.59
330.631	44.14
330.842	44.03
331.053	44.07
331.264	43.4
331.475	42.51
331.686	42.19
331.897	40.61
332.108	37.76
332.319	38.06
332.53	37.45
332.741	37.76
332.952	38.76
333.163	37.58
333.374	36.85
333.585	36.7
333.795	37.05
334.006	36.18
334.217	36.72
334.428	37.08
334.639	36.61
334.849	36.73
335.06	35.97
335.271	34.91
335.482	36.47
335.692	38.25
335.903	38.87
336.114	38.35
336.325	39.6
336.535	40.19
336.746	39.37
336.957	38.97
337.167	39.99
337.378	40.84
337.589	41.17
337.799	38.96
338.01	39.72
338.22	40.87
338.431	40.8
338.642	41.12
338.852	41.56
339.063	42.25
339.273	43.67
339.484	43.06
339.694	42.56
339.905	42.12
340.115	44.21
340.326	42.33
340.536	40.48
340.746	39.53
340.957	38.29
341.167	37.23
341.378	35.8
341.588	33.74
341.799	34.11
342.009	34.25
342.219	33.42
342.43	33.95
342.64	34.47
342.85	35.34
343.061	36.31
343.271	37.12
343.481	36.67
343.691	37.13
343.902	37.85
344.112	36.89
344.322	35.15
344.532	36.02
344.743	34.87
344.953	34.17
345.163	34.04
345.373	34.08
345.583	33.72
345.793	32.93
346.004	34.11
346.214	33.91
346.424	34.04
346.634	34.64
346.844	35.1
347.054	35.64
347.264	36.74
347.474	34.72
347.684	34.22
347.894	33.43
348.104	35.68
348.314	35.39
348.524	33
348.734	33.4
348.944	32.51
349.154	30.19
349.364	29.57
349.574	27.7
349.784	30.51
349.994	31.42
350.204	32.45
350.413	31.32
350.623	31.82
350.833	32.95
351.043	32.56
351.253	33.07
351.463	35.36
351.672	35.98
351.882	37.56
352.092	36.16
352.302	35.46
352.511	34.54
352.721	34.24
352.931	32.56
353.141	33.55
353.35	32.79
353.56	33.18
353.77	33.47
353.979	33.23
354.189	32.56
354.399	32.18
354.608	33.16
354.818	34.27
355.027	34.52
355.237	35.89
355.447	36.03
355.656	35.33
355.866	34.72
356.075	33.56
356.285	33.35
356.494	33.71
356.704	34.39
356.913	33.47
357.123	32.66
357.332	31.98
357.542	30.71
357.751	30.43
357.96	31.43
358.17	31.41
358.379	32
358.589	32.34
358.798	30.95
359.007	30
359.217	30.24
359.426	29.98
359.635	30.02
359.845	29.96
360.054	29.43
360.263	28.77
360.472	28.96
360.682	28.77
360.891	27.54
361.1	27.58
361.309	28.6
361.519	27.83
361.728	27.58
361.937	28.58
362.146	29.29
362.355	29.5
362.564	30.55
362.774	30.62
362.983	29.45
363.192	30.59
363.401	31.83
363.61	30.57
363.819	30.57
364.028	30.39
364.237	29.94
364.446	29.84
364.655	29.67
364.864	30.09
365.073	30.45
365.282	31.71
365.491	31.62
365.7	30.42
365.909	30.44
366.118	31.07
366.327	31.26
366.536	31.34
366.745	31.18
366.954	31.47
367.162	30.87
367.371	30.91
367.58	31.34
367.789	30.96
367.998	32.33
368.207	33.29
368.415	33.24
368.624	33.61
368.833	33.78
369.042	34.41
369.25	33.47
369.459	33.32
369.668	33.26
369.877	33.28
370.085	34.54
370.294	33.02
370.503	32.98
370.711	31.96
370.92	32.43
371.129	31.9
371.337	30.81
371.546	31.89
371.754	31.73
371.963	31.43
372.171	30.41
372.38	29.08
372.589	28.94
372.797	27.34
373.006	28.58
373.214	27.8
373.423	27.24
373.631	28.11
373.84	27.76
374.048	28.09
374.256	27.83
374.465	28.67
374.673	28.3
374.882	29.4
375.09	29.43
375.298	29.59
375.507	29.42
375.715	30.47
375.923	28.87
376.132	28.54
376.34	27.89
376.548	28.54
376.757	27.84
376.965	28.44
377.173	27.74
377.381	28.54
377.59	28.74
377.798	29.29
378.006	28.3
378.214	29.59
378.423	30.15
378.631	30.09
378.839	29.88
379.047	30.04
379.255	29.66
379.463	30.12
379.671	29.63
379.879	28.9
380.088	28.8
380.296	29.31
380.504	30.14
380.712	29.52
380.92	30.08
381.128	30.47
381.336	30.36
381.544	31.02
381.752	30.88
381.96	31.35
382.168	32.63
382.376	31.63
382.584	31.21
382.791	30.45
382.999	30.28
383.207	29.93
383.415	30.01
383.623	30.45
383.831	30.67
384.039	31.2
384.247	31.08
384.454	30.34
384.662	30.89
384.87	30.69
385.078	29.64
385.285	30.13
385.493	29.85
385.701	29.24
385.909	28.24
386.116	27.97
386.324	28.23
386.532	28.41
386.739	28.03
386.947	28.03
387.155	29.12
387.362	30.6
387.57	29.54
387.778	29.3
387.985	28.5
388.193	29.81
388.4	29.72
388.608	29.7
388.816	29.34
389.023	29.02
389.231	28.08
389.438	26.77
389.646	26.65
389.853	27.51
390.061	27.01
390.268	27.12
390.475	25.95
390.683	25.89
390.89	24.99
391.098	24.98
391.305	25.56
391.512	26.72
391.72	27.54
391.927	27.68
392.135	27.42
392.342	27.92
392.549	29.55
392.756	29.6
392.964	29.44
393.171	29.87
393.378	30.17
393.586	29.2
393.793	28.85
394	28.47
394.207	27.32
394.414	27.71
394.622	28.36
394.829	27.33
395.036	27.45
395.243	27.76
395.45	27.97
395.657	27.79
395.864	28.58
396.072	29.39
396.279	29.47
396.486	29.87
396.693	29.85
396.9	29.94
397.107	28.83
397.314	29.74
397.521	29.88
397.728	28.48
397.935	29.32
398.142	29.34
398.349	29.19
398.556	29.1
398.763	29.78
398.97	30.71
399.177	30.63
399.383	31.5
399.59	31.27
399.797	31.61
400.004	33.33
400.211	33.75
400.418	33.77
400.625	33.41
400.831	33.91
401.038	33.72
401.245	32.39
401.452	32.23
401.658	31.93
401.865	31.08
402.072	30.88
402.279	30.47
402.485	28.31
402.692	28.73
402.899	29.12
403.105	28.67
403.312	29.79
403.519	30.66
403.725	29.57
403.932	29.81
404.138	29.89
404.345	29.62
404.552	29.46
404.758	30.48
404.965	30.16
405.171	29.83
405.378	30.3
405.584	29.33
405.791	28.51
405.997	30.04
406.204	30.5
406.41	30.88
406.617	30.33
406.823	30.99
407.029	31.52
407.236	30.7
407.442	31.2
407.649	30.86
407.855	31.05
408.061	30.49
408.268	30.41
408.474	31.19
408.68	31.15
408.887	31.32
409.093	30.5
409.299	29.89
409.505	30.96
409.712	31.13
409.918	30.62
410.124	30.62
410.33	31.71
410.537	31.27
410.743	31.35
410.949	31.97
411.155	32.7
411.361	32.83
411.567	32.74
411.773	32.07
411.98	31.38
412.186	32.04
412.392	32.38
412.598	31.82
412.804	32.54
413.01	32.5
413.216	32.36
413.422	32.51
413.628	32.23
413.834	32.53
414.04	33.31
414.246	34.37
414.452	34.4
414.658	33.73
414.864	34.22
415.07	33.81
415.275	33.33
415.481	33.02
415.687	32.34
415.893	32.11
416.099	31.91
416.305	31.42
416.511	30.51
416.716	29.62
416.922	29.77
417.128	29.7
417.334	29.21
417.539	28.65
417.745	28.51
417.951	27.87
418.157	28.04
418.362	28.03
418.568	27.76
418.774	27.75
418.979	28.07
419.185	27.54
419.391	27.21
419.596	27.32
419.802	27.19
420.008	26.95
420.213	27.96
420.419	27.77
420.624	27.81
420.83	28.23
421.035	28.14
421.241	28.28
421.446	28.39
421.652	28.68
421.857	28.25
422.063	28.83
422.268	28.81
422.474	28.38
422.679	28.45
422.885	28.51
423.09	27.99
423.295	28.18
423.501	28.25
423.706	28.46
423.911	27.52
424.117	28.02
424.322	28.11
424.527	28.57
424.733	28.56
424.938	28.18
425.143	28.03
425.349	28.25
425.554	27.83
425.759	28.35
425.964	28.19
426.169	29.67
426.375	29.84
426.58	29.43
426.785	29.53
426.99	29.47
427.195	30.17
427.4	30.59
427.605	30.73
427.811	31.64
428.016	30.6
428.221	31.53
428.426	30.58
428.631	30.44
428.836	30.7
429.041	30.23
429.246	30.1
429.451	30.98
429.656	31.17
429.861	31.73
430.066	31.87
430.271	32.57
430.476	32.32
430.681	33.13
430.886	32.62
431.09	32.22
431.295	32.31
431.5	32.33
431.705	31.65
431.91	31.27
432.115	30.9
432.32	30.43
432.524	30.15
432.729	29.92
432.934	30.26
433.139	30.65
433.343	30.52
433.548	30.63
433.753	31
433.958	31.53
434.162	31.37
434.367	31.32
434.572	31.14
434.776	31.46
434.981	31.08
435.186	29.81
435.39	30.07
435.595	30.63
435.799	31.12
436.004	30.94
436.209	30.89
436.413	30.91
436.618	30.72
436.822	31.24
437.027	30.73
437.231	30.79
437.436	30.9
437.64	30.37
437.845	29.89
438.049	29.42
438.253	29.73
438.458	29.55
438.662	29.37
438.867	28.99
439.071	28.74
439.275	28.58
439.48	28.69
439.684	28.81
439.888	29.17
440.093	29.17
440.297	28.85
440.501	28.93
440.706	29.04
440.91	29.38
441.114	29.58
441.318	29.54
441.523	29.94
441.727	29.99
441.931	30.56
442.135	30.01
442.339	30.05
442.543	31.05
442.748	30.68
442.952	30.26
443.156	30.36
443.36	30.81
443.564	30.93
443.768	30.45
443.972	30.96
444.176	30.03
444.38	30.66
444.584	30.19
444.788	28.98
444.992	28.89
445.196	28.86
445.4	28.73
445.604	28.01
445.808	28.02
446.012	28.05
446.216	27.35
446.42	27.87
446.624	27.6
446.828	28.18
447.032	28.59
447.235	28.68
447.439	28.6
447.643	28.58
447.847	29.24
448.051	29.57
448.254	30.11
448.458	30.87
448.662	31.14
448.866	30.87
449.069	31.09
449.273	31.43
449.477	31.34
449.681	31.64
449.884	31.59
450.088	31.83
450.292	31.37
450.495	31.02
450.699	31.12
450.902	30.98
451.106	30.83
451.31	30.82
451.513	31.03
451.717	30.82
451.92	30.76
452.124	30.85
452.327	30.86
452.531	30.62
452.734	31.04
452.938	30.37
453.141	30.68
453.345	31.27
453.548	31
453.752	30.94
453.955	31.48
454.158	31.82
454.362	31.86
454.565	31.56
454.769	32.14
454.972	31.87
455.175	32.38
455.379	31.68
455.582	32.12
455.785	31.68
455.988	31.82
456.192	31.66
456.395	30.98
456.598	31.28
456.801	31.47
457.005	31.01
457.208	30.99
457.411	30.41
457.614	29.81
457.817	29.58
458.021	29.81
458.224	29.18
458.427	28.91
458.63	29.14
458.833	28.63
459.036	28
459.239	28.13
459.442	28.07
459.645	27.99
459.848	28.26
460.051	28.4
460.254	28.58
460.457	28.78
460.66	28.85
460.863	29.21
461.066	29.46
461.269	29.87
461.472	29.65
461.675	29.57
461.878	29.92
462.081	30.77
462.284	30.44
462.486	30.04
462.689	29.95
462.892	30.37
463.095	30.05
463.298	30.13
463.5	30.64
463.703	31.16
463.906	31.46
464.109	31.62
464.311	31.58
464.514	32.59
464.717	32.93
464.92	32.7
465.122	32.48
465.325	32.53
465.528	33.07
465.73	32.83
465.933	32.62
466.135	32.44
466.338	32.25
466.541	32.37
466.743	31.54
466.946	31.81
467.148	32.03
467.351	32.41
467.553	32.5
467.756	32.35
467.958	32.36
468.161	32.49
468.363	32.64
468.566	32.61
468.768	32.73
468.971	33.13
469.173	33.08
469.375	33.37
469.578	33.71
469.78	33.51
469.983	33.38
470.185	33.56
470.387	33.61
470.59	33.84
470.792	33.81
470.994	33.25
471.196	32.96
471.399	33.51
471.601	33.42
471.803	32.59
472.005	32.71
472.208	32.13
472.41	32.21
472.612	31.91
472.814	31.7
473.016	32.19
473.218	32.38
473.421	32.18
473.623	31.24
473.825	31.8
474.027	32.17
474.229	32.01
474.431	32.33
474.633	32.27
474.835	32.49
475.037	32.23
475.239	31.86
475.441	32.32
475.643	32.62
475.845	32.5
476.047	32.1
476.249	32.34
476.451	32.78
476.653	33.11
476.855	33.23
477.057	33.4
477.258	33.83
477.46	34.1
477.662	33.9
477.864	33.83
478.066	34.1
478.268	33.89
478.469	33.36
478.671	33.22
478.873	32.84
479.075	32.52
479.276	32.45
479.478	31.86
479.68	31.43
479.882	31.11
480.083	30.72
480.285	30.34
480.487	30.03
480.688	30.05
480.89	29.58
481.091	29.13
481.293	28.8
481.495	28.14
481.696	27.75
481.898	27.28
482.099	26.73
482.301	26.53
482.502	26.2
482.704	25.99
482.905	25.65
483.107	25.63
483.308	25.42
483.51	25.19
483.711	25.14
483.913	25.16
484.114	25.13
484.315	25.22
484.517	25.24
484.718	25.53
484.92	25.65
485.121	25.8
485.322	25.66
485.524	26
485.725	26.24
485.926	26.24
486.127	26.39
486.329	26.6
486.53	26.56
486.731	26.43
486.932	26.21
487.134	26.12
487.335	26.25
487.536	26.42
487.737	26.46
487.938	26.6
488.139	26.8
488.341	26.74
488.542	26.73
488.743	27.08
488.944	27.21
489.145	27.44
489.346	27.76
489.547	27.8
489.748	27.81
489.949	27.86
490.15	27.76
490.351	27.68
490.552	27.72
490.753	27.68
490.954	27.46
491.155	27.62
491.356	27.56
491.557	27.52
491.758	27.38
491.959	27.58
492.159	27.47
492.36	27.7
492.561	27.76
492.762	28.27
492.963	28.62
493.164	29.2
493.364	29.56
493.565	29.72
493.766	30.11
493.967	30.63
494.167	30.7
494.368	31.31
494.569	31.53
494.769	32.34
494.97	32.07
495.171	32.3
495.371	31.91
495.572	31.73
495.773	31.55
495.973	31.28
496.174	31.11
496.375	31.07
496.575	30.61
496.776	30.39
496.976	29.85
497.177	29.88
497.377	29.53
497.578	29.86
497.778	29.99
497.979	30.85
498.179	31.25
498.38	31.7
498.58	31.79
498.78	32.28
498.981	32.58
499.181	33.04
499.382	33.05
499.582	33.31
499.782	33.44
499.983	33.5
500.183	33.17
500.383	33.38
500.584	33.26
500.784	33.26
500.984	33.42
501.184	33.41
501.385	33.33
501.585	33.41
501.785	33.8
501.985	33.49
502.185	33.51
502.386	33.54
502.586	32.74
502.786	32.75
502.986	32.53
503.186	32.4
503.386	32.41
503.586	32.12
503.786	32.16
503.987	32.2
504.187	32.29
504.387	32.68
504.587	32.83
504.787	33.27
504.987	33.33
505.187	33.33
505.387	33.62
505.587	33.59
505.786	34.13
505.986	34.03
506.186	34.17
506.386	34.38
506.586	33.81
506.786	33.58
506.986	33.86
507.186	33.82
507.386	34.54
507.585	33.95
507.785	33.84
507.985	33.49
508.185	33.71
508.384	33.09
508.584	32.84
508.784	33.56
508.984	33.78
509.183	33.66
509.383	33.96
509.583	33.72
509.782	33.83
509.982	33.98
510.182	34.18
510.381	34.34
510.581	34.33
510.781	34.43
510.98	34.02
511.18	34.03
511.379	33.85
511.579	33.46
511.778	33.46
511.978	33.88
512.177	33.92
512.377	33.59
512.576	33.18
512.776	34.04
512.975	33.99
513.175	34.09
513.374	34.36
513.573	34.8
513.773	35.4
513.972	35.5
514.172	35.63
514.371	35.82
514.57	36.52
514.77	37.29
514.969	36.57
515.168	37.18
515.367	37.13
515.567	36.91
515.766	37
515.965	36.93
516.164	36.73
516.364	36.26
516.563	35.9
516.762	35.45
516.961	35.14
517.16	35.3
517.359	35.04
517.559	35.1
517.758	35.13
517.957	34.9
518.156	34.85
518.355	34.68
518.554	35.13
518.753	35.24
518.952	35.55
519.151	35.65
519.35	36.05
519.549	36.41
519.748	36.41
519.947	36.57
520.146	36.54
520.345	36.53
520.544	37.28
520.743	37.29
520.942	37.61
521.141	37.53
521.339	37.09
521.538	37.07
521.737	36.5
521.936	36.7
522.135	36.57
522.333	36.96
522.532	36.92
522.731	36.46
522.93	36.07
523.129	35.84
523.327	36.04
523.526	36.74
523.725	36.73
523.923	36.73
524.122	36.66
524.321	36.85
524.519	36.61
524.718	36.34
524.917	36.32
525.115	36.43
525.314	36.23
525.512	36.32
525.711	36.06
525.909	35.84
526.108	35.9
526.306	35.73
526.505	35.3
526.703	35.14
526.902	35.04
527.1	34.88
527.299	34.68
527.497	34.63
527.696	34.2
527.894	33.98
528.092	33.88
528.291	33.84
528.489	33.83
528.688	34.09
528.886	34.23
529.084	34.51
529.283	34.58
529.481	34.73
529.679	35.05
529.877	35.62
530.076	35.84
530.274	36.16
530.472	36.32
530.67	36.47
530.869	36.35
531.067	36.52
531.265	36.41
531.463	36.61
531.661	36.63
531.859	36.46
532.057	36.21
532.255	36.43
532.454	36.42
532.652	36.35
532.85	36.51
533.048	36.5
533.246	36.46
533.444	36.4
533.642	36.35
533.84	36.55
534.038	36.65
534.236	36.69
534.434	36.97
534.632	36.89
534.83	37.12
535.027	37.09
535.225	37.4
535.423	37.77
535.621	38.07
535.819	38.04
536.017	38.02
536.215	38.46
536.412	38.7
536.61	38.58
536.808	39.08
537.006	39.34
537.203	39.46
537.401	39.46
537.599	39.41
537.797	39.4
537.994	39.93
538.192	40.28
538.39	40.05
538.587	39.9
538.785	39.75
538.983	39.63
539.18	39.56
539.378	39.46
539.575	39.64
539.773	39.42
539.97	39.16
540.168	38.93
540.366	38.62
540.563	38.45
540.761	38.33
540.958	38.45
541.155	38.38
541.353	38.46
541.55	38.45
541.748	38.53
541.945	38.36
542.143	38.65
542.34	39.04
542.537	39.41
542.735	39.87
542.932	40.57
543.129	40.84
543.327	41.25
543.524	41.52
543.721	41.83
543.919	42.02
544.116	42.76
544.313	42.77
544.51	42.42
544.708	42.75
544.905	42.57
545.102	42.2
545.299	42.15
545.496	42.18
545.693	41.71
545.891	42
546.088	41.99
546.285	42.05
546.482	42.33
546.679	42.69
546.876	42.48
547.073	43.46
547.27	44.14
547.467	44.36
547.664	44.51
547.861	45.43
548.058	46.14
548.255	46.54
548.452	46.62
548.649	47.31
548.846	47.64
549.043	48.19
549.24	47.47
549.437	47.69
549.633	47.9
549.83	48.19
550.027	48.26
550.224	47.84
550.421	47.67
550.618	47.97
550.814	47.53
551.011	47.07
551.208	46.9
551.405	47.25
551.601	46.78
551.798	46.56
551.995	46.23
552.191	45.99
552.388	45.7
552.585	45.74
552.781	46.03
552.978	46.56
553.175	47.15
553.371	47.33
553.568	47.28
553.764	47.82
553.961	48.05
554.157	47.98
554.354	48.53
554.55	48.87
554.747	49.16
554.943	48.78
555.14	48.62
555.336	48.72
555.533	49.18
555.729	49.54
555.926	49.73
556.122	50.31
556.318	51.1
556.515	51.05
556.711	51.45
556.907	51.39
557.104	51.79
557.3	51.67
557.496	51.6
557.693	51.47
557.889	51.71
558.085	51.5
558.281	51.66
558.478	51.78
558.674	51.28
558.87	51.09
559.066	50.95
559.262	51.14
559.459	51.61
559.655	51.82
559.851	51.51
560.047	51.49
560.243	51.79
560.439	51.91
560.635	52.1
560.831	52.47
561.027	52.42
561.223	52.44
561.419	52.21
561.615	52.14
561.811	52.39
562.007	52.57
562.203	52.35
562.399	52.26
562.595	52.12
562.791	51.88
562.987	51.95
563.183	51.88
563.379	52.13
563.575	52.04
563.771	51.96
563.966	51.33
564.162	51.46
564.358	51.18
564.554	51.2
564.75	50.44
564.945	50.55
565.141	50.77
565.337	50.78
565.533	50.54
565.728	50.19
565.924	50.12
566.12	50.41
566.315	50.42
566.511	50.79
566.707	50.66
566.902	50.83
567.098	51.26
567.293	51.5
567.489	52.21
567.684	52.77
567.88	53.28
568.076	53.36
568.271	53.29
568.467	53.88
568.662	53.25
568.858	53.47
569.053	53.66
569.248	52.94
569.444	52.53
569.639	51.85
569.835	52.07
570.03	52.47
570.225	52.79
570.421	52.61
570.616	52.07
570.812	52.89
571.007	52.84
571.202	52.94
571.397	53.21
571.593	52.61
571.788	52.66
571.983	52.3
572.178	51.94
572.374	52.23
572.569	52.63
572.764	53.25
572.959	53.13
573.154	53.19
573.35	53.57
573.545	53.73
573.74	54.19
573.935	54.51
574.13	54.96
574.325	55.06
574.52	54.81
574.715	55.25
574.91	54.48
575.105	54.38
575.3	54.36
575.495	54.41
575.69	54.48
575.885	55.18
576.08	55.23
576.275	55.05
576.47	55.58
576.665	55.96
576.86	55.71
577.055	55.75
577.25	55.87
577.444	56.73
577.639	57.01
577.834	57.42
578.029	57.55
578.224	57.9
578.418	58.3
578.613	57.98
578.808	57.55
579.003	57.44
579.197	57.94
579.392	58.58
579.587	58.65
579.781	59.14
579.976	59.22
580.171	59.36
580.365	60.12
580.56	60.32
580.755	60.02
580.949	60.46
581.144	61.11
581.338	61.12
581.533	60.71
581.727	60.25
581.922	60.29
582.116	60.66
582.311	60.95
582.505	60.45
582.7	61.02
582.894	61.89
583.089	61.79
583.283	61.79
583.478	61.81
583.672	62.04
583.866	62.3
584.061	62.71
584.255	62.01
584.449	61.47
584.644	62.01
584.838	61.18
585.032	60.82
585.226	61.19
585.421	61.21
585.615	61.78
585.809	62.44
586.003	62.57
586.198	61.9
586.392	62.27
586.586	63.18
586.78	61.88
586.974	62.27
587.168	62.5
587.363	61.98
587.557	62.35
587.751	62.08
587.945	62
588.139	61.51
588.333	61.22
588.527	61.08
588.721	60.32
588.915	60.65
589.109	60.1
589.303	60.12
589.497	60.85
589.691	60.45
589.885	60.4
590.079	59.58
590.273	59.39
590.466	59.5
590.66	59.36
590.854	59.74
591.048	60.37
591.242	60.59
591.436	60.83
591.629	60.93
591.823	60.81
592.017	60.85
592.211	61.42
592.404	61.39
592.598	60.99
592.792	61.06
592.986	60.43
593.179	60.25
593.373	60.03
593.567	59.91
593.76	59.53
593.954	59.56
594.147	59.94
594.341	59.93
594.535	60.38
594.728	60.79
594.922	60.41
595.115	61.2
595.309	61.3
595.502	61.29
595.696	60.57
595.889	60.55
596.083	60.51
596.276	60.07
596.47	59.38
596.663	59.18
596.856	59.19
597.05	59.37
597.243	59.3
597.437	59.17
597.63	60.02
597.823	61.17
598.017	61.31
598.21	61.99
598.403	63.33
598.596	65.06
598.79	65.94
598.983	66.9
599.176	67.66
599.369	67.72
599.563	68.25
599.756	67.53
599.949	67.41
600.142	67.19
600.335	67.52
600.528	66.4
600.722	65.87
600.915	65.93
601.108	65.94
601.301	65.81
601.494	65.37
601.687	64.83
601.88	65.11
602.073	65.29
602.266	65.53
602.459	65.3
602.652	64.88
602.845	64.41
603.038	63.59
603.231	62.58
603.424	62.13
603.617	61.97
603.809	61.86
604.002	61.45
604.195	60.89
604.388	60.77
604.581	60.28
604.774	60.95
604.966	60.64
605.159	61.02
605.352	61.31
605.545	62.23
605.737	62.82
605.93	63.59
606.123	63.75
606.316	64.38
606.508	64.87
606.701	65.41
606.894	65.02
607.086	65.55
607.279	65.92
607.471	66.52
607.664	65.54
607.857	65.2
608.049	64.17
608.242	64.29
608.434	63.84
608.627	63.71
608.819	63.24
609.012	63.75
609.204	63.97
609.397	63.31
609.589	62.91
609.782	63.23
609.974	63.33
610.166	64.05
610.359	64.38
610.551	64.98
610.743	64.95
610.936	65.58
611.128	65.59
611.32	65.94
611.513	66.8
611.705	67.23
611.897	67.75
612.09	68.25
612.282	68.21
612.474	68.74
612.666	68.66
612.858	68.53
613.051	68.79
613.243	68.84
613.435	69.01
613.627	68.45
613.819	68.71
614.011	68.83
614.203	68.88
614.395	69.34
614.588	69.23
614.78	69
614.972	69.97
615.164	69.7
615.356	69.89
615.548	70.27
615.74	71.24
615.932	71.29
616.124	70.79
616.315	71.43
616.507	71.31
616.699	71.53
616.891	71.74
617.083	71.89
617.275	72.14
617.467	72.54
617.659	71.17
617.85	71.1
618.042	70.63
618.234	71.53
618.426	71.19
618.618	71.69
618.809	71.08
619.001	70.95
619.193	70.1
619.384	70.68
619.576	70.58
619.768	70.91
619.959	71.44
620.151	71.18
620.343	71.51
620.534	71.6
620.726	71.2
620.917	71.54
621.109	72.21
621.301	72.48
621.492	72.46
621.684	72.4
621.875	72.69
622.067	72.11
622.258	72.94
622.45	72.52
622.641	72.14
622.832	72.52
623.024	72.17
623.215	71.99
623.407	72.27
623.598	71.98
623.789	72.29
623.981	72.2
624.172	71.37
624.363	71.22
624.555	71.1
624.746	70.39
624.937	69.93
625.129	69.8
625.32	69.92
625.511	69.35
625.702	69.44
625.893	69.06
626.085	69.39
626.276	69.83
626.467	69.54
626.658	69.19
626.849	69.67
627.04	69.75
627.231	70.36
627.422	70.19
627.614	70.78
627.805	71.23
627.996	71.51
628.187	71.36
628.378	72.27
628.569	73.25
628.76	73.63
628.951	74.83
629.142	74.53
629.332	74.82
629.523	74.9
629.714	74.69
629.905	74.73
630.096	75.21
630.287	75.59
630.478	75.72
630.669	75.42
630.859	75.83
631.05	75.33
631.241	75.37
631.432	75.36
631.623	75.75
631.813	76.45
632.004	75.99
632.195	74.99
632.385	74.91
632.576	74.09
632.767	73.47
632.957	73.39
633.148	72.31
633.339	72.97
633.529	73
633.72	73.43
633.91	73.58
634.101	74.3
634.292	74.86
634.482	75.34
634.673	75.17
634.863	75.7
635.054	76.11
635.244	77.42
635.435	77
635.625	77.35
635.815	76.87
636.006	76.46
636.196	76.43
636.387	76.96
636.577	77.15
636.767	78.14
636.958	79.04
637.148	78.78
637.338	78.96
637.529	79.68
637.719	80.07
637.909	81
638.099	81.33
638.29	80.8
638.48	79.88
638.67	79.53
638.86	78.94
639.05	77.99
639.241	78.51
639.431	78.95
639.621	79.4
639.811	79.42
640.001	79.48
640.191	79.98
640.381	80.29
640.571	81.45
640.761	81.91
640.951	82.78
641.141	83.19
641.331	83.58
641.521	82.69
641.711	82.67
641.901	81.93
642.091	82.13
642.281	81.8
642.471	82.39
642.661	82.45
642.851	81.92
643.041	81.32
643.231	82.44
643.42	82.57
643.61	82.53
643.8	82.32
643.99	82.4
644.18	81.62
644.369	81.21
644.559	80.62
644.749	80.86
644.939	80.62
645.128	80.42
645.318	79.38
645.508	78.31
645.697	78.95
645.887	79.57
646.076	80.06
646.266	80.06
646.456	80.12
646.645	80.02
646.835	79.34
647.024	80.36
647.214	80.75
647.403	80.99
647.593	81.24
647.782	80.85
647.972	79.76
648.161	79.3
648.351	78.45
648.54	78.86
648.73	78.45
648.919	78.71
649.108	77.45
649.298	77.03
649.487	76.31
649.677	76.49
649.866	77.11
650.055	77.32
650.244	77.22
650.434	78.26
650.623	79.07
650.812	80.15
651.002	80.49
651.191	81.36
651.38	82.71
651.569	83.88
651.758	83.71
651.947	83.09
652.137	82.86
652.326	83
652.515	83.27
652.704	82.29
652.893	82.36
653.082	82.42
653.271	82.83
653.46	81.84
653.649	81.02
653.838	81.42
654.027	82.89
654.216	84.46
654.405	85.7
654.594	84.29
654.783	83.62
654.972	83.18
655.161	82.88
655.35	82.43
655.539	82.13
655.728	83.22
655.916	83.01
656.105	81.56
656.294	81.07
656.483	80.3
656.672	81.67
656.86	81.82
657.049	81.62
657.238	81.13
657.427	80.73
657.615	80.55
657.804	79.55
657.993	78.79
658.181	78.96
658.37	78.56
658.559	77.82
658.747	77.62
658.936	77.52
659.125	77.19
659.313	77.61
659.502	77.59
659.69	77.48
659.879	77.03
660.067	78.39
660.256	78.77
660.444	78.41
660.633	79.37
660.821	80.27
661.01	80.91
661.198	81.58
661.387	81.49
661.575	82.01
661.763	82.53
661.952	83.56
662.14	84.01
662.328	84.24
662.517	85.78
662.705	85.89
662.893	85.69
663.082	85.66
663.27	85.56
663.458	86.29
663.646	86.49
663.834	87.09
664.023	87.89
664.211	87.87
664.399	88.45
664.587	89
664.775	89.29
664.963	88.3
665.152	87.59
665.34	88.25
665.528	88.21
665.716	88.86
665.904	88.32
666.092	87.11
666.28	86.04
666.468	85.72
666.656	84.95
666.844	85.13
667.032	85.11
667.22	86.44
667.408	86.07
667.596	85.69
667.784	84.03
667.971	84.35
668.159	85.6
668.347	86.33
668.535	86.73
668.723	87.26
668.911	87.12
669.098	88.36
669.286	88.52
669.474	89.31
669.662	89.71
669.849	91.74
670.037	91.44
670.225	91.15
670.413	91.14
670.6	90.65
670.788	89.03
670.976	89.59
671.163	89.82
671.351	89.63
671.538	89.19
671.726	88.6
671.913	87.46
672.101	88.34
672.289	87.97
672.476	88.13
672.664	87.97
672.851	89.52
673.039	90.18
673.226	90.07
673.413	90.5
673.601	89.29
673.788	89.75
673.976	90.77
674.163	91.14
674.35	91.87
674.538	91.37
674.725	92.22
674.912	90.13
675.1	89.41
675.287	89.05
675.474	88.46
675.662	88.62
675.849	89.17
676.036	87.52
676.223	88.16
676.411	87.22
676.598	87.41
676.785	86.73
676.972	88.3
677.159	87.77
677.346	88.42
677.533	87.83
677.721	86.84
677.908	85.24
678.095	85.54
678.282	84.72
678.469	84.33
678.656	84.28
678.843	83.66
679.03	82.51
679.217	82.25
679.404	81.89
679.591	81.69
679.778	83.35
679.964	84.83
680.151	85.48
680.338	85.64
680.525	86.2
680.712	85.88
680.899	86.2
681.086	87.28
681.272	87.61
681.459	86.96
681.646	87.74
681.833	88.07
682.02	87.69
682.206	88.12
682.393	87.47
682.58	88.04
682.766	88.63
682.953	89.78
683.14	90.38
683.326	90.21
683.513	91.1
683.7	90.84
683.886	89.41
684.073	89.09
684.259	89.62
684.446	90.42
684.632	90.28
684.819	91.03
685.005	89.28
685.192	88.69
685.378	88.85
685.565	88.43
685.751	89.14
685.938	91.29
686.124	91.96
686.31	91.11
686.497	90.47
686.683	91.29
686.87	90.58
687.056	91.98
687.242	91.48
687.429	92.54
687.615	92.28
687.801	91.4
687.987	89.1
688.174	88.1
688.36	88.74
688.546	88.45
688.732	87.98
688.918	87.96
689.105	87.36
689.291	88
689.477	86.95
689.663	87.87
689.849	87.66
690.035	88.96
690.221	89.26
690.407	88.24
690.593	88.48
690.779	87.83
690.965	87.96
691.151	88.23
691.337	88.05
691.523	88.87
691.709	88.99
691.895	90
692.081	89.16
692.267	88.89
692.453	89.46
692.639	90.01
692.825	90.34
693.011	89.75
693.196	90.07
693.382	90.02
693.568	89.02
693.754	88.23
693.94	87.32
694.125	89.27
694.311	90.7
694.497	90.79
694.682	92.09
694.868	92.53
695.054	92.95
695.239	91.96
695.425	92.23
695.611	93.15
695.796	91.4
695.982	91.31
696.168	89.59
696.353	87.17
696.539	86.73
696.724	84.7
696.91	82.91
697.095	81.54
697.281	81.29
697.466	80.13
697.652	79.8
697.837	80.2
698.023	80.4
698.208	80.63
698.393	81.09
698.579	79.89
698.764	80.54
698.949	80.68
699.135	80.8
699.32	80.62
699.505	81.68
699.691	82.1
699.876	82.06
700.061	82.34
700.246	82.48
700.432	82.73
700.617	84.39
700.802	84.33
700.987	85.97
701.172	90.53
701.358	93.13
701.543	92.47
701.728	93.02
701.913	93.15
702.098	94.28
702.283	95.92
702.468	97.17
702.653	97.72
702.838	97.09
703.023	98.61
703.208	96.88
703.393	95.61
703.578	97.03
703.763	97.28
703.948	100.18
704.133	101.99
704.318	99.63
704.503	99.53
704.688	100.5
704.873	102.26
705.057	101.54
705.242	99.87
705.427	99.97
705.612	98.65
705.797	97.91
705.981	95.82
706.166	94.35
706.351	95.52
706.536	95.56
706.72	95.01
706.905	93.65
707.09	92.33
707.274	91.76
707.459	91.73
707.644	93.24
707.828	94
708.013	94.72
708.197	93.69
708.382	93.12
708.567	94.13
708.751	93.92
708.936	93.3
709.12	94.12
709.305	94.02
709.489	92.78
709.673	92.35
709.858	91.53
710.042	91.67
710.227	91.5
710.411	91.85
710.596	91.71
710.78	89.92
710.964	92.58
711.149	93.38
711.333	94.58
711.517	96.57
711.702	97.22
711.886	97.04
712.07	96.01
712.254	96.29
712.438	95.27
712.623	93.03
712.807	94.17
712.991	92.17
713.175	91.04
713.359	90.99
713.544	89.59
713.728	89.22
713.912	90.2
714.096	91.66
714.28	90.1
714.464	90.94
714.648	91.86
714.832	92.21
715.016	91.94
715.2	90.42
715.384	89.76
715.568	89.81
715.752	87.99
715.936	87.46
716.12	86.3
716.304	87.81
716.488	86.66
716.671	85.39
716.855	84.08
717.039	85.55
717.223	88.4
717.407	89.32
717.59	90.06
717.774	89.95
717.958	90.43
718.142	91.31
718.325	92.11
718.509	92.91
718.693	94.45
718.877	95.05
719.06	94.67
719.244	95.63
719.428	94.37
719.611	95.66
719.795	98.83
719.978	97.93
720.162	98.05
720.345	97.63
720.529	98.8
720.713	99.33
720.896	99.18
721.08	98.58
721.263	98.09
721.446	97.25
721.63	95.8
721.813	93.75
721.997	94.1
722.18	92.79
722.364	93.2
722.547	92.25
722.73	89.73
722.914	90.52
723.097	90.94
723.28	88.37
723.464	88.71
723.647	89.43
723.83	90.17
724.013	91.01
724.197	90.35
724.38	88.05
724.563	88.6
724.746	90.74
724.929	91.91
725.112	92.23
725.296	93.6
725.479	94.95
725.662	92.7
725.845	91.94
726.028	91.36
726.211	91.38
726.394	94.08
726.577	93.37
726.76	90.96
726.943	90.32
727.126	89.98
727.309	89.33
727.492	88.31
727.675	89.79
727.858	91.11
728.041	90.04
728.224	89.26
728.407	88.83
728.589	88.45
728.772	91.51
728.955	91.99
729.138	91.2
729.321	92.32
729.503	92.61
729.686	91.43
729.869	90.43
730.052	90.83
730.234	91.03
730.417	90.19
730.6	90.79
730.782	89.82
730.965	89.46
731.148	89.64
731.33	88.7
731.513	90
731.695	92.72
731.878	92.68
732.061	93.36
732.243	94.7
732.426	96.68
732.608	96.39
732.791	96.69
732.973	97.48
733.156	97.48
733.338	98.21
733.52	96.93
733.703	95.24
733.885	96.75
734.068	96.12
734.25	97.18
734.432	95.7
734.615	98.17
734.797	96.74
734.979	95.25
735.162	96.51
735.344	95.32
735.526	96.15
735.708	96.26
735.891	95.98
736.073	97.37
736.255	97.59
736.437	97.35
736.619	97.26
736.802	100.39
736.984	102.53
737.166	103.22
737.348	104.75
737.53	103.08
737.712	106.08
737.894	107.14
738.076	106.31
738.258	105.5
738.44	105.35
738.622	104.14
738.804	103.32
738.986	102.18
739.168	101.13
739.35	100.87
739.532	102.77
739.714	99.83
739.896	98
740.078	98.33
740.259	100.66
740.441	100.98
740.623	101.51
740.805	101.56
740.987	101.54
741.168	103.03
741.35	103.58
741.532	102.82
741.714	105.5
741.895	106.16
742.077	107.69
742.259	105.37
742.44	107.54
742.622	108.66
742.804	110.02
742.985	110.72
743.167	113.79
743.348	116.22
743.53	117.79
743.711	116.08
743.893	117.36
744.075	114.87
744.256	115.65
744.438	115.62
744.619	113.05
744.8	112.76
744.982	113.31
745.163	110.66
745.345	108.49
745.526	107.81
745.707	108.29
745.889	109.07
746.07	109.56
746.252	110.02
746.433	110.99
746.614	110.13
746.795	108.63
746.977	107.27
747.158	106.59
747.339	108.5
747.52	106.43
747.702	107.06
747.883	106.77
748.064	106.62
748.245	106.61
748.426	105.05
748.607	109.09
748.788	108.18
748.97	111.22
749.151	111.38
749.332	108.78
749.513	110.56
749.694	109.7
749.875	109.62
750.056	109.09
750.237	109.76
750.418	107.58
750.599	104.23
750.78	103.15
750.96	102.04
751.141	99.4
751.322	99.77
751.503	98.25
751.684	97.72
751.865	96.81
752.046	97.97
752.226	97.97
752.407	98.34
752.588	99.18
752.769	100.32
752.949	99.92
753.13	102.13
753.311	99.8
753.492	102.64
753.672	102.01
753.853	100.81
754.034	101.04
754.214	100.71
754.395	103.83
754.575	105.95
754.756	106.29
754.937	106.42
755.117	106.44
755.298	109.87
755.478	108.52
755.659	110.31
755.839	111.54
756.02	108.42
756.2	107.07
756.381	104.38
756.561	101.05
756.741	102.12
756.922	100.69
757.102	97.12
757.283	96.06
757.463	94.17
757.643	92.03
757.823	90.88
758.004	92.79
758.184	92.97
758.364	92.34
758.545	92.53
758.725	91.28
758.905	90.68
759.085	92.1
759.265	90.09
759.446	89.52
759.626	90.31
759.806	90.69
759.986	88.38
760.166	85.23
760.346	85.3
760.526	84.39
760.706	83.08
760.886	83.47
761.066	84.6
761.246	85.94
761.426	85.94
761.606	83.34
761.786	80.75
761.966	80.17
762.146	81.18
762.326	82.2
762.506	82.55
762.686	82.46
762.866	80.86
763.046	80.29
763.225	79.58
763.405	80.12
763.585	82.3
763.765	83.94
763.945	84.27
764.124	85.22
764.304	85.64
764.484	85.98
764.664	86.96
764.843	89.92
765.023	91.31
765.203	92.59
765.382	93.97
765.562	94.54
765.741	96.36
765.921	98.33
766.101	98.84
766.28	98.78
766.46	99.23
766.639	102.45
766.819	101.48
766.998	103.75
767.178	105.53
767.357	107.01
767.537	106.16
767.716	108.72
767.896	108.66
768.075	111.2
768.254	112.56
768.434	114.3
768.613	110.51
768.792	111.43
768.972	110.06
769.151	111.07
769.33	112.29
769.51	115.77
769.689	112.24
769.868	114.22
770.047	112.13
770.226	108.47
770.406	110.67
770.585	111.66
770.764	110.85
770.943	110.07
771.122	109.18
771.301	107.92
771.48	105.77
771.66	107.24
771.839	105.98
772.018	106.38
772.197	108.08
772.376	106.69
772.555	107.16
772.734	110.51
772.913	110.07
773.092	110
773.271	111.37
773.449	111.83
773.628	112.54
773.807	112.06
773.986	112.94
774.165	113.21
774.344	113.9
774.523	116.4
774.701	113.28
774.88	116.69
775.059	117.7
775.238	115.61
775.417	114.73
775.595	113.63
775.774	113.15
775.953	112.78
776.131	112.72
776.31	113.64
776.489	110.13
776.667	112.06
776.846	111.68
777.025	111.8
777.203	112.88
777.382	117.42
777.56	117.75
777.739	117.63
777.917	114.55
778.096	115.81
778.274	115
778.453	117.53
778.631	115.82
778.81	114.43
778.988	113.82
779.166	112.39
779.345	108.47
779.523	105.22
779.702	105.93
779.88	107.59
780.058	110.93
780.237	111.27
780.415	111.92
780.593	111.97
780.771	110.28
780.95	109.34
781.128	110.25
781.306	111.79
781.484	117.29
781.662	118.07
781.841	120.29
782.019	118.29
782.197	117.02
782.375	116.79
782.553	116.62
782.731	118.63
782.909	121.37
783.087	121.17
783.265	120.35
783.443	115.67
783.621	113.97
783.799	113.28
783.977	113.34
784.155	113.8
784.333	110.32
784.511	108.25
784.689	109.71
784.867	105.75
785.045	104.89
785.223	105.56
785.4	107
785.578	108.55
785.756	108.53
785.934	103.55
786.112	102.59
786.289	106.76
786.467	107.99
786.645	104.68
786.823	106.14
787	105.45
787.178	105.72
787.356	104.63
787.533	104.76
787.711	103.88
787.889	106.55
788.066	105.83
788.244	102.12
788.421	103
788.599	104.13
788.776	105.43
788.954	105.29
789.131	101.41
789.309	99.66
789.486	101
789.664	99.82
789.841	100.61
790.019	100.83
790.196	101.79
790.373	101.72
790.551	100.8
790.728	98.09
790.906	98.19
791.083	96.98
791.26	100.89
791.437	101.38
791.615	102.63
791.792	102.42
791.969	101.75
792.146	102.78
792.324	101.14
792.501	101.93
792.678	101.15
792.855	102.93
793.032	104.66
793.209	102.58
793.387	101.42
793.564	102.5
793.741	104.95
793.918	106.91
794.095	107.96
794.272	109.31
794.449	110.71
794.626	115.39
794.803	116.35
794.98	116.6
795.157	114.57
795.334	113.42
795.511	111.43
795.688	108.99
795.864	109.4
796.041	106.91
796.218	109.33
796.395	107.05
796.572	107.95
796.749	108.28
796.925	112.15
797.102	111.56
797.279	107.31
797.456	107.79
797.632	108.92
797.809	106.93
797.986	108.36
798.162	105.48
798.339	104.75
798.516	100.34
798.692	96.76
798.869	93.15
799.046	94.95
799.222	97.98
799.399	98.86
799.575	98.21
799.752	99.28
799.928	96.54
800.105	95.56
800.281	95.47
800.458	97.82
800.634	98.49
800.811	100.11
800.987	100.1
801.163	102.08
801.34	98.91
801.516	97.89
801.692	96.62
801.869	97.99
802.045	98.12
802.221	97.97
802.398	96.72
802.574	99.82
802.75	99.25
802.926	99.65
803.103	98.01
803.279	100.72
803.455	100.18
803.631	100.42
803.807	101.29
803.983	101.67
804.16	103.24
804.336	101.45
804.512	97.75
804.688	96.24
804.864	96.81
805.04	95.97
805.216	94.54
805.392	96.89
805.568	94.62
805.744	93.66
805.92	94.49
806.096	97.4
806.272	101.04
806.448	102.76
806.623	107.24
806.799	106.88
806.975	105.08
807.151	102.93
807.327	100.59
807.503	103.03
807.678	104.57
807.854	103.53
808.03	97.67
808.206	95.14
808.381	91.22
808.557	89.41
808.733	88.26
808.908	87.03
809.084	89.19
809.26	86.75
809.435	86.9
809.611	84.48
809.787	86.17
809.962	87.61
810.138	87.92
810.313	90.9
810.489	91.57
810.664	88.28
810.84	93
811.015	91.08
811.191	93.69
811.366	94.14
811.542	96.87
811.717	97.52
811.892	100.56
812.068	101.11
812.243	100.55
812.419	98.62
812.594	106.73
812.769	100.84
812.944	103.76
813.12	103.67
813.295	101.31
813.47	99.67
813.645	97.63
813.821	93.36
813.996	88.39
814.171	89.17
814.346	88.57
814.521	89.34
814.697	90.32
814.872	89.69
815.047	85.95
815.222	88.14
815.397	87.13
815.572	88.18
815.747	91.88
815.922	96.1
816.097	96.78
816.272	97.41
816.447	95.34
816.622	95.55
816.797	93.02
816.972	94.44
817.147	92.36
817.322	93.73
817.496	90.48
817.671	87.47
817.846	85.19
818.021	82.85
818.196	81.61
818.371	78.91
818.545	81.96
818.72	83.31
818.895	83.8
819.069	86
819.244	85.37
819.419	85.14
819.594	84.26
819.768	85.08
819.943	83.82
820.117	83.59
820.292	82.08
820.467	79.01
820.641	77.75
820.816	77.13
820.99	74.23
821.165	72.73
821.339	70.44
821.514	70.91
821.688	69.62
821.863	68.9
822.037	68.82
822.212	69.33
822.386	68.94
822.56	68.68
822.735	67.96
822.909	69.3
823.084	68.96
823.258	70.32
823.432	69.67
823.606	70.29
823.781	72.76
823.955	72.9
824.129	72.88
824.303	73.83
824.478	74.63
824.652	74.01
824.826	73.14
825	73.24
825.174	73.72
825.348	72.54
825.523	71.67
825.697	70.7
825.871	69.74
826.045	69.76
826.219	69.73
826.393	68.97
826.567	70.06
826.741	70.28
826.915	71.42
827.089	72.68
827.263	74.11
827.437	75.55
827.611	74.69
827.784	76.86
827.958	75.98
828.132	75.72
828.306	78.22
828.48	78.12
828.654	78.33
828.827	77.77
829.001	74.66
829.175	74.51
829.349	78.04
829.522	80.53
829.696	81.07
829.87	82.17
830.044	84.01
830.217	83.68
830.391	86.12
830.565	88.42
830.738	88.15
830.912	92.02
831.085	92.7
831.259	89.22
831.432	86.36
831.606	83.59
831.779	85.21
831.953	84.51
832.126	83.46
832.3	84.25
832.473	82.75
832.647	84.64
832.82	82.9
832.994	83.65
833.167	81.68
833.34	81.6
833.514	83.48
833.687	81.84
833.86	81.72
834.034	82.05
834.207	81.5
834.38	82.33
834.553	82.84
834.727	86.38
834.9	85.53
835.073	86.37
835.246	87.26
835.419	86.47
835.593	87.84
835.766	87.14
835.939	87.38
836.112	88.87
836.285	87.7
836.458	87.8
836.631	85.13
836.804	85.83
836.977	87.28
837.15	89.95
837.323	91.85
837.496	94.23
837.669	94.55
837.842	97.9
838.015	92.83
838.188	93.6
838.361	90.1
838.533	91.69
838.706	97.76
838.879	99.55
839.052	98.87
839.225	98
839.398	95.26
839.57	96.53
839.743	94.53
839.916	97.59
840.088	97.01
840.261	101.13
840.434	101.16
840.607	96.98
840.779	95.95
840.952	96.05
841.124	96.69
841.297	94.25
841.47	93.65
841.642	94.45
841.815	96.51
841.987	96.61
842.16	94.34
842.332	95.04
842.505	94.38
842.677	95.79
842.85	95.18
843.022	97.13
843.194	99.56
843.367	105.6
843.539	102.6
843.712	100.77
843.884	98.61
844.056	103.18
844.229	101.21
844.401	105.06
844.573	106.24
844.745	106.4
844.918	107.52
845.09	110.72
845.262	102.74
845.434	105.5
845.606	104.15
845.779	107.66
845.951	103.88
846.123	105.76
846.295	105.55
846.467	104.6
846.639	101.68
846.811	97.72
846.983	99.49
847.155	101.81
847.327	101.33
847.499	102.19
847.671	100.16
847.843	103.17
848.015	101.56
848.187	100.88
848.359	101.83
848.531	103.8
848.703	105.47
848.875	102.69
849.047	103
849.218	106.12
849.39	106.68
849.562	109.93
849.734	110.76
849.905	108.41
850.077	107.76
850.249	107.02
850.421	105.82
850.592	108
850.764	107.1
850.936	108.86
851.107	107.1
851.279	109.8
851.451	111.1
851.622	106.31
851.794	110.53
851.965	109.35
852.137	104.38
852.308	111.4
852.48	113.95
852.651	114.83
852.823	113.16
852.994	111.44
853.166	112.46
853.337	115.03
853.509	116.58
853.68	112.2
853.851	116.69
854.023	122.47
854.194	118.91
854.365	113.98
854.537	114.45
854.708	115.17
854.879	113.64
855.05	110.05
855.222	104.37
855.393	105.33
855.564	108.06
855.735	102.25
855.906	101.99
856.078	100.02
856.249	99.45
856.42	99.24
856.591	101.73
856.762	101.08
856.933	105.14
857.104	110.17
857.275	111.36
857.446	112.39
857.617	112.23
857.788	115.83
857.959	123.69
858.13	124.86
858.301	123.95
858.472	115.97
858.643	112.46
858.814	109.01
858.985	107.18
859.155	106.35
859.326	103.86
859.497	106.89
859.668	102.36
859.839	98.46
860.009	98.16
860.18	98.38
860.351	102.66
860.522	106.56
860.692	111.59
860.863	109.55
861.034	110.51
861.204	113.74
861.375	114.87
861.546	116.77
861.716	115.51
861.887	117.88
862.057	123.58
862.228	119.74
862.398	119.03
862.569	114.4
862.739	115.33
862.91	112.72
863.08	110.18
863.251	109.5
863.421	111.76
863.592	111.13
863.762	108.47
863.932	98.06
864.103	95.48
864.273	96.19
864.443	93.73
864.614	89.42
864.784	90.46
864.954	90.41
865.125	87.93
865.295	85.3
865.465	88.15
865.635	89.97
865.805	95.2
865.976	96.69
866.146	96.72
866.316	95.81
866.486	99.93
866.656	100.58
866.826	98.95
866.996	97.71
867.166	94.72
867.336	95.93
867.506	93.95
867.676	94.21
867.846	97.47
868.016	102.32
868.186	102.26
868.356	105
868.526	103.49
868.696	109.81
868.866	109.97
869.036	110.98
869.206	105.49
869.376	103.04
869.545	101.07
869.715	98.4
869.885	94.84
870.055	97.06
870.224	93.81
870.394	94.87
870.564	90.05
870.734	92.58
870.903	93.5
871.073	95.28
871.243	93.56
871.412	94.63
871.582	95.7
871.751	95.54
871.921	95.79
872.091	94.63
872.26	92.96
872.43	93.26
872.599	91.64
872.769	90
872.938	90.21
873.108	92.21
873.277	94.36
873.446	94.13
873.616	94.11
873.785	93.11
873.955	91.3
874.124	90.78
874.293	92.76
874.463	96.42
874.632	98.37
874.801	96.41
874.971	99.89
875.14	105.55
875.309	102.9
875.478	100.83
875.647	100.59
875.817	107.31
875.986	108.74
876.155	109.26
876.324	105.21
876.493	105.59
876.662	106.51
876.831	107.06
877	98.98
877.17	101.9
877.339	102.65
877.508	106.56
877.677	97.24
877.846	97.92
878.015	93.96
878.184	97.98
878.352	100.64
878.521	99.31
878.69	99.5
878.859	96.85
879.028	98.27
879.197	100.72
879.366	99.03
879.534	100.17
879.703	97.35
879.872	90.77
880.041	89.41
880.21	86.04
880.378	84.95
880.547	83.05
880.716	81.4
880.884	79.33
881.053	74.12
881.222	72.24
881.39	71.24
881.559	70.6
881.727	73.33
881.896	69.7
882.065	69.66
882.233	67.72
882.402	67.18
882.57	68.46
882.739	68.46
882.907	70.42
883.076	70.2
883.244	72.43
883.412	73.09
883.581	74.88
883.749	74.26
883.918	73.83
884.086	76.8
884.254	77.65
884.423	79.94
884.591	77.82
884.759	78.01
884.927	76.89
885.096	78.27
885.264	80.79
885.432	82.11
885.6	88.56
885.769	88.92
885.937	87.26
886.105	84.06
886.273	83.69
886.441	90.31
886.609	90.26
886.777	91.4
886.945	90.29
887.113	90.8
887.281	87.9
887.449	86.47
887.617	87.66
887.785	91.85
887.953	93.95
888.121	93.28
888.289	92.1
888.457	93.3
888.625	93.96
888.793	97.92
888.961	94.02
889.129	94.65
889.296	89.75
889.464	91.58
889.632	88.72
889.8	89.52
889.967	89.02
890.135	83.6
