Data from JASIL_3245_Reflection_1.txt Node
Date: Mon Nov 16 20:35:27 EST 2015
User: Geneva
Spectrometer: USB4E03002
Autoset integration time: false
Trigger mode: 4
Integration Time (sec): 1.000000E-1
Scans to average: 10
Electric dark correction enabled: false
Nonlinearity correction enabled: false
Boxcar width: 5
Stray light correction enabled: false
XAxis mode: Wavelengths
Stop averaging: false
Number of Pixels in Spectrum: 3648
>>>>>Begin Spectral Data<<<<<
177.575	-590.6
177.794	-620.71
178.014	-630.12
178.233	-1065.42
178.452	-1504.82
178.672	-1100
178.891	-1444.34
179.11	4478.38
179.33	1478.57
179.549	-6918.18
179.768	1374.58
179.987	1664.52
180.207	1021.94
180.426	578.4
180.645	617.99
180.864	1085.06
181.084	426.99
181.303	379.17
181.522	711.36
181.741	2230.99
181.96	535.04
182.179	653.53
182.398	832.89
182.618	816.1
182.837	797.06
183.056	690.08
183.275	454.99
183.494	482.56
183.713	488.4
183.932	383.98
184.151	396.72
184.37	384.3
184.589	311.3
184.808	251.4
185.027	228.77
185.246	282.97
185.465	427.14
185.684	447.14
185.903	1603.45
186.122	672.65
186.341	845.51
186.56	404.21
186.779	732.64
186.998	1022.31
187.216	1075.59
187.435	891.02
187.654	747.57
187.873	333.84
188.092	288.89
188.311	295.83
188.53	465.98
188.748	436.96
188.967	1069.6
189.186	555.56
189.405	662.77
189.623	627.31
189.842	581.48
190.061	630.14
190.28	1892.31
190.498	-1853.75
190.717	1293.65
190.936	-2781.36
191.154	-1446.43
191.373	-31983.33
191.592	-17481.82
191.81	-958.05
192.029	-1400
192.248	-432.62
192.466	-427.78
192.685	-429.06
192.904	-609.52
193.122	-410.67
193.341	-823.24
193.559	-749.24
193.778	-788.48
193.996	-1032.82
194.215	38800
194.433	-3435.71
194.652	737.44
194.87	597.4
195.089	567.25
195.307	649.47
195.526	1961.02
195.744	1159.65
195.963	702.75
196.181	13925
196.399	-910.26
196.618	4960
196.836	17650
197.055	-960.66
197.273	-2239.66
197.491	-1654.44
197.71	-2872.55
197.928	1965
198.146	3492.86
198.365	-15770
198.583	782.68
198.801	1073.1
199.019	2551.95
199.238	-4528.57
199.456	1776.42
199.674	741.53
199.892	545.21
200.111	709.23
200.329	679.25
200.547	496.62
200.765	462.57
200.983	503.31
201.202	401.43
201.42	633.07
201.638	401.18
201.856	487.78
202.074	1542.98
202.292	1800
202.51	1248.3
202.728	1872.16
202.946	-4562.5
203.165	5672.73
203.383	-1942.27
203.601	-2294.19
203.819	4174
204.037	19990
204.255	2065.98
204.473	881.31
204.691	1214.67
204.909	782.86
205.127	848.84
205.345	954.55
205.562	905.45
205.78	555.37
205.998	620.41
206.216	529.29
206.434	529.05
206.652	480.3
206.87	338.79
207.088	286.75
207.306	346.17
207.523	325.1
207.741	270.81
207.959	253.82
208.177	321.64
208.395	245.45
208.612	261.94
208.83	243.14
209.048	264.58
209.266	359.82
209.483	375.76
209.701	319.65
209.919	371.19
210.136	375.9
210.354	909
210.572	850.23
210.79	1396.3
211.007	868.56
211.225	1512.4
211.442	-8604.76
211.66	-2452.78
211.878	-1109.03
212.095	247.48
212.313	256.73
212.53	353.2
212.748	199.7
212.966	181.69
213.183	165.47
213.401	155.37
213.618	136.89
213.836	173.1
214.053	173.88
214.271	178.66
214.488	1422.69
214.705	779.36
214.923	552.58
215.14	588.61
215.358	453.54
215.575	725.94
215.793	754.34
216.01	1104.91
216.227	359.36
216.445	308.95
216.662	328
216.879	315.19
217.097	273.01
217.314	320.08
217.531	421.6
217.749	463.77
217.966	533.33
218.183	479.06
218.4	553.42
218.618	762.99
218.835	750.83
219.052	545.21
219.269	465.41
219.487	687.85
219.704	477.03
219.921	340.4
220.138	281.62
220.355	287.47
220.572	293.29
220.79	301
221.007	334.6
221.224	424.62
221.441	391.88
221.658	435.91
221.875	320.51
222.092	327.54
222.309	448.55
222.526	468.15
222.743	406.8
222.96	537.26
223.177	258.17
223.394	264.44
223.611	189.03
223.828	215.65
224.045	251.55
224.262	279.51
224.479	193.24
224.696	164.05
224.913	207.87
225.13	175.06
225.347	129.83
225.564	134.05
225.781	113.55
225.997	110.59
226.214	89.79
226.431	78.74
226.648	68.28
226.865	64.73
227.082	66.06
227.298	52.41
227.515	43.91
227.732	46.86
227.949	42.78
228.165	39.46
228.382	35.91
228.599	36.11
228.816	36.35
229.032	36.37
229.249	30.86
229.466	28.73
229.682	30.86
229.899	35.68
230.116	38.13
230.332	39.56
230.549	43.45
230.765	49.27
230.982	50.08
231.199	53.37
231.415	59.15
231.632	64.57
231.848	71.18
232.065	77.59
232.281	73.57
232.498	80.88
232.714	81.18
232.931	75.97
233.147	71.69
233.364	78.4
233.58	72.15
233.797	78.66
234.013	79.08
234.23	78.02
234.446	78.45
234.662	76.43
234.879	72.09
235.095	72.36
235.312	76.36
235.528	74.76
235.744	67.05
235.961	71.45
236.177	57.17
236.393	67.35
236.61	61.17
236.826	61.63
237.042	64.94
237.258	65.06
237.475	62.09
237.691	59.78
237.907	61.07
238.123	67.11
238.339	63.23
238.556	65.13
238.772	56.23
238.988	56.23
239.204	52.04
239.42	51
239.636	46.98
239.853	46.99
240.069	44.87
240.285	45.03
240.501	42.22
240.717	38.42
240.933	37.17
241.149	35.03
241.365	34.22
241.581	32.73
241.797	31.32
242.013	29.49
242.229	30.14
242.445	29.68
242.661	29.03
242.877	29.16
243.093	31.88
243.309	32.36
243.525	35.49
243.741	35.09
243.957	35.37
244.173	34.38
244.388	37.03
244.604	35.93
244.82	34.66
245.036	31.18
245.252	28.26
245.468	23.07
245.683	20.83
245.899	18.2
246.115	18.17
246.331	18.13
246.547	17.73
246.762	16.18
246.978	16.45
247.194	17.48
247.409	17.8
247.625	18.55
247.841	20.09
248.057	20.81
248.272	23.29
248.488	24.53
248.703	26.62
248.919	28.78
249.135	31.42
249.35	30.9
249.566	30.7
249.782	33.22
249.997	33.88
250.213	34.33
250.428	33.59
250.644	33.92
250.859	33.39
251.075	31.91
251.29	32.38
251.506	30.87
251.721	32.14
251.937	32.97
252.152	33.49
252.368	33.55
252.583	34.08
252.798	34.84
253.014	33.73
253.229	32.68
253.445	33.89
253.66	32
253.875	34.84
254.091	39.83
254.306	36.25
254.521	34.43
254.737	36.46
254.952	38.24
255.167	40.6
255.383	37.78
255.598	38.26
255.813	36.58
256.028	36.69
256.244	35.79
256.459	31.11
256.674	33.64
256.889	33.22
257.104	28.79
257.32	26.15
257.535	23.34
257.75	21.82
257.965	20.97
258.18	19.4
258.395	17.26
258.61	15.97
258.826	16.42
259.041	15.73
259.256	15.68
259.471	16.31
259.686	16.29
259.901	15.75
260.116	16.92
260.331	17.13
260.546	17.33
260.761	18.41
260.976	18.75
261.191	19.98
261.406	20.76
261.621	22.04
261.836	22.21
262.05	21.58
262.265	24.58
262.48	24.29
262.695	24.41
262.91	24.13
263.125	26.16
263.34	26.65
263.555	24.73
263.769	26.98
263.984	25.69
264.199	26.72
264.414	29.61
264.629	28.82
264.843	27.51
265.058	26.16
265.273	26.52
265.488	26.59
265.702	26.85
265.917	27.58
266.132	25.38
266.346	24.89
266.561	24.21
266.776	24.14
266.99	22.09
267.205	23.85
267.42	24.99
267.634	24.67
267.849	24.05
268.063	24.02
268.278	22.69
268.492	23.69
268.707	25.2
268.922	25.47
269.136	24.51
269.351	24.73
269.565	23.68
269.78	22.94
269.994	22.24
270.209	21.02
270.423	21.02
270.637	21.6
270.852	19.24
271.066	17.56
271.281	18.58
271.495	16.9
271.709	17.4
271.924	17.95
272.138	18.08
272.353	18.55
272.567	18.42
272.781	17.1
272.996	16.32
273.21	17.76
273.424	18.47
273.638	17.64
273.853	18.86
274.067	19.66
274.281	18.79
274.495	18.52
274.71	18.53
274.924	18.14
275.138	18.28
275.352	17.84
275.566	18.83
275.781	17.58
275.995	16.68
276.209	17.39
276.423	18.6
276.637	19.05
276.851	19.64
277.065	19.75
277.279	21.95
277.493	20.92
277.707	21.01
277.921	18.61
278.135	18.77
278.349	20.44
278.563	20.62
278.777	18.73
278.991	18.41
279.205	16.66
279.419	16.94
279.633	16.96
279.847	19.58
280.061	19.18
280.275	19.69
280.489	19.14
280.703	15.5
280.917	15.46
281.131	14.94
281.344	15.22
281.558	17.05
281.772	16.09
281.986	15.86
282.2	16.36
282.414	15.33
282.627	15.74
282.841	16.32
283.055	18.76
283.269	19.15
283.482	20.28
283.696	20.56
283.91	18.7
284.123	17.65
284.337	15.96
284.551	13.93
284.764	15.13
284.978	13.63
285.192	13.5
285.405	13.39
285.619	12.49
285.833	12.25
286.046	11.44
286.26	12.07
286.473	13.24
286.687	14.11
286.9	15.57
287.114	16.29
287.327	17.94
287.541	18.62
287.754	18.52
287.968	18.69
288.181	18.94
288.395	18.25
288.608	19.7
288.822	19.75
289.035	19.25
289.248	18.39
289.462	17.16
289.675	16.81
289.889	16.79
290.102	15.69
290.315	16.23
290.529	15.02
290.742	15.67
290.955	14.84
291.169	14.8
291.382	14.93
291.595	17.01
291.808	17.64
292.022	18.19
292.235	18.73
292.448	19.95
292.661	19.29
292.875	22.3
293.088	22.34
293.301	21.57
293.514	20.12
293.727	19.76
293.94	16.59
294.153	16.73
294.367	16.23
294.58	14.1
294.793	13.1
295.006	13.68
295.219	11.32
295.432	11.67
295.645	11.02
295.858	12.02
296.071	12.62
296.284	12.45
296.497	12.28
296.71	12.74
296.923	14.35
297.136	14.7
297.349	13.65
297.562	14.58
297.775	14.72
297.988	14.76
298.201	15.28
298.414	14.22
298.626	16.23
298.839	16.26
299.052	15.57
299.265	14.63
299.478	15.63
299.691	15.95
299.903	15.88
300.116	15.9
300.329	17.13
300.542	16.04
300.755	17.61
300.967	17
301.18	16.24
301.393	17.68
301.605	18.65
301.818	17.45
302.031	18.43
302.243	17.66
302.456	17.09
302.669	17.03
302.881	18.68
303.094	18.48
303.307	19.29
303.519	19.86
303.732	18.61
303.944	17.57
304.157	18.27
304.37	18.02
304.582	17.96
304.795	18.19
305.007	17.67
305.22	15.61
305.432	14.75
305.645	14.43
305.857	14.64
306.069	14.24
306.282	15.17
306.494	14.96
306.707	15.49
306.919	15.08
307.132	14.29
307.344	14.87
307.556	15.87
307.769	17.4
307.981	16.71
308.193	16.85
308.406	17.3
308.618	16.23
308.83	16.96
309.043	16.13
309.255	17.63
309.467	17.31
309.679	16.4
309.892	16.77
310.104	15.45
310.316	15.45
310.528	14.9
310.74	14.37
310.953	14.64
311.165	14.41
311.377	14.97
311.589	13.81
311.801	14.32
312.013	14.33
312.225	14.51
312.437	15.06
312.649	15.05
312.862	15.68
313.074	14.99
313.286	16.15
313.498	16.18
313.71	14.74
313.922	15.97
314.134	16.7
314.346	17.17
314.558	17.03
314.77	16.62
314.982	16.31
315.193	16.03
315.405	17
315.617	15.52
315.829	16.54
316.041	17.41
316.253	16.66
316.465	16.95
316.677	17.68
316.888	17.67
317.1	18.6
317.312	19.15
317.524	19.32
317.736	19.83
317.947	21.1
318.159	20.7
318.371	22.12
318.583	22.01
318.794	21.67
319.006	20.68
319.218	19.89
319.43	20.09
319.641	19.84
319.853	20.26
320.064	21.37
320.276	22.6
320.488	21.67
320.699	19.93
320.911	20.33
321.123	20.11
321.334	23.15
321.546	23.4
321.757	23.61
321.969	24.24
322.18	23.01
322.392	21.05
322.603	19.39
322.815	19.81
323.026	20.15
323.238	21.14
323.449	19.72
323.661	17.56
323.872	17.67
324.083	16.5
324.295	16.15
324.506	17.05
324.718	17.41
324.929	16.68
325.14	17.23
325.352	18.48
325.563	18.11
325.774	18.84
325.986	18.81
326.197	18.53
326.408	19.15
326.62	18.7
326.831	17.94
327.042	18.35
327.253	18.97
327.464	18.7
327.676	16.86
327.887	16.33
328.098	17.5
328.309	18.2
328.52	19.24
328.732	19.93
328.943	21.17
329.154	20.95
329.365	22.07
329.576	23
329.787	22.06
329.998	23.9
330.209	23.39
330.42	22.36
330.631	23.72
330.842	23.87
331.053	24.38
331.264	23.57
331.475	23.99
331.686	23.19
331.897	21.97
332.108	23.79
332.319	22.9
332.53	22.79
332.741	22.28
332.952	20.54
333.163	19.61
333.374	18.6
333.585	18.65
333.795	19.28
334.006	18.89
334.217	19.85
334.428	17.68
334.639	16.99
334.849	16.44
335.06	17.75
335.271	18.4
335.482	19.21
335.692	18.27
335.903	19.06
336.114	19.51
336.325	19.81
336.535	19.59
336.746	22.12
336.957	24.01
337.167	24.59
337.378	24.22
337.589	23.47
337.799	22.67
338.01	24.53
338.22	23.2
338.431	23.55
338.642	23.43
338.852	21.81
339.063	20.38
339.273	19.41
339.484	20.4
339.694	20.24
339.905	21.32
340.115	21.58
340.326	20.28
340.536	21.14
340.746	20.62
340.957	20.98
341.167	21.91
341.378	21.7
341.588	20.37
341.799	18.66
342.009	18.82
342.219	18.77
342.43	20.05
342.64	19.83
342.85	19.96
343.061	18.63
343.271	17.7
343.481	17.37
343.691	15.98
343.902	17.17
344.112	18.39
344.322	17.78
344.532	17.8
344.743	17.22
344.953	17.83
345.163	17.1
345.373	17.28
345.583	19.23
345.793	19.3
346.004	20.09
346.214	20.11
346.424	19.06
346.634	18.67
346.844	17.56
347.054	18.49
347.264	17.82
347.474	19.01
347.684	19.39
347.894	17.35
348.104	18.09
348.314	17.26
348.524	17.11
348.734	17.12
348.944	17.51
349.154	19.02
349.364	17.55
349.574	17.53
349.784	16.68
349.994	16.4
350.204	16.64
350.413	16.01
350.623	17.05
350.833	15.87
351.043	15.94
351.253	16.95
351.463	15.26
351.672	15.09
351.882	15.13
352.092	16.04
352.302	16.18
352.511	16.07
352.721	16.08
352.931	15.09
353.141	15.4
353.35	16.03
353.56	15.25
353.77	16.36
353.979	16
354.189	16.06
354.399	16.15
354.608	16.78
354.818	17.02
355.027	16.84
355.237	17.6
355.447	17.08
355.656	16.7
355.866	16.58
356.075	15.82
356.285	16.22
356.494	15.79
356.704	15
356.913	15.04
357.123	14.18
357.332	14.18
357.542	13.64
357.751	14.15
357.96	14.73
358.17	14.65
358.379	14.62
358.589	14.29
358.798	14.07
359.007	13.42
359.217	11.99
359.426	12.47
359.635	12.64
359.845	12.49
360.054	12.31
360.263	12.02
360.472	11.33
360.682	11.45
360.891	11.67
361.1	12.23
361.309	11.53
361.519	11.82
361.728	12.03
361.937	11.65
362.146	12.42
362.355	12.65
362.564	13.03
362.774	13.4
362.983	13.25
363.192	12.97
363.401	13.37
363.61	14.58
363.819	15.65
364.028	15.29
364.237	15.37
364.446	14.91
364.655	14.93
364.864	14.51
365.073	15.18
365.282	15.51
365.491	15.66
365.7	14.7
365.909	14.65
366.118	13.99
366.327	14.11
366.536	14.51
366.745	13.92
366.954	15.25
367.162	15.76
367.371	15.36
367.58	14.82
367.789	15.37
367.998	15.71
368.207	15.54
368.415	15.44
368.624	16.01
368.833	16.59
369.042	17.46
369.25	16.21
369.459	15.71
369.668	15.81
369.877	16.57
370.085	16.8
370.294	16.82
370.503	17.08
370.711	17.29
370.92	16.26
371.129	16.41
371.337	16.29
371.546	16.42
371.754	16.43
371.963	16.34
372.171	16.14
372.38	15.65
372.589	15.88
372.797	15.29
373.006	14.48
373.214	15.3
373.423	14.69
373.631	15.55
373.84	14.86
374.048	14.31
374.256	14.41
374.465	14.29
374.673	13.8
374.882	13.15
375.09	13.28
375.298	14.22
375.507	14.01
375.715	13.51
375.923	11.69
376.132	11.79
376.34	11.91
376.548	11.71
376.757	11.46
376.965	11.64
377.173	11.73
377.381	11.77
377.59	11.62
377.798	11.63
378.006	11.59
378.214	12.6
378.423	12.89
378.631	12.7
378.839	12.31
379.047	12.8
379.255	12.88
379.463	13.03
379.671	13.4
379.879	12.71
380.088	12.4
380.296	12.38
380.504	12.38
380.712	12.07
380.92	12.64
381.128	13.63
381.336	13.29
381.544	13.2
381.752	12.23
381.96	12.33
382.168	12.36
382.376	12.41
382.584	12.48
382.791	12.22
382.999	12.93
383.207	12.64
383.415	11.86
383.623	11.48
383.831	11.07
384.039	11.74
384.247	11.47
384.454	12.24
384.662	12.26
384.87	11.43
385.078	11.41
385.285	11.21
385.493	11.13
385.701	11.41
385.909	11.31
386.116	11.41
386.324	11.82
386.532	11.99
386.739	11.46
386.947	10.88
387.155	12.58
387.362	12.08
387.57	11.67
387.778	12.41
387.985	11.59
388.193	12.37
388.4	12.9
388.608	12.83
388.816	12.42
389.023	11.83
389.231	12.35
389.438	11.79
389.646	12.48
389.853	12.81
390.061	11.89
390.268	12.72
390.475	11.83
390.683	11.25
390.89	11.54
391.098	11.14
391.305	11.93
391.512	11.26
391.72	10.47
391.927	10.58
392.135	10.51
392.342	10.43
392.549	10.02
392.756	10.57
392.964	11.1
393.171	11.23
393.378	11.52
393.586	11.21
393.793	11.46
394	12.14
394.207	11.82
394.414	12.11
394.622	12.5
394.829	12.07
395.036	12.26
395.243	12.27
395.45	12.35
395.657	12.53
395.864	13.08
396.072	13.61
396.279	13.7
396.486	14.02
396.693	14.6
396.9	14.03
397.107	14.91
397.314	14.64
397.521	14.68
397.728	13.63
397.935	12.96
398.142	12.61
398.349	12.47
398.556	11.67
398.763	11.2
398.97	10.42
399.177	10.68
399.383	10.89
399.59	10.88
399.797	10.4
400.004	11.02
400.211	11.46
400.418	11.93
400.625	12.03
400.831	12.63
401.038	12.71
401.245	11.9
401.452	12.46
401.658	12.31
401.865	12.47
402.072	11.79
402.279	11.38
402.485	11.32
402.692	10.7
402.899	10.49
403.105	10.74
403.312	11.35
403.519	11.69
403.725	11.06
403.932	11.19
404.138	10.59
404.345	11.78
404.552	11.68
404.758	12.01
404.965	11.29
405.171	11.67
405.378	11.12
405.584	10.8
405.791	11.49
405.997	11.63
406.204	11.22
406.41	11.72
406.617	10.8
406.823	11.09
407.029	10.89
407.236	11.8
407.442	11.54
407.649	12.05
407.855	11.88
408.061	11.71
408.268	11.47
408.474	12.04
408.68	11.29
408.887	12.21
409.093	12.2
409.299	12.25
409.505	12.15
409.712	11.95
409.918	12.1
410.124	11.65
410.33	10.85
410.537	10.98
410.743	10.37
410.949	11.14
411.155	10.6
411.361	10.82
411.567	10.55
411.773	10.56
411.98	10.81
412.186	10.18
412.392	10.58
412.598	10.43
412.804	10.16
413.01	10.38
413.216	10.52
413.422	10.89
413.628	10.52
413.834	10.26
414.04	10.58
414.246	10.47
414.452	10.99
414.658	11.03
414.864	11.51
415.07	12.46
415.275	12.4
415.481	11.89
415.687	11.73
415.893	11.15
416.099	11.49
416.305	11.5
416.511	10.9
416.716	10.12
416.922	9.83
417.128	9.51
417.334	9.25
417.539	8.71
417.745	9.01
417.951	8.4
418.157	8.8
418.362	8.39
418.568	7.65
418.774	7.7
418.979	7.87
419.185	7.91
419.391	8.04
419.596	7.72
419.802	7.95
420.008	7.4
420.213	9.72
420.419	9.74
420.624	9.88
420.83	10.11
421.035	10.16
421.241	10.12
421.446	10.29
421.652	10.22
421.857	9.92
422.063	9.95
422.268	10.33
422.474	8.36
422.679	8.21
422.885	8.14
423.09	8.02
423.295	8
423.501	8
423.706	7.75
423.911	7.81
424.117	7.92
424.322	7.8
424.527	7.56
424.733	7.74
424.938	7.73
425.143	7.73
425.349	7.72
425.554	7.83
425.759	7.74
425.964	7.63
426.169	7.49
426.375	7.77
426.58	7.66
426.785	7.8
426.99	7.47
427.195	7.29
427.4	7.26
427.605	7.84
427.811	7.24
428.016	7.53
428.221	8.02
428.426	8.11
428.631	8.24
428.836	8.53
429.041	8.55
429.246	8.86
429.451	9.43
429.656	9.28
429.861	8.75
430.066	9.35
430.271	9.27
430.476	8.82
430.681	8.9
430.886	8.77
431.09	8.41
431.295	8.47
431.5	7.94
431.705	7.51
431.91	7.23
432.115	7.26
432.32	7.18
432.524	7.29
432.729	7
432.934	6.64
433.139	6.44
433.343	6.69
433.548	6.52
433.753	6.65
433.958	6.98
434.162	7.52
434.367	7.52
434.572	7.55
434.776	7.55
434.981	8.3
435.186	8.46
435.39	8.7
435.595	8.98
435.799	8.96
436.004	9.01
436.209	8.78
436.413	8.57
436.618	8.72
436.822	8.94
437.027	8.48
437.231	7.77
437.436	7.89
437.64	7.69
437.845	7.35
438.049	7.26
438.253	7.21
438.458	6.98
438.662	7.28
438.867	7.01
439.071	6.87
439.275	6.99
439.48	7.34
439.684	7.3
439.888	7.28
440.093	7.55
440.297	7.56
440.501	7.52
440.706	7.57
440.91	7.49
441.114	7.56
441.318	8
441.523	8.13
441.727	8.03
441.931	8.03
442.135	7.91
442.339	7.78
442.543	8.04
442.748	8.35
442.952	8.59
443.156	8.39
443.36	8.38
443.564	8.04
443.768	7.59
443.972	7.89
444.176	7.79
444.38	7.89
444.584	7.83
444.788	7.2
444.992	6.81
445.196	6.8
445.4	6.94
445.604	6.84
445.808	6.81
446.012	7.21
446.216	7.01
446.42	7.05
446.624	7.27
446.828	7.16
447.032	7.46
447.235	7.76
447.439	7.59
447.643	7.42
447.847	7.74
448.051	7.68
448.254	7.57
448.458	7.36
448.662	7.43
448.866	7.49
449.069	7.84
449.273	7.88
449.477	7.82
449.681	7.83
449.884	8.01
450.088	8.06
450.292	8.04
450.495	8.09
450.699	8.27
450.902	8.13
451.106	8.01
451.31	7.92
451.513	8.17
451.717	8.28
451.92	8.33
452.124	8.07
452.327	7.8
452.531	7.89
452.734	7.92
452.938	7.98
453.141	7.99
453.345	8.05
453.548	7.8
453.752	7.94
453.955	7.94
454.158	7.94
454.362	8.28
454.565	8.51
454.769	8.55
454.972	8.94
455.175	9.02
455.379	9.25
455.582	8.81
455.785	8.9
455.988	8.43
456.192	8.03
456.395	8.19
456.598	8.09
456.801	8.03
457.005	8.03
457.208	7.74
457.411	7.7
457.614	7.53
457.817	7.89
458.021	7.96
458.224	7.83
458.427	7.97
458.63	8.12
458.833	7.85
459.036	7.63
459.239	7.45
459.442	7.32
459.645	7.29
459.848	7.36
460.051	7.19
460.254	7.14
460.457	7.27
460.66	7.3
460.863	6.9
461.066	6.81
461.269	7.01
461.472	6.96
461.675	7.22
461.878	7.24
462.081	7.28
462.284	7.32
462.486	7.34
462.689	7.64
462.892	7.72
463.095	8.2
463.298	8.67
463.5	8.81
463.703	8.88
463.906	8.66
464.109	8.82
464.311	8.87
464.514	9.21
464.717	9.16
464.92	8.91
465.122	8.85
465.325	8.79
465.528	8.61
465.73	8.18
465.933	7.97
466.135	8.11
466.338	7.85
466.541	7.6
466.743	7.16
466.946	7.05
467.148	7.27
467.351	7.08
467.553	6.89
467.756	7.3
467.958	7.42
468.161	7.85
468.363	7.49
468.566	7.63
468.768	7.59
468.971	8.14
469.173	8.15
469.375	7.84
469.578	8.02
469.78	8.06
469.983	7.79
470.185	8.23
470.387	8.41
470.59	8.38
470.792	8.05
470.994	8.02
471.196	7.36
471.399	7.6
471.601	7.73
471.803	7.37
472.005	7.37
472.208	7.42
472.41	7.07
472.612	6.8
472.814	7.01
473.016	7.09
473.218	7.01
473.421	7.42
473.623	7.27
473.825	7.35
474.027	7.78
474.229	7.72
474.431	7.58
474.633	7.67
474.835	7.98
475.037	7.97
475.239	8.38
475.441	8.96
475.643	8.96
475.845	8.73
476.047	8.86
476.249	8.69
476.451	8.5
476.653	8.36
476.855	8.33
477.057	8.08
477.258	8.08
477.46	7.94
477.662	7.87
477.864	7.74
478.066	7.92
478.268	7.71
478.469	7.59
478.671	7.88
478.873	7.97
479.075	7.57
479.276	7.2
479.478	7.12
479.68	6.74
479.882	6.51
480.083	6.32
480.285	6.2
480.487	6.37
480.688	6.6
480.89	6.35
481.091	6.34
481.293	6.41
481.495	6.57
481.696	6.52
481.898	6.54
482.099	6.35
482.301	6.28
482.502	6.16
482.704	5.92
482.905	5.76
483.107	5.69
483.308	5.61
483.51	5.59
483.711	5.5
483.913	5.35
484.114	5.37
484.315	5.39
484.517	5.34
484.718	5.36
484.92	5.35
485.121	5.29
485.322	5.33
485.524	5.33
485.725	5.38
485.926	5.37
486.127	5.48
486.329	5.44
486.53	5.43
486.731	5.46
486.932	5.49
487.134	5.58
487.335	5.62
487.536	5.6
487.737	5.71
487.938	5.7
488.139	5.72
488.341	5.69
488.542	5.74
488.743	5.82
488.944	5.95
489.145	5.95
489.346	6.02
489.547	5.99
489.748	5.99
489.949	5.91
490.15	5.97
490.351	5.82
490.552	6.08
490.753	6.16
490.954	6.08
491.155	6.03
491.356	6.09
491.557	6.09
491.758	6.2
491.959	6.25
492.159	6.35
492.36	6.36
492.561	6.62
492.762	6.41
492.963	6.29
493.164	6.26
493.364	6.15
493.565	6.12
493.766	6.07
493.967	6.04
494.167	6.01
494.368	5.88
494.569	5.89
494.769	6.02
494.97	6.46
495.171	6.64
495.371	7.05
495.572	7.48
495.773	7.54
495.973	7.45
496.174	7.44
496.375	7.68
496.575	7.76
496.776	7.47
496.976	7.21
497.177	6.91
497.377	6.98
497.578	6.73
497.778	6.55
497.979	6.61
498.179	6.73
498.38	6.86
498.58	6.74
498.78	6.6
498.981	6.72
499.181	7
499.382	7.14
499.582	7.01
499.782	7.03
499.983	7.14
500.183	7.06
500.383	6.89
500.584	6.56
500.784	6.59
500.984	6.69
501.184	6.84
501.385	6.77
501.585	6.51
501.785	6.75
501.985	6.97
502.185	7.12
502.386	7.1
502.586	7.23
502.786	7.43
502.986	7.52
503.186	7.66
503.386	7.6
503.586	7.46
503.786	7.8
503.987	7.56
504.187	7.41
504.387	7.35
504.587	7.37
504.787	7.4
504.987	7.64
505.187	7.49
505.387	7.36
505.587	7.37
505.786	7.44
505.986	7.48
506.186	7.67
506.386	7.81
506.586	7.6
506.786	7.52
506.986	7.47
507.186	7.37
507.386	7.21
507.585	7.41
507.785	7.44
507.985	7.41
508.185	7.27
508.384	7.26
508.584	7.3
508.784	7.54
508.984	7.39
509.183	7.45
509.383	7.52
509.583	7.62
509.782	7.6
509.982	7.84
510.182	8
510.381	8.16
510.581	8.28
510.781	8.14
510.98	7.93
511.18	8.27
511.379	8.26
511.579	8.02
511.778	8.06
511.978	7.97
512.177	7.82
512.377	7.69
512.576	7.66
512.776	7.56
512.975	7.77
513.175	7.86
513.374	7.94
513.573	7.91
513.773	8.21
513.972	8.28
514.172	8.31
514.371	8.54
514.57	8.6
514.77	8.35
514.969	8.37
515.168	8.17
515.367	8.26
515.567	8.14
515.766	8.19
515.965	8.01
516.164	8.02
516.364	8.04
516.563	7.95
516.762	7.77
516.961	8.17
517.16	8.29
517.359	8.42
517.559	8.4
517.758	8.41
517.957	8.45
518.156	8.52
518.355	8.52
518.554	8.59
518.753	8.49
518.952	8.56
519.151	8.42
519.35	8.41
519.549	8.22
519.748	8.25
519.947	8.14
520.146	8.18
520.345	8.07
520.544	8.09
520.743	8.04
520.942	8.2
521.141	8.29
521.339	8.38
521.538	8.26
521.737	8.19
521.936	8.25
522.135	8.18
522.333	8.36
522.532	8.56
522.731	8.61
522.93	8.43
523.129	8.24
523.327	8.42
523.526	8.34
523.725	8.46
523.923	8.9
524.122	8.67
524.321	8.81
524.519	8.76
524.718	8.8
524.917	8.72
525.115	8.83
525.314	8.99
525.512	8.89
525.711	8.89
525.909	8.73
526.108	8.32
526.306	8.42
526.505	8.44
526.703	8.34
526.902	8.17
527.1	8.18
527.299	8.11
527.497	7.95
527.696	7.86
527.894	7.83
528.092	7.84
528.291	7.99
528.489	7.99
528.688	7.9
528.886	7.77
529.084	7.79
529.283	7.78
529.481	7.75
529.679	7.81
529.877	7.86
530.076	7.83
530.274	7.9
530.472	7.84
530.67	7.81
530.869	8.14
531.067	8.41
531.265	8.56
531.463	8.66
531.661	8.81
531.859	8.72
532.057	8.79
532.255	8.91
532.454	8.74
532.652	8.86
532.85	8.81
533.048	8.65
533.246	8.58
533.444	8.57
533.642	8.53
533.84	8.53
534.038	8.55
534.236	8.59
534.434	8.61
534.632	8.76
534.83	8.91
535.027	9.06
535.225	9
535.423	9.19
535.621	9.15
535.819	9.2
536.017	9.13
536.215	9.31
536.412	9.25
536.61	9.4
536.808	9.52
537.006	9.45
537.203	9.56
537.401	9.58
537.599	9.54
537.797	9.61
537.994	9.55
538.192	9.81
538.39	9.72
538.587	9.69
538.785	9.69
538.983	9.72
539.18	9.87
539.378	9.77
539.575	9.87
539.773	9.87
539.97	9.87
540.168	10
540.366	9.75
540.563	9.88
540.761	9.91
540.958	9.87
541.155	9.84
541.353	9.76
541.55	9.77
541.748	9.98
541.945	10.05
542.143	10.13
542.34	10.1
542.537	10.26
542.735	10.27
542.932	10.37
543.129	10.41
543.327	10.4
543.524	10.5
543.721	10.63
543.919	10.42
544.116	10.6
544.313	10.65
544.51	10.69
544.708	10.85
544.905	10.91
545.102	11.21
545.299	11.24
545.496	11.22
545.693	11.15
545.891	11.15
546.088	11.41
546.285	11.23
546.482	11.34
546.679	11.33
546.876	11.4
547.073	11.48
547.27	11.3
547.467	11.45
547.664	11.68
547.861	11.79
548.058	11.88
548.255	11.91
548.452	12.29
548.649	12.38
548.846	12.76
549.043	12.88
549.24	13.04
549.437	13.14
549.633	13.15
549.83	13.24
550.027	13.49
550.224	13.52
550.421	13.71
550.618	13.46
550.814	13.31
551.011	13.53
551.208	13.41
551.405	13.51
551.601	13.6
551.798	13.68
551.995	13.47
552.191	13.38
552.388	13.61
552.585	13.54
552.781	13.7
552.978	14.03
553.175	13.34
553.371	13.57
553.568	13.55
553.764	13.65
553.961	13.63
554.157	13.87
554.354	14.09
554.55	14.1
554.747	14.04
554.943	13.92
555.14	13.81
555.336	14.51
555.533	14.79
555.729	15.01
555.926	15.37
556.122	15.36
556.318	15.96
556.515	16.15
556.711	16.15
556.907	16
557.104	16.41
557.3	16.68
557.496	16.51
557.693	16.3
557.889	16.26
558.085	16.57
558.281	17.13
558.478	16.62
558.674	16.6
558.87	16.42
559.066	16.94
559.262	16.62
559.459	16.17
559.655	16.51
559.851	17.33
560.047	17.03
560.243	16.44
560.439	16.31
560.635	16.26
560.831	16.51
561.027	16.68
561.223	16.83
561.419	17.36
561.615	17.82
561.811	17.52
562.007	16.98
562.203	17.22
562.399	17.12
562.595	17.19
562.791	17.66
562.987	17.48
563.183	17.96
563.379	18.08
563.575	18.15
563.771	18.02
563.966	18.22
564.162	17.99
564.358	18.09
564.554	18.67
564.75	18.56
564.945	18.48
565.141	18.45
565.337	18.13
565.533	18.08
565.728	17.69
565.924	17.94
566.12	18.16
566.315	18.17
566.511	18.26
566.707	18.17
566.902	18.28
567.098	18.33
567.293	18.4
567.489	18.26
567.684	17.97
567.88	18.38
568.076	18.31
568.271	18.13
568.467	18.13
568.662	18.05
568.858	18.06
569.053	18.19
569.248	18.22
569.444	18.32
569.639	18.83
569.835	18.95
570.03	18.5
570.225	18.88
570.421	19.08
570.616	19.13
570.812	19.28
571.007	18.94
571.202	18.63
571.397	18.62
571.593	18.97
571.788	18.69
571.983	18.75
572.178	19.41
572.374	19.43
572.569	19.48
572.764	19.61
572.959	19.8
573.154	20.14
573.35	20.58
573.545	20.89
573.74	20.56
573.935	21.02
574.13	21.09
574.325	20.88
574.52	20.61
574.715	20.98
574.91	20.9
575.105	20.87
575.3	21.2
575.495	21.14
575.69	20.91
575.885	21.3
576.08	21.32
576.275	21.79
576.47	21.99
576.665	22.27
576.86	22.1
577.055	22.6
577.25	22.58
577.444	22.22
577.639	22.27
577.834	22.31
578.029	22.4
578.224	22.22
578.418	22.08
578.613	21.97
578.808	21.96
579.003	22.14
579.197	22.32
579.392	22.65
579.587	22.99
579.781	23.18
579.976	23.7
580.171	24
580.365	24.22
580.56	24.18
580.755	24.48
580.949	24.55
581.144	24.55
581.338	24.56
581.533	24.61
581.727	24.87
581.922	24.48
582.116	24.5
582.311	23.6
582.505	23.7
582.7	23.58
582.894	23.54
583.089	23.71
583.283	23.83
583.478	24.09
583.672	24.32
583.866	24.5
584.061	25.05
584.255	25.14
584.449	25.66
584.644	25.85
584.838	26.47
585.032	26.49
585.226	26.64
585.421	26.59
585.615	26.15
585.809	25.67
586.003	25.48
586.198	25.47
586.392	25.82
586.586	26
586.78	26
586.974	25.82
587.168	25.16
587.363	25.03
587.557	25.04
587.751	25.29
587.945	25.52
588.139	25.31
588.333	25.31
588.527	24.57
588.721	24.62
588.915	24.68
589.109	24.4
589.303	25.09
589.497	24.92
589.691	24.95
589.885	24.53
590.079	24.27
590.273	24.25
590.466	24.62
590.66	25.19
590.854	25.11
591.048	24.73
591.242	24.84
591.436	24.93
591.629	24.94
591.823	24.72
592.017	24.93
592.211	25.32
592.404	25.53
592.598	24.95
592.792	24.61
592.986	24.76
593.179	24.85
593.373	24.87
593.567	24.68
593.76	24.95
593.954	25.16
594.147	25.14
594.341	25.21
594.535	25.17
594.728	25.14
594.922	24.89
595.115	24.94
595.309	25.1
595.502	25.2
595.696	25.09
595.889	24.87
596.083	24.57
596.276	24.79
596.47	24.92
596.663	24.85
596.856	25.06
597.05	25.26
597.243	25.05
597.437	25.24
597.63	25.35
597.823	25.63
598.017	25.93
598.21	26.02
598.403	26.47
598.596	26.51
598.79	26.61
598.983	26.58
599.176	26.7
599.369	27.04
599.563	27.15
599.756	26.99
599.949	27.5
600.142	27.53
600.335	28.04
600.528	27.63
600.722	27.44
600.915	27.71
601.108	27.96
601.301	27.69
601.494	27.25
601.687	27.29
601.88	27.35
602.073	26.95
602.266	26.69
602.459	26.51
602.652	26.64
602.845	26.52
603.038	26.55
603.231	26.43
603.424	26.72
603.617	26.88
603.809	26.37
604.002	26.33
604.195	26.19
604.388	26.35
604.581	26.53
604.774	26.64
604.966	26.58
605.159	26.36
605.352	26.15
605.545	26.39
605.737	26.43
605.93	26.83
606.123	27.15
606.316	27.1
606.508	26.93
606.701	27.08
606.894	26.95
607.086	27.05
607.279	27.33
607.471	27.76
607.664	27.78
607.857	27.9
608.049	27.71
608.242	27.47
608.434	27.98
608.627	28.21
608.819	27.71
609.012	27.84
609.204	28.08
609.397	28.08
609.589	28.28
609.782	27.96
609.974	27.85
610.166	28.16
610.359	28.05
610.551	27.9
610.743	28.14
610.936	29.04
611.128	28.72
611.32	28.97
611.513	28.95
611.705	28.76
611.897	29.22
612.09	29.35
612.282	29.4
612.474	29.56
612.666	29.76
612.858	29.86
613.051	29.88
613.243	30.41
613.435	30.03
613.627	30.21
613.819	30.36
614.011	31.05
614.203	31.52
614.395	31.43
614.588	31.9
614.78	32.46
614.972	32.7
615.164	32.25
615.356	32.27
615.548	32.37
615.74	32.71
615.932	32.69
616.124	31.58
616.315	31.58
616.507	31.95
616.699	31.86
616.891	31.24
617.083	30.34
617.275	30.83
617.467	30.63
617.659	30.77
617.85	30.61
618.042	30.92
618.234	31.48
618.426	30.59
618.618	30.03
618.809	30.23
619.001	30.35
619.193	31.1
619.384	30.94
619.576	31.31
619.768	31.31
619.959	30.61
620.151	29.87
620.343	29.72
620.534	29.97
620.726	29.85
620.917	29.53
621.109	29.73
621.301	29.64
621.492	29.12
621.684	29.63
621.875	29.92
622.067	30.95
622.258	30.87
622.45	30.52
622.641	30.83
622.832	30.85
623.024	30.53
623.215	29.93
623.407	29.96
623.598	30.35
623.789	29.29
623.981	29.41
624.172	28.69
624.363	28.69
624.555	28.66
624.746	28.62
624.937	28.76
625.129	29.72
625.32	29.71
625.511	30.03
625.702	29.91
625.893	30.42
626.085	29.92
626.276	30.28
626.467	30.44
626.658	30.67
626.849	30.75
627.04	30.97
627.231	30.28
627.422	30.59
627.614	30.48
627.805	30.78
627.996	30.68
628.187	30.21
628.378	30.18
628.569	30.61
628.76	31.14
628.951	31.48
629.142	31.86
629.332	32
629.523	31.48
629.714	31.47
629.905	31.29
630.096	31.38
630.287	32.67
630.478	32.76
630.669	33.03
630.859	32.24
631.05	32.23
631.241	32.15
631.432	32.53
631.623	32.87
631.813	32.8
632.004	31.98
632.195	31.44
632.385	31.18
632.576	31.03
632.767	30.85
632.957	31.02
633.148	30.9
633.339	30.49
633.529	30.43
633.72	30.87
633.91	31.28
634.101	31.8
634.292	32.09
634.482	32.26
634.673	32.71
634.863	32.9
635.054	33.24
635.244	33.3
635.435	33.7
635.625	34.01
635.815	33.74
636.006	33.4
636.196	33.69
636.387	34.04
636.577	33.83
636.767	33.48
636.958	33.06
637.148	32.8
637.338	32.67
637.529	32.32
637.719	32.18
637.909	32.15
638.099	32.89
638.29	32.71
638.48	33.07
638.67	33.17
638.86	33.54
639.05	33.51
639.241	33.64
639.431	33.3
639.621	33.71
639.811	34.18
640.001	34.73
640.191	34.17
640.381	34.28
640.571	33.25
640.761	32.88
640.951	32.52
641.141	33.23
641.331	33.11
641.521	34.24
641.711	34.98
641.901	33.93
642.091	33.68
642.281	33.94
642.471	34.3
642.661	34.77
642.851	34.73
643.041	35.07
643.231	34.85
643.42	35.59
643.61	35.5
643.8	34.79
643.99	34.44
644.18	34.82
644.369	34.33
644.559	33.99
644.749	34.58
644.939	35
645.128	35.03
645.318	34.38
645.508	34.28
645.697	34.07
645.887	33.57
646.076	34.25
646.266	33.81
646.456	33.26
646.645	33.69
646.835	33.22
647.024	33.21
647.214	33.21
647.403	33.74
647.593	33.53
647.782	33.08
647.972	33
648.161	32.87
648.351	32.86
648.54	33.51
648.73	33.46
648.919	33.07
649.108	32.72
649.298	32.67
649.487	32.66
649.677	32.54
649.866	32.43
650.055	32.53
650.244	32.98
650.434	32.22
650.623	32.33
650.812	32.6
651.002	33.77
651.191	34.15
651.38	34.48
651.569	34.35
651.758	34.88
651.947	35.38
652.137	35.79
652.326	35.52
652.515	36.14
652.704	36.89
652.893	36.59
653.082	35.69
653.271	35.93
653.46	35.94
653.649	35.93
653.838	34.8
654.027	34.62
654.216	34.93
654.405	35.26
654.594	35.58
654.783	34.44
654.972	34.13
655.161	34.35
655.35	33.73
655.539	33.57
655.728	33.97
655.916	33.77
656.105	34.17
656.294	33.14
656.483	32.79
656.672	32.65
656.86	32.69
657.049	33.06
657.238	32.58
657.427	33.2
657.615	32.44
657.804	32.05
657.993	32.21
658.181	31.58
658.37	32.64
658.559	32.51
658.747	32.13
658.936	32.27
659.125	32.64
659.313	33.35
659.502	33.21
659.69	33.68
659.879	33.84
660.067	34.69
660.256	34.95
660.444	35.07
660.633	35.21
660.821	35.88
661.01	35.92
661.198	35.58
661.387	35.43
661.575	35.11
661.763	34.69
661.952	34.9
662.14	34.62
662.328	34.97
662.517	33.96
662.705	33.69
662.893	33.33
663.082	33.73
663.27	33.06
663.458	32.71
663.646	32.85
663.834	33.33
664.023	33.6
664.211	34.04
664.399	33.74
664.587	33.59
664.775	33.73
664.963	34.3
665.152	33.54
665.34	34.27
665.528	33.86
665.716	34.1
665.904	34.19
666.092	33.63
666.28	33.19
666.468	33.02
666.656	33.78
666.844	34.61
667.032	34.75
667.22	35.22
667.408	35.63
667.596	35.65
667.784	36.6
667.971	36.84
668.159	37.35
668.347	37.37
668.535	37.99
668.723	37.94
668.911	37.6
669.098	36.92
669.286	36.66
669.474	36.23
669.662	36.68
669.849	36.56
670.037	36.64
670.225	36.18
670.413	36.13
670.6	36.43
670.788	36.22
670.976	36.29
671.163	37
671.351	37.31
671.538	37.24
671.726	38.26
671.913	38.02
672.101	37.73
672.289	38.22
672.476	37.81
672.664	37.47
672.851	38.01
673.039	38
673.226	38.13
673.413	38.32
673.601	38.59
673.788	37.91
673.976	37.21
674.163	37.75
674.35	37.27
674.538	37.9
674.725	37.4
674.912	37.1
675.1	37.04
675.287	36.71
675.474	37.01
675.662	36.81
675.849	37.06
676.036	36.91
676.223	36.64
676.411	37.01
676.598	36.82
676.785	37.45
676.972	37.69
677.159	37.91
677.346	38.22
677.533	38.18
677.721	38.44
677.908	38.33
678.095	38.99
678.282	39.17
678.469	39.13
678.656	38.3
678.843	38.2
679.03	37.99
679.217	38.24
679.404	38.25
679.591	38.38
679.778	38.86
679.964	38.89
680.151	38.72
680.338	38.24
680.525	38.18
680.712	39.24
680.899	38.65
681.086	38.71
681.272	38.37
681.459	38.05
681.646	37.97
681.833	37.48
682.02	37.94
682.206	37.73
682.393	38.33
682.58	38.44
682.766	37.71
682.953	38.49
683.14	38.03
683.326	39.21
683.513	39.59
683.7	39.68
683.886	39.34
684.073	38.54
684.259	38.84
684.446	38.94
684.632	38.9
684.819	39.76
685.005	40.23
685.192	40.75
685.378	39.85
685.565	39.8
685.751	38.82
685.938	38.72
686.124	38.04
686.31	37.8
686.497	37.68
686.683	37.18
686.87	37.06
687.056	36.55
687.242	37.08
687.429	37.08
687.615	36.94
687.801	37.72
687.987	38.1
688.174	39.65
688.36	40.36
688.546	40.07
688.732	40.78
688.918	41.36
689.105	41.56
689.291	41.04
689.477	41.47
689.663	42.4
689.849	42.84
690.035	43.51
690.221	42.92
690.407	42.92
690.593	42.59
690.779	42.18
690.965	40.87
691.151	40.97
691.337	40.92
691.523	40.27
691.709	39.31
691.895	39.04
692.081	38.57
692.267	38.68
692.453	38.16
692.639	39.12
692.825	40.37
693.011	41.03
693.196	41.28
693.382	41.03
693.568	41.68
693.754	41.38
693.94	41.41
694.125	41.8
694.311	40.88
694.497	40.69
694.682	40.22
694.868	39.33
695.054	39.93
695.239	39.55
695.425	40.11
695.611	39.42
695.796	39.75
695.982	39.55
696.168	38.51
696.353	39.61
696.539	39.93
696.724	39.93
696.91	40.1
697.095	40.2
697.281	39.19
697.466	39.28
697.652	38.65
697.837	38.41
698.023	38.34
698.208	37.79
698.393	37.24
698.579	36.85
698.764	36.67
698.949	36.43
699.135	36.29
699.32	36.65
699.505	36.7
699.691	36.79
699.876	36.4
700.061	36.26
700.246	37.26
700.432	37.33
700.617	38.02
700.802	37.97
700.987	38.42
701.172	38.22
701.358	39.04
701.543	38.75
701.728	40.23
701.913	41.62
702.098	42.23
702.283	43.05
702.468	43.76
702.653	44.79
702.838	46.34
703.023	46.1
703.208	46.05
703.393	45.25
703.578	45.84
703.763	46.7
703.948	46.06
704.133	46.37
704.318	46.71
704.503	46.4
704.688	44.42
704.873	43.59
705.057	44.76
705.242	44.8
705.427	45.52
705.612	45.34
705.797	45.65
705.981	46.53
706.166	45.34
706.351	44.04
706.536	44.94
706.72	45.23
706.905	46.34
707.09	45.84
707.274	46.14
707.459	46.93
707.644	46.85
707.828	45.24
708.013	43.64
708.197	44.54
708.382	45.76
708.567	45.48
708.751	44.64
708.936	44.3
709.12	43.63
709.305	43.58
709.489	42.94
709.673	42.63
709.858	44.08
710.042	44.95
710.227	44.09
710.411	44.21
710.596	44.17
710.78	44.62
710.964	43.16
711.149	43.53
711.333	42.83
711.517	42.35
711.702	42.46
711.886	41.19
712.07	41.14
712.254	43.07
712.438	42.44
712.623	42.46
712.807	42.72
712.991	42.4
713.175	42.32
713.359	43.78
713.544	42.94
713.728	43.09
713.912	43.51
714.096	44.68
714.28	42.78
714.464	43.65
714.648	43.14
714.832	44.59
715.016	44.61
715.2	45.62
715.384	44.82
715.568	45.99
715.752	45.52
715.936	44.66
716.12	43.91
716.304	44.38
716.488	42.75
716.671	43.2
716.855	42.11
717.039	42.86
717.223	41.65
717.407	41.8
717.59	42.83
717.774	43.56
717.958	45
718.142	45.91
718.325	46.38
718.509	47.27
718.693	48.06
718.877	49.54
719.06	49.88
719.244	50.35
719.428	51.26
719.611	50.44
719.795	49.83
719.978	49.89
720.162	48.41
720.345	48.03
720.529	49.01
720.713	49.15
720.896	46.85
721.08	47.88
721.263	48.48
721.446	48.31
721.63	50.44
721.813	49.37
721.997	49.88
722.18	51.22
722.364	52.4
722.547	52.06
722.73	51.04
722.914	53.22
723.097	53.55
723.28	55.07
723.464	56.3
723.647	54.32
723.83	57.08
724.013	56.13
724.197	55.77
724.38	55.45
724.563	54.53
724.746	55.05
724.929	54.01
725.112	53.43
725.296	50.77
725.479	49.52
725.662	48.89
725.845	47.95
726.028	48.92
726.211	48.46
726.394	48.04
726.577	47.53
726.76	46.95
726.943	46.78
727.126	46.93
727.309	45.86
727.492	46.36
727.675	47.2
727.858	47.1
728.041	47.66
728.224	47.02
728.407	47.18
728.589	46.63
728.772	45.66
728.955	44.94
729.138	45.27
729.321	46.4
729.503	45.36
729.686	43.91
729.869	44.41
730.052	42.32
730.234	43.63
730.417	43.04
730.6	44.7
730.782	44.78
730.965	44.89
731.148	42.93
731.33	42.27
731.513	42.4
731.695	43.19
731.878	42.25
732.061	41.66
732.243	40.14
732.426	39.51
732.608	39.16
732.791	39.87
732.973	40.22
733.156	42.49
733.338	45.09
733.52	45.62
733.703	45.47
733.885	45.56
734.068	46.13
734.25	45.2
734.432	47.94
734.615	46.99
734.797	46.84
734.979	48.59
735.162	46.67
735.344	44.73
735.526	44.36
735.708	44.62
735.891	43.76
736.073	44.39
736.255	47.28
736.437	45.3
736.619	46.22
736.802	45.64
736.984	44.99
737.166	45.34
737.348	46.3
737.53	47.69
737.712	47.95
737.894	48.18
738.076	48.61
738.258	48.05
738.44	48.02
738.622	49.14
738.804	51.78
738.986	49.43
739.168	50.14
739.35	49.67
739.532	48.36
739.714	48.99
739.896	49.52
740.078	50.46
740.259	49.67
740.441	51.69
740.623	50.48
740.805	49.34
740.987	50.36
741.168	50.35
741.35	51.2
741.532	52.3
741.714	51.73
741.895	52.7
742.077	50.37
742.259	50.28
742.44	49.11
742.622	48.15
742.804	48.01
742.985	48.06
743.167	49.12
743.348	49.65
743.53	50.14
743.711	50.67
743.893	52.51
744.075	54.84
744.256	56.34
744.438	55.2
744.619	59.48
744.8	59.65
744.982	61.94
745.163	64.28
745.345	62.86
745.526	61.57
745.707	61.77
745.889	60.08
746.07	59.58
746.252	58.48
746.433	58.8
746.614	56.9
746.795	55.51
746.977	57.74
747.158	55.13
747.339	51.85
747.52	50.98
747.702	51.02
747.883	49.6
748.064	49.76
748.245	50.64
748.426	50.42
748.607	50.47
748.788	51.82
748.97	48.33
749.151	48.13
749.332	52.8
749.513	53.01
749.694	52.83
749.875	56.67
750.056	56.3
750.237	57.31
750.418	59.06
750.599	58.57
750.78	57.81
750.96	59.18
751.141	58.34
751.322	58.47
751.503	57.44
751.684	58.41
751.865	53.82
752.046	54.03
752.226	53.14
752.407	52.67
752.588	52.52
752.769	55.16
752.949	54.42
753.13	55.77
753.311	54.35
753.492	55.49
753.672	54.96
753.853	59.69
754.034	58.88
754.214	59.33
754.395	58.02
754.575	57.65
754.756	56.75
754.937	58.61
755.117	57.71
755.298	57.66
755.478	59.98
755.659	60.57
755.839	58.73
756.02	60.41
756.2	60.2
756.381	62.18
756.561	62.58
756.741	61.61
756.922	58.53
757.102	61.87
757.283	61.84
757.463	59.56
757.643	58.58
757.823	55.63
758.004	55.73
758.184	57.21
758.364	57.4
758.545	59.52
758.725	58.64
758.905	60.25
759.085	57.74
759.265	57.83
759.446	56.33
759.626	54.91
759.806	54.28
759.986	53.93
760.166	52.98
760.346	52.49
760.526	48.7
760.706	49.68
760.886	48
761.066	47.45
761.246	45.48
761.426	47.08
761.606	46.44
761.786	47.04
761.966	47.75
762.146	47.38
762.326	47.81
762.506	48.62
762.686	48
762.866	48.8
763.046	48.9
763.225	49.08
763.405	48.88
763.585	48.89
763.765	49.08
763.945	46.72
764.124	47.26
764.304	48
764.484	48.65
764.664	48.27
764.843	48.23
765.023	49.64
765.203	50.5
765.382	49.68
765.562	48.67
765.741	49.87
765.921	53.01
766.101	52.86
766.28	50.35
766.46	50.36
766.639	50.66
766.819	50.45
766.998	50.23
767.178	48.65
767.357	50.08
767.537	55.5
767.716	54.29
767.896	53.95
768.075	52.87
768.254	54.45
768.434	54.32
768.613	59.82
768.792	60.04
768.972	58.98
769.151	64
769.33	64.9
769.51	60.97
769.689	62.59
769.868	61.03
770.047	61.63
770.226	58.93
770.406	57.06
770.585	50.66
770.764	49
770.943	49.32
771.122	46.41
771.301	46.37
771.48	48.67
771.66	51.81
771.839	55.59
772.018	57.52
772.197	61.76
772.376	65.91
772.555	66.55
772.734	66.66
772.913	67
773.092	69.24
773.271	69.95
773.449	68.58
773.628	64.83
773.807	61.89
773.986	60.49
774.165	59.57
774.344	59.71
774.523	59.72
774.701	64.22
774.88	62.97
775.059	61.76
775.238	61.47
775.417	63.16
775.595	63.15
775.774	62.43
775.953	63.41
776.131	62.62
776.31	59.37
776.489	59.48
776.667	57.26
776.846	54.93
777.025	55.11
777.203	55.87
777.382	56.58
777.56	57.22
777.739	60.07
777.917	59.89
778.096	60.2
778.274	63.53
778.453	64.94
778.631	65.58
778.81	68.93
778.988	69.5
779.166	67.58
779.345	66.38
779.523	67.65
779.702	68.03
779.88	67.09
780.058	66.56
780.237	65.44
780.415	65.75
780.593	62.95
780.771	66.26
780.95	68.42
781.128	70.09
781.306	69.59
781.484	68.96
781.662	68.86
781.841	70.64
782.019	70.29
782.197	67.84
782.375	67.83
782.553	67.45
782.731	66.29
782.909	62.21
783.087	63.51
783.265	64.53
783.443	63.42
783.621	65.53
783.799	62.76
783.977	65
784.155	67.8
784.333	67.21
784.511	71.8
784.689	70.16
784.867	74.16
785.045	72.61
785.223	73.8
785.4	77.51
785.578	71.7
785.756	71.14
785.934	72.41
786.112	74.57
786.289	71.01
786.467	71.01
786.645	70.3
786.823	68.98
787	70.89
787.178	69.56
787.356	65.33
787.533	67.9
787.711	68.34
787.889	66.57
788.066	64.38
788.244	68.27
788.421	68.56
788.599	72.3
788.776	74.63
788.954	72.66
789.131	72.93
789.309	74.11
789.486	77.62
789.664	78.79
789.841	81.4
790.019	81.13
790.196	83.67
790.373	81.56
790.551	75.93
790.728	79
790.906	78
791.083	79.2
791.26	81.94
791.437	72.97
791.615	76.76
791.792	74.08
791.969	76.91
792.146	76.87
792.324	78.78
792.501	83.86
792.678	78.37
792.855	76.64
793.032	77.66
793.209	78.97
793.387	81.75
793.564	77.66
793.741	78.61
793.918	77.67
794.095	77.84
794.272	76.36
794.449	73.2
794.626	74.45
794.803	76.31
794.98	71.23
795.157	67.37
795.334	68.46
795.511	71.62
795.688	71.77
795.864	75.62
796.041	72.82
796.218	75.29
796.395	74.29
796.572	71.79
796.749	74.96
796.925	75.55
797.102	74.47
797.279	74.51
797.456	73.38
797.632	73.43
797.809	70.22
797.986	73.01
798.162	72.08
798.339	76.3
798.516	80.5
798.692	79.2
798.869	84.58
799.046	92.92
799.222	91.76
799.399	90.99
799.575	92.52
799.752	89.23
799.928	86.56
800.105	81.9
800.281	82.27
800.458	82.51
800.634	76.87
800.811	76.63
800.987	76.94
801.163	77.76
801.34	80.27
801.516	81.13
801.692	81.07
801.869	79.51
802.045	82.35
802.221	76.53
802.398	73.61
802.574	79.32
802.75	78.41
802.926	75.6
803.103	78.21
803.279	73.64
803.455	71.46
803.631	80.7
803.807	88.39
803.983	94.51
804.16	105.65
804.336	111.86
804.512	110.69
804.688	116.38
804.864	118.92
805.04	113.17
805.216	116.77
805.392	113.78
805.568	107.28
805.744	98.17
805.92	91.38
806.096	89.48
806.272	87.3
806.448	83.83
806.623	85.14
806.799	81.67
806.975	83.41
807.151	81.84
807.327	86.41
807.503	85.23
807.678	87.5
807.854	92.78
808.03	86.34
808.206	87.05
808.381	86.2
808.557	76.77
808.733	83.29
808.908	83.46
809.084	85.76
809.26	84.29
809.435	89.19
809.611	88.56
809.787	79.59
809.962	85.37
810.138	85.96
810.313	92.43
810.489	97.73
810.664	97.68
810.84	90.51
811.015	85.18
811.191	92.24
811.366	92.83
811.542	95.15
811.717	99.02
811.892	91.97
812.068	92.17
812.243	94.46
812.419	92.6
812.594	91.14
812.769	97.4
812.944	104.97
813.12	92.8
813.295	91.4
813.47	85.53
813.645	91.08
813.821	96.78
813.996	100.16
814.171	97.33
814.346	100
814.521	96.54
814.697	98.91
814.872	98.43
815.047	103.43
815.222	98.35
815.397	104.79
815.572	104.06
815.747	101.01
815.922	93.85
816.097	93.68
816.272	91.6
816.447	85.02
816.622	82.71
816.797	76.76
816.972	78.53
817.147	76.19
817.322	70.7
817.496	64.69
817.671	65.95
817.846	68.19
818.021	66.19
818.196	64.09
818.371	71.49
818.545	72.76
818.72	73.45
818.895	70.15
819.069	70.76
819.244	74.08
819.419	74.14
819.594	65.47
819.768	61.1
819.943	56.33
820.117	54.49
820.292	51.85
820.467	50.16
820.641	50.3
820.816	47.57
820.99	46.32
821.165	45.28
821.339	44.44
821.514	44.2
821.688	43.88
821.863	44.41
822.037	44.19
822.212	42.9
822.386	42.88
822.56	41.89
822.735	41.37
822.909	42.36
823.084	41.97
823.258	42.23
823.432	43.11
823.606	43.35
823.781	43.16
823.955	44.02
824.129	45.18
824.303	45.41
824.478	46.03
824.652	47.5
824.826	47.29
825	49.12
825.174	51.6
825.348	50.26
825.523	49.93
825.697	48.73
825.871	47.91
826.045	47.58
826.219	47.5
826.393	48.67
826.567	48.67
826.741	48.81
826.915	49.08
827.089	47.5
827.263	50.58
827.437	52.31
827.611	53.99
827.784	56
827.958	57.83
828.132	58.8
828.306	59.54
828.48	61.75
828.654	62.32
828.827	61.7
829.001	62.34
829.175	64.8
829.349	67.48
829.522	73.01
829.696	73.84
829.87	74.99
830.044	77.67
830.217	80.58
830.391	87.21
830.565	84.62
830.738	89
830.912	93.93
831.085	85.97
831.259	81.46
831.432	78.86
831.606	79.99
831.779	78.34
831.953	76.64
832.126	73.5
832.3	69.61
832.473	67.25
832.647	64.65
832.82	60.39
832.994	63.77
833.167	63.43
833.34	59.64
833.514	58.36
833.687	57.98
833.86	56.43
834.034	57.27
834.207	54.28
834.38	58.83
834.553	59.48
834.727	63.15
834.9	64.38
835.073	66.8
835.246	71.22
835.419	72.3
835.593	75.18
835.766	74.85
835.939	75.36
836.112	80.49
836.285	76.07
836.458	79.21
836.631	79.6
836.804	79.56
836.977	79.04
837.15	79.33
837.323	81.64
837.496	82.39
837.669	97.06
837.842	102.99
838.015	102.65
838.188	107
838.361	104.65
838.533	100.99
838.706	99.84
838.879	104.59
839.052	114.69
839.225	118.76
839.398	119.81
839.57	110.86
839.743	105.19
839.916	111.4
840.088	112.67
840.261	117.08
840.434	127.77
840.607	128.36
840.779	130.24
840.952	128.49
841.124	120.94
841.297	128.71
841.47	128.68
841.642	129.94
841.815	123.97
841.987	127.94
842.16	127.27
842.332	137.69
842.505	144.03
842.677	131.39
842.85	130.11
843.022	142.9
843.194	148.43
843.367	151.93
843.539	165.3
843.712	143.1
843.884	138.11
844.056	142.13
844.229	135.46
844.401	143.25
844.573	150.31
844.745	158.78
844.918	165.6
845.09	157.51
845.262	171.42
845.434	166.14
845.606	195.53
845.779	186.9
845.951	194.26
846.123	167.97
846.295	160.57
846.467	161.56
846.639	154.21
846.811	144.76
846.983	137.36
847.155	134.3
847.327	128.7
847.499	119.84
847.671	156.61
847.843	145.9
848.015	201.34
848.187	201.62
848.359	212.95
848.531	209.92
848.703	212.05
848.875	260.73
849.047	242.43
849.218	318.53
849.39	326.64
849.562	262.56
849.734	276.42
849.905	225.13
850.077	264.14
850.249	365.38
850.421	423.94
850.592	385.55
850.764	353.74
850.936	340.19
851.107	362.48
851.279	401.15
851.451	326.48
851.622	275.48
851.794	219.8
851.965	196.91
852.137	173.63
852.308	169.79
852.48	183.52
852.651	167.08
852.823	163.32
852.994	155.4
853.166	148.6
853.337	150.85
853.509	181.17
853.68	248.61
853.851	250.62
854.023	296.45
854.194	264.99
854.365	296.38
854.537	296.05
854.708	463.64
854.879	787.69
855.05	722.12
855.222	656.52
855.393	368.08
855.564	386.58
855.735	326.33
855.906	246.92
856.078	294.82
856.249	344.4
856.42	324.73
856.591	266.46
856.762	254.71
856.933	333.15
857.104	362.39
857.275	410.07
857.446	266.62
857.617	276.35
857.788	284.34
857.959	235.77
858.13	190
858.301	228.61
858.472	271.76
858.643	275.15
858.814	307.45
858.985	288.27
859.155	294.68
859.326	395.94
859.497	409.77
859.668	360.53
859.839	625.56
860.009	449.43
860.18	319.74
860.351	258.71
860.522	222.7
860.692	165.84
860.863	176.42
861.034	183.49
861.204	158.38
861.375	157.5
861.546	169.34
861.716	160.6
861.887	165.56
862.057	220.45
862.228	187.25
862.398	226.35
862.569	241.26
862.739	241.26
862.91	228.7
863.08	300.8
863.251	313.5
863.421	340.41
863.592	323.51
863.762	343.07
863.932	253.73
864.103	311.95
864.273	280.19
864.443	293.24
864.614	251.51
864.784	268.06
864.954	248.77
865.125	246.56
865.295	249.87
865.465	237.77
865.635	273.74
865.805	271.01
865.976	269.85
866.146	262.91
866.316	306.1
866.486	452.35
866.656	327.02
866.826	346.52
866.996	329.16
867.166	324.84
867.336	315.88
867.506	252.05
867.676	269.75
867.846	244.14
868.016	271.39
868.186	239.37
868.356	203.92
868.526	231.22
868.696	224
868.866	235.71
869.036	218.1
869.206	198.65
869.376	217.59
869.545	200.27
869.715	228.92
869.885	239.19
870.055	273.31
870.224	327.65
870.394	425.59
870.564	329.47
870.734	361.61
870.903	333.54
871.073	398.26
871.243	322.35
871.412	351.12
871.582	295.42
871.751	283.39
871.921	284.63
872.091	249.05
872.26	222.74
872.43	184.28
872.599	176.14
872.769	200.52
872.938	190.5
873.108	242.82
873.277	242.2
873.446	314.39
873.616	280.17
873.785	293.6
873.955	404.52
874.124	309.86
874.293	858.46
874.463	1004.79
874.632	1190.91
874.801	1352.1
874.971	444.64
875.14	452.8
875.309	291.53
875.478	275.89
875.647	267.42
875.817	215.48
875.986	260
876.155	239.54
876.324	230.86
876.493	213.64
876.662	183.37
876.831	201.67
877	196.7
877.17	241.62
877.339	289.86
877.508	211.07
877.677	248.46
877.846	246.37
878.015	216.4
878.184	192.61
878.352	194.62
878.521	199.18
878.69	201.48
878.859	178.85
879.028	185.95
879.197	165.22
879.366	190.03
879.534	164.31
879.703	160.18
879.872	144.04
880.041	137.14
880.21	107.81
880.378	104.61
880.547	98.54
880.716	95.04
880.884	85.31
881.053	83.46
881.222	77.74
881.39	75.86
881.559	67.16
881.727	68.1
881.896	65.33
882.065	66.13
882.233	65.92
882.402	63.47
882.57	63.43
882.739	60.97
882.907	60.35
883.076	63.14
883.244	64.68
883.412	66.31
883.581	66.85
883.749	72.41
883.918	76.1
884.086	80.9
884.254	84.92
884.423	88.36
884.591	94.61
884.759	97.92
884.927	96
885.096	92.41
885.264	106.74
885.432	110.71
885.6	111.38
885.769	120.42
885.937	127.77
886.105	133.61
886.273	136.34
886.441	134.85
886.609	136.5
886.777	146.82
886.945	179.42
887.113	171.61
887.281	191.57
887.449	192.59
887.617	175.47
887.785	189.93
887.953	177.63
888.121	176.72
888.289	191.46
888.457	232.15
888.625	296.31
888.793	209.21
888.961	211.01
889.129	161.26
889.296	158.61
889.464	181.38
889.632	148.8
889.8	169.89
889.967	171.79
890.135	183
