Data from JASIL_2990_Reflection_01.txt Node
Date: Mon Nov 09 09:41:11 EST 2015
User: Geneva
Spectrometer: USB4E03002
Autoset integration time: false
Trigger mode: 4
Integration Time (sec): 1.000000E-1
Scans to average: 10
Electric dark correction enabled: false
Nonlinearity correction enabled: false
Boxcar width: 5
Stray light correction enabled: false
XAxis mode: Wavelengths
Stop averaging: false
Number of Pixels in Spectrum: 3648
>>>>>Begin Spectral Data<<<<<
177.575	46.34
177.794	39.12
178.014	53.46
178.233	46.51
178.452	52.55
178.672	57.91
178.891	84.18
179.11	62.35
179.33	55.84
179.549	56.65
179.768	77.3
179.987	73
180.207	76.03
180.426	50.49
180.645	49.66
180.864	42.78
181.084	52.34
181.303	15.58
181.522	14.17
181.741	6.64
181.96	25.18
182.179	26.52
182.398	17.41
182.618	33.21
182.837	58.3
183.056	71.28
183.275	71.75
183.494	49.32
183.713	56.38
183.932	97.19
184.151	96.24
184.37	78.11
184.589	62.39
184.808	64.17
185.027	42.82
185.246	36.71
185.465	40.16
185.684	37.76
185.903	29.89
186.122	24.74
186.341	-4.15
186.56	18.07
186.779	60.57
186.998	51.36
187.216	51.05
187.435	64.49
187.654	61.31
187.873	60.04
188.092	113
188.311	166.1
188.53	139.3
188.748	103.48
188.967	65.18
189.186	83.36
189.405	99.21
189.623	104.29
189.842	96.67
190.061	103.66
190.28	106.18
190.498	53.78
190.717	61.31
190.936	66.18
191.154	10.66
191.373	76.8
191.592	51.7
191.81	62.01
192.029	80.69
192.248	-25.68
192.466	49.13
192.685	39.71
192.904	55.7
193.122	30.17
193.341	-7.59
193.559	-11.11
193.778	-4.64
193.996	5.32
194.215	10.1
194.433	-1.6
194.652	60.1
194.87	19.07
195.089	50.16
195.307	16.27
195.526	3.87
195.744	-0
195.963	22.18
196.181	13.51
196.399	-16.1
196.618	-15.04
196.836	-24.64
197.055	-46.54
197.273	-9.54
197.491	-46.89
197.71	-8.7
197.928	-1.15
198.146	-7.07
198.365	-69.68
198.583	-38.1
198.801	-30.32
199.019	-22.22
199.238	-9.26
199.456	-20.94
199.674	-20.38
199.892	-14.29
200.111	-85.85
200.329	-106.03
200.547	-33.03
200.765	1.96
200.983	-48.88
201.202	-57.39
201.42	-73.95
201.638	-45.27
201.856	-170.42
202.074	845.95
202.292	319.51
202.51	26.6
202.728	33.33
202.946	42.21
203.165	-27.59
203.383	-12.9
203.601	-44.76
203.819	-82.56
204.037	-24.59
204.255	0.69
204.473	28.09
204.691	14.17
204.909	-22.38
205.127	19.93
205.345	33.62
205.562	205.62
205.78	65.23
205.998	94.21
206.216	68.95
206.434	53.2
206.652	63.64
206.87	89.03
207.088	89.29
207.306	19.81
207.523	-42.41
207.741	4.6
207.959	33.33
208.177	46.25
208.395	10.6
208.612	-10.26
208.83	-16.07
209.048	2.18
209.266	-28.13
209.483	-16.96
209.701	47.77
209.919	87.28
210.136	16.28
210.354	11.08
210.572	12.14
210.79	-22.97
211.007	21.14
211.225	51.97
211.442	30.78
211.66	36.43
211.878	50.88
212.095	18.86
212.313	14.21
212.53	29.78
212.748	36.34
212.966	36.22
213.183	38.77
213.401	31.45
213.618	24.06
213.836	33.48
214.053	35
214.271	29.7
214.488	48.06
214.705	37.33
214.923	31.54
215.14	29.27
215.358	43.6
215.575	58.19
215.793	85.92
216.01	117.4
216.227	122.44
216.445	120.69
216.662	106.14
216.879	93.41
217.097	113.89
217.314	120.14
217.531	81.98
217.749	52.12
217.966	49.39
218.183	31.28
218.4	-23.26
218.618	-25.33
218.835	-44.72
219.052	-226.43
219.269	-436.84
219.487	-91.81
219.704	-407.94
219.921	426.32
220.138	584.62
220.355	431.51
220.572	0
220.79	-1106.06
221.007	-187.12
221.224	-67.65
221.441	18.66
221.658	15.89
221.875	4.02
222.092	19.78
222.309	9
222.526	24.42
222.743	37.82
222.96	35.7
223.177	44.01
223.394	29.11
223.611	33.47
223.828	-66.45
224.045	-68.87
224.262	-10.19
224.479	-11.06
224.696	-3.53
224.913	-28.73
225.13	-77.28
225.347	-59.5
225.564	-57.18
225.781	-43.18
225.997	-32.18
226.214	1.21
226.431	4
226.648	-8.92
226.865	-10.47
227.082	-11.29
227.298	-16.17
227.515	-5.2
227.732	-2.27
227.949	-1.42
228.165	7.91
228.382	9.82
228.599	5.79
228.816	5.55
229.032	0.92
229.249	7.65
229.466	3.94
229.682	8.72
229.899	9.63
230.116	2.67
230.332	-0.82
230.549	-4.67
230.765	-18.11
230.982	-18.73
231.199	0
231.415	13.81
231.632	-1.07
231.848	9.02
232.065	-0.91
232.281	-6.91
232.498	4.61
232.714	18.8
232.931	14.19
233.147	19.86
233.364	31.5
233.58	21.31
233.797	16.08
234.013	21.22
234.23	18.45
234.446	33.5
234.662	39.49
234.879	29.38
235.095	24.72
235.312	14.62
235.528	10.45
235.744	0.72
235.961	2.44
236.177	5.34
236.393	4.46
236.61	7.19
236.826	3.54
237.042	6.26
237.258	11.69
237.475	16.35
237.691	23.68
237.907	19.5
238.123	11.79
238.339	-1.49
238.556	-6.47
238.772	-4.98
238.988	2.15
239.204	7.22
239.42	11.08
239.636	13.04
239.853	17.44
240.069	16.36
240.285	17.16
240.501	22.89
240.717	26.65
240.933	26.88
241.149	25.69
241.365	22.47
241.581	16.94
241.797	12.02
242.013	8.48
242.229	2.74
242.445	0.73
242.661	-0.16
242.877	-3.63
243.093	-9.75
243.309	-4.63
243.525	-13.35
243.741	-8.8
243.957	-3.92
244.173	-1.03
244.388	-2.94
244.604	-0.42
244.82	1.72
245.036	2.03
245.252	4.39
245.468	9.22
245.683	4.78
245.899	8.85
246.115	8.28
246.331	5.72
246.547	7.81
246.762	11.14
246.978	9.11
247.194	10.22
247.409	8.38
247.625	5.05
247.841	2.84
248.057	3.97
248.272	5.22
248.488	2.51
248.703	9.05
248.919	-0.6
249.135	-2.91
249.35	-2.54
249.566	-1.59
249.782	2.01
249.997	3.71
250.213	1.73
250.428	5.36
250.644	3.61
250.859	4.13
251.075	3.05
251.29	9.16
251.506	11.12
251.721	16.32
251.937	13.9
252.152	12.76
252.368	16.93
252.583	18.28
252.798	15.57
253.014	8.64
253.229	13.66
253.445	5.13
253.66	4.88
253.875	1.05
254.091	-6.36
254.306	-6.81
254.521	10.13
254.737	14.91
254.952	10.58
255.167	13.89
255.383	18.13
255.598	16.35
255.813	23.87
256.028	21.41
256.244	14.61
256.459	13.21
256.674	17.74
256.889	9.9
257.104	3.53
257.32	4.72
257.535	4.07
257.75	3.02
257.965	2.31
258.18	2.3
258.395	3.79
258.61	4.71
258.826	5.55
259.041	4.27
259.256	1.25
259.471	1.98
259.686	3.08
259.901	1.52
260.116	1.24
260.331	-0.89
260.546	1.33
260.761	-1.69
260.976	-3.32
261.191	-3.07
261.406	-4.46
261.621	2.79
261.836	1.96
262.05	-0.69
262.265	0.61
262.48	0
262.695	3.75
262.91	2.24
263.125	1.63
263.34	1.44
263.555	3.54
263.769	4.63
263.984	6.61
264.199	4.63
264.414	7.52
264.629	11.78
264.843	10.82
265.058	8.24
265.273	7.73
265.488	10.26
265.702	9.77
265.917	8.9
266.132	7.34
266.346	5.22
266.561	11.55
266.776	12.21
266.99	8.88
267.205	16.22
267.42	21.24
267.634	18.56
267.849	15.54
268.063	17.32
268.278	18.76
268.492	19.05
268.707	19.19
268.922	13.63
269.136	11.23
269.351	11.13
269.565	8.59
269.78	3.78
269.994	5.89
270.209	6.77
270.423	5.16
270.637	3
270.852	6.26
271.066	4.69
271.281	7.81
271.495	7.44
271.709	6.5
271.924	4.02
272.138	6.21
272.353	8.73
272.567	8.32
272.781	11.6
272.996	11.6
273.21	8.82
273.424	4.36
273.638	1.33
273.853	5.68
274.067	8.71
274.281	8.75
274.495	7.47
274.71	4.74
274.924	6.62
275.138	3.51
275.352	5.01
275.566	5.21
275.781	9.48
275.995	9.88
276.209	7.36
276.423	5.2
276.637	5.41
276.851	4.84
277.065	2.05
277.279	-0.47
277.493	-0.76
277.707	-0.95
277.921	-3.4
278.135	-2.93
278.349	-2.6
278.563	-6.27
278.777	-8.05
278.991	-8.95
279.205	-9.37
279.419	-6.86
279.633	-4.54
279.847	-4.35
280.061	-5.77
280.275	-0.3
280.489	1.89
280.703	2.96
280.917	6.4
281.131	10.49
281.344	13.59
281.558	13.11
281.772	13.63
281.986	14.05
282.2	13.96
282.414	12.13
282.627	10.41
282.841	9.58
283.055	8.15
283.269	7.49
283.482	6.8
283.696	6.43
283.91	7.19
284.123	2.91
284.337	3.61
284.551	6.2
284.764	9.55
284.978	8.93
285.192	8.11
285.405	9.34
285.619	8.88
285.833	8.95
286.046	5.66
286.26	3.21
286.473	7.76
286.687	7.85
286.9	5.86
287.114	5.13
287.327	6.09
287.541	6.29
287.754	2.99
287.968	3.69
288.181	1.45
288.395	2.82
288.608	4.46
288.822	4.51
289.035	3.96
289.248	4.76
289.462	4.99
289.675	3.33
289.889	2.22
290.102	4.88
290.315	5.42
290.529	5.53
290.742	5.35
290.955	4.74
291.169	4.05
291.382	0.62
291.595	-3.78
291.808	-4.56
292.022	-3.7
292.235	0.18
292.448	-1.09
292.661	-3.84
292.875	-2.67
293.088	-3.54
293.301	-0.84
293.514	-2.27
293.727	-0.5
293.94	0.33
294.153	0.48
294.367	0.17
294.58	-3.18
294.793	-3.99
295.006	-3.67
295.219	-3.55
295.432	-3.1
295.645	-4.58
295.858	-3.13
296.071	-2.88
296.284	-2.9
296.497	-1.2
296.71	-0.18
296.923	1.17
297.136	1.58
297.349	3.87
297.562	4.67
297.775	4.8
297.988	8.35
298.201	8.63
298.414	8.28
298.626	10.04
298.839	7.48
299.052	7.59
299.265	7.34
299.478	8.17
299.691	9.49
299.903	11.61
300.116	11.62
300.329	8.56
300.542	6.98
300.755	7.77
300.967	7.65
301.18	9.25
301.393	9.52
301.605	9.4
301.818	9.22
302.031	7.41
302.243	4.9
302.456	6.46
302.669	9.06
302.881	11.6
303.094	12.21
303.307	11.52
303.519	8.72
303.732	8.87
303.944	9.49
304.157	8.64
304.37	8.12
304.582	5.82
304.795	6.31
305.007	5.83
305.22	3.22
305.432	2.01
305.645	1.05
305.857	3.83
306.069	2.26
306.282	2.57
306.494	6.36
306.707	3.98
306.919	4.93
307.132	3.98
307.344	2.19
307.556	3.35
307.769	6.37
307.981	6.67
308.193	7.11
308.406	7.08
308.618	7.93
308.83	6.89
309.043	8.45
309.255	8.54
309.467	6.4
309.679	5.93
309.892	6.4
310.104	5.72
310.316	6.93
310.528	7.6
310.74	8.6
310.953	8.19
311.165	7.28
311.377	5.68
311.589	5.81
311.801	8
312.013	7.95
312.225	9.83
312.437	10.71
312.649	10.04
312.862	8.29
313.074	6.37
313.286	6.14
313.498	5.25
313.71	9.72
313.922	11.09
314.134	12.44
314.346	13.58
314.558	11.08
314.77	10.98
314.982	12.43
315.193	13.71
315.405	12.9
315.617	13.43
315.829	13.4
316.041	10.13
316.253	8.21
316.465	6.15
316.677	6.43
316.888	10.04
317.1	7.39
317.312	6.05
317.524	7.79
317.736	11.06
317.947	12.07
318.159	12.36
318.371	14.8
318.583	14.64
318.794	13.06
319.006	13.46
319.218	8.57
319.43	10.86
319.641	13.19
319.853	12.04
320.064	8.75
320.276	5
320.488	5.12
320.699	3.38
320.911	3.63
321.123	10.32
321.334	9.27
321.546	8.86
321.757	4.44
321.969	2.02
322.18	1.62
322.392	4.32
322.603	4.8
322.815	4.93
323.026	5.3
323.238	7.12
323.449	6.93
323.661	8.01
323.872	9.15
324.083	11.58
324.295	11.97
324.506	11.79
324.718	12
324.929	13.67
325.14	12.93
325.352	12.61
325.563	13.75
325.774	12.35
325.986	10.57
326.197	11.12
326.408	10.09
326.62	7.3
326.831	8.12
327.042	8.47
327.253	6.36
327.464	8.07
327.676	8.87
327.887	7.81
328.098	7.97
328.309	10.74
328.52	9.43
328.732	9.85
328.943	12.67
329.154	10.5
329.365	11.47
329.576	12.65
329.787	13.31
329.998	12.76
330.209	12.06
330.42	11.28
330.631	8.09
330.842	7.67
331.053	8.57
331.264	7.69
331.475	9.12
331.686	8.3
331.897	9.98
332.108	10.11
332.319	9.19
332.53	7.02
332.741	7.9
332.952	11.76
333.163	14.06
333.374	15.29
333.585	13.84
333.795	13.5
334.006	15.09
334.217	17.15
334.428	16.32
334.639	16.77
334.849	16.61
335.06	17.42
335.271	15.07
335.482	14.37
335.692	11.25
335.903	12.87
336.114	12.92
336.325	11.09
336.535	6.39
336.746	7.32
336.957	7.92
337.167	11.05
337.378	11.87
337.589	11.94
337.799	11.29
338.01	13.02
338.22	15.36
338.431	13.85
338.642	13.51
338.852	15.2
339.063	13.06
339.273	16.24
339.484	15.23
339.694	11.41
339.905	10.25
340.115	11.91
340.326	11.77
340.536	9.57
340.746	11.82
340.957	11.74
341.167	11.89
341.378	10.68
341.588	7.01
341.799	8.07
342.009	11.33
342.219	10.15
342.43	9.58
342.64	10.04
342.85	11.66
343.061	10.04
343.271	11.36
343.481	11.47
343.691	12.32
343.902	14.89
344.112	12.95
344.322	9.78
344.532	12.92
344.743	10.89
344.953	10.06
345.163	10.56
345.373	12.51
345.583	12.44
345.793	11.85
346.004	12.36
346.214	9.31
346.424	10.23
346.634	9.58
346.844	9.08
347.054	11.25
347.264	10.12
347.474	6.9
347.684	7.59
347.894	6.74
348.104	9.29
348.314	10.7
348.524	11.82
348.734	11.95
348.944	13.38
349.154	11.4
349.364	11.08
349.574	12.89
349.784	13.16
349.994	13.15
350.204	12.64
350.413	9.89
350.623	12.36
350.833	11.85
351.043	10.07
351.253	11.32
351.463	14.68
351.672	15.85
351.882	17.42
352.092	19.24
352.302	18.6
352.511	19.92
352.721	20.19
352.931	17.45
353.141	18.11
353.35	20.22
353.56	19.64
353.77	15.71
353.979	14.42
354.189	13.53
354.399	12.39
354.608	13.25
354.818	12.38
355.027	13.04
355.237	12.24
355.447	11.13
355.656	8.56
355.866	7.97
356.075	10.74
356.285	10.88
356.494	10.04
356.704	10.18
356.913	8.51
357.123	6.72
357.332	6.54
357.542	6.63
357.751	6.57
357.96	8.79
358.17	9.11
358.379	8.92
358.589	8.07
358.798	8.51
359.007	8.21
359.217	7.45
359.426	9.03
359.635	8.39
359.845	7.17
360.054	5.99
360.263	6.46
360.472	6.9
360.682	5.58
360.891	6.74
361.1	5.79
361.309	5.07
361.519	4.24
361.728	4.59
361.937	5.37
362.146	6.74
362.355	8.17
362.564	6.58
362.774	5.71
362.983	6.23
363.192	4.82
363.401	6.32
363.61	7.63
363.819	8.46
364.028	6.78
364.237	8.24
364.446	7.97
364.655	6.92
364.864	8.37
365.073	10.2
365.282	9.83
365.491	12.05
365.7	11.71
365.909	10.76
366.118	12.61
366.327	11.8
366.536	10.93
366.745	13.21
366.954	14.15
367.162	14.4
367.371	10.78
367.58	12.12
367.789	11.19
367.998	11.1
368.207	12.2
368.415	10.79
368.624	10.6
368.833	10.61
369.042	8.47
369.25	7.72
369.459	6.01
369.668	7.79
369.877	7.49
370.085	7.84
370.294	6.65
370.503	4.07
370.711	4.99
370.92	6.39
371.129	5.46
371.337	4.48
371.546	5.02
371.754	6.81
371.963	7.21
372.171	6.17
372.38	6.02
372.589	6.64
372.797	8.22
373.006	7.05
373.214	7.35
373.423	8.87
373.631	9.68
373.84	9.4
374.048	9.38
374.256	8.33
374.465	10.17
374.673	10.5
374.882	9.31
375.09	9.58
375.298	9.46
375.507	9.16
375.715	8.88
375.923	9.5
376.132	10.43
376.34	9.29
376.548	10.99
376.757	8.72
376.965	7.49
377.173	9.69
377.381	8.43
377.59	9.43
377.798	9.52
378.006	6.92
378.214	6.53
378.423	7.27
378.631	7.6
378.839	7.72
379.047	8.36
379.255	9.27
379.463	8.44
379.671	10.18
379.879	9.43
380.088	9.65
380.296	11.39
380.504	11.79
380.712	9.62
380.92	10.37
381.128	9.75
381.336	10.09
381.544	9.76
381.752	11.26
381.96	10.34
382.168	11.04
382.376	10.65
382.584	10.39
382.791	10.01
382.999	11.42
383.207	10.44
383.415	9.66
383.623	9.84
383.831	10.29
384.039	8.05
384.247	8.53
384.454	9.17
384.662	9.66
384.87	9.73
385.078	9.12
385.285	8.67
385.493	8.6
385.701	8.75
385.909	8.64
386.116	8.13
386.324	9.53
386.532	9.4
386.739	8.8
386.947	8.57
387.155	9.5
387.362	10.73
387.57	9.75
387.778	10.97
387.985	11.73
388.193	11.86
388.4	12.82
388.608	10.6
388.816	10.26
389.023	10.35
389.231	9.92
389.438	9.08
389.646	8.37
389.853	10.08
390.061	7.97
390.268	7.12
390.475	6.92
390.683	6
390.89	7.2
391.098	7.22
391.305	8.17
391.512	9.81
391.72	8.94
391.927	8.24
392.135	7.3
392.342	7.84
392.549	7.28
392.756	7.44
392.964	7.72
393.171	8.35
393.378	7.84
393.586	6.56
393.793	5.1
394	6.06
394.207	7.74
394.414	7.52
394.622	7.49
394.829	7.46
395.036	7.31
395.243	7.11
395.45	7.51
395.657	7.5
395.864	6.24
396.072	6.96
396.279	7.31
396.486	5.59
396.693	7.63
396.9	8.21
397.107	9.83
397.314	9.15
397.521	8.61
397.728	7.88
397.935	8.7
398.142	9.58
398.349	8.61
398.556	7.95
398.763	9.12
398.97	6.95
399.177	7.77
399.383	7.41
399.59	7.74
399.797	7.68
400.004	7.49
400.211	6.11
400.418	6.43
400.625	8.88
400.831	9.67
401.038	8.63
401.245	8.74
401.452	8.16
401.658	7.8
401.865	7.91
402.072	9.27
402.279	9.02
402.485	9.96
402.692	9.43
402.899	7.67
403.105	7.59
403.312	8.69
403.519	8.76
403.725	9.35
403.932	10.18
404.138	10.33
404.345	9.46
404.552	9.75
404.758	10.02
404.965	10.87
405.171	11.87
405.378	11.5
405.584	11.03
405.791	11.77
405.997	10.63
406.204	9.31
406.41	9.17
406.617	9.39
406.823	7.73
407.029	8
407.236	7.5
407.442	7.26
407.649	7.31
407.855	6.24
408.061	6.08
408.268	6.99
408.474	7.92
408.68	8.45
408.887	7.93
409.093	8.85
409.299	9.34
409.505	9.6
409.712	8.48
409.918	7.67
410.124	8.62
410.33	8.51
410.537	8.24
410.743	7.25
410.949	6.24
411.155	6.93
411.361	8.34
411.567	6.77
411.773	6.95
411.98	7.36
412.186	8.84
412.392	7.6
412.598	7.72
412.804	6.21
413.01	6.77
413.216	7.54
413.422	7.02
413.628	6.03
413.834	6.63
414.04	6.34
414.246	6.3
414.452	6.32
414.658	7.24
414.864	7.01
415.07	8.16
415.275	7.81
415.481	8.6
415.687	8.74
415.893	9.15
416.099	8.9
416.305	8.39
416.511	8.13
416.716	7.35
416.922	7.57
417.128	7.45
417.334	7.33
417.539	7.81
417.745	7.3
417.951	6.93
418.157	6.85
418.362	6.95
418.568	7.15
418.774	7.19
418.979	7.63
419.185	7.58
419.391	7.25
419.596	7.26
419.802	7.34
420.008	6.98
420.213	3.26
420.419	3.1
420.624	2.9
420.83	2.86
421.035	3.06
421.241	2.57
421.446	1.87
421.652	2.16
421.857	1.73
422.063	1.52
422.268	1.34
422.474	4.59
422.679	4.77
422.885	4.81
423.09	4.78
423.295	4.92
423.501	4.83
423.706	5.06
423.911	5.23
424.117	5.54
424.322	5.77
424.527	6.03
424.733	6.9
424.938	6.24
425.143	6.07
425.349	6.44
425.554	6.41
425.759	6.81
425.964	7.42
426.169	7.51
426.375	7.58
426.58	6.97
426.785	6.87
426.99	6.62
427.195	7.93
427.4	9.12
427.605	8.83
427.811	8.49
428.016	8.38
428.221	8.55
428.426	7.93
428.631	8.01
428.836	8.73
429.041	8.96
429.246	9.47
429.451	9.36
429.656	8.5
429.861	8.19
430.066	8.25
430.271	8.59
430.476	8.28
430.681	8.68
430.886	8.68
431.09	8.28
431.295	7.75
431.5	7.34
431.705	6.84
431.91	7.59
432.115	7.02
432.32	7.25
432.524	6.69
432.729	6.27
432.934	5.45
433.139	5.62
433.343	5.39
433.548	6.47
433.753	6.31
433.958	6.64
434.162	6.25
434.367	7.04
434.572	5.95
434.776	6.52
434.981	6.1
435.186	6.51
435.39	6.69
435.595	7.26
435.799	5.95
436.004	6.82
436.209	6.8
436.413	6.69
436.618	6.85
436.822	7.78
437.027	7.63
437.231	8.31
437.436	8.55
437.64	8.17
437.845	7.09
438.049	7.85
438.253	6.83
438.458	6.66
438.662	6.16
438.867	5.82
439.071	5.58
439.275	5.14
439.48	4.71
439.684	4.41
439.888	4.08
440.093	4.13
440.297	3.93
440.501	4.55
440.706	4.5
440.91	4.46
441.114	4.55
441.318	4.72
441.523	4.78
441.727	4.91
441.931	5.01
442.135	5.49
442.339	5.97
442.543	6.43
442.748	6.54
442.952	6.48
443.156	6.52
443.36	6.29
443.564	5.9
443.768	6.19
443.972	5.6
444.176	5.95
444.38	5.68
444.584	5.83
444.788	5.29
444.992	5.1
445.196	5.13
445.4	5.59
445.604	5.89
445.808	6.24
446.012	6.06
446.216	7.09
446.42	6.73
446.624	6.63
446.828	6.87
447.032	7.2
447.235	6.7
447.439	6.73
447.643	6.76
447.847	6.42
448.051	6.06
448.254	6.43
448.458	5.96
448.662	6.55
448.866	6.64
449.069	6.38
449.273	6.27
449.477	7.11
449.681	7.52
449.884	7.45
450.088	7.45
450.292	7.43
450.495	7.17
450.699	7.49
450.902	7.16
451.106	7.43
451.31	8.06
451.513	8.13
451.717	7.96
451.92	7.2
452.124	7.24
452.327	7.7
452.531	7.86
452.734	7.65
452.938	7.15
453.141	6.9
453.345	6.56
453.548	5.43
453.752	5.37
453.955	5.49
454.158	5.53
454.362	5.89
454.565	5.86
454.769	6.44
454.972	6.69
455.175	6
455.379	5.85
455.582	6.45
455.785	6.95
455.988	5.9
456.192	5.95
456.395	6.43
456.598	5.49
456.801	5.07
457.005	5.11
457.208	4.57
457.411	5.42
457.614	5.63
457.817	5.44
458.021	4.6
458.224	4.85
458.427	4.35
458.63	4.46
458.833	4.59
459.036	4.61
459.239	4.41
459.442	5.21
459.645	5.22
459.848	5.28
460.051	5.3
460.254	6.23
460.457	6.9
460.66	7.68
460.863	7.48
461.066	7.51
461.269	7.56
461.472	7.9
461.675	7.12
461.878	7.41
462.081	7.4
462.284	7.09
462.486	7.05
462.689	7.31
462.892	6.79
463.095	7.13
463.298	7.3
463.5	7.51
463.703	6.97
463.906	7.81
464.109	7.94
464.311	7.94
464.514	8.92
464.717	8.89
464.92	8.69
465.122	8.86
465.325	8.8
465.528	9.08
465.73	8.47
465.933	8.12
466.135	6.88
466.338	6.36
466.541	6.73
466.743	6.24
466.946	6.53
467.148	6.44
467.351	6.77
467.553	6.1
467.756	5.93
467.958	6.9
468.161	7.47
468.363	8.02
468.566	8.24
468.768	7.75
468.971	7.43
469.173	7.32
469.375	7.12
469.578	6.44
469.78	6.77
469.983	5.89
470.185	5.21
470.387	5.2
470.59	5.63
470.792	4.82
470.994	5
471.196	5.03
471.399	4.95
471.601	5.34
471.803	5.2
472.005	5.25
472.208	6.2
472.41	6.26
472.612	6.43
472.814	5.63
473.016	6.39
473.218	6.67
473.421	6.71
473.623	5.79
473.825	5.51
474.027	5.75
474.229	5.72
474.431	5.68
474.633	5.57
474.835	5.83
475.037	7.1
475.239	7.08
475.441	7.17
475.643	7.35
475.845	8.13
476.047	8.16
476.249	8.59
476.451	8.24
476.653	8.01
476.855	8.57
477.057	8.02
477.258	7.3
477.46	7.44
477.662	7.21
477.864	7.25
478.066	6.76
478.268	6.17
478.469	5.67
478.671	6.04
478.873	6.61
479.075	5.88
479.276	6.05
479.478	5.82
479.68	5.66
479.882	5.47
480.083	4.98
480.285	5.26
480.487	5.92
480.688	5.53
480.89	5.19
481.091	4.64
481.293	4.88
481.495	4.92
481.696	5.2
481.898	5.2
482.099	5.15
482.301	5.43
482.502	5.36
482.704	5.3
482.905	5.6
483.107	5.92
483.308	6.15
483.51	6.18
483.711	6.04
483.913	5.92
484.114	5.71
484.315	5.78
484.517	5.7
484.718	5.81
484.92	5.69
485.121	5.39
485.322	5.09
485.524	5
485.725	4.85
485.926	4.96
486.127	4.81
486.329	4.94
486.53	5.19
486.731	5.11
486.932	5.05
487.134	5.02
487.335	5.23
487.536	5.28
487.737	5.42
487.938	5.64
488.139	5.64
488.341	6.05
488.542	6.1
488.743	5.78
488.944	5.88
489.145	5.76
489.346	5.75
489.547	5.62
489.748	5.63
489.949	5.28
490.15	5.44
490.351	5.59
490.552	5.39
490.753	5.49
490.954	5.26
491.155	5.07
491.356	5.12
491.557	5.26
491.758	5.42
491.959	5.59
492.159	5.59
492.36	5.61
492.561	5.73
492.762	6
492.963	5.83
493.164	6.27
493.364	6.64
493.565	6.7
493.766	6.52
493.967	6.56
494.167	6.3
494.368	6.39
494.569	6.5
494.769	5.77
494.97	5.81
495.171	6.24
495.371	6.19
495.572	6.25
495.773	6.33
495.973	6.22
496.174	6.77
496.375	6.44
496.575	6.41
496.776	6.26
496.976	6.73
497.177	6.9
497.377	6.71
497.578	6.52
497.778	6.34
497.979	6.35
498.179	6.74
498.38	6.14
498.58	6.78
498.78	7.16
498.981	6.91
499.181	6.45
499.382	6.16
499.582	6.21
499.782	6.52
499.983	6.85
500.183	6.9
500.383	6.24
500.584	5.99
500.784	5.62
500.984	5.51
501.184	5.82
501.385	6.64
501.585	6.72
501.785	6.5
501.985	6.68
502.185	6.41
502.386	6.19
502.586	6.85
502.786	7.15
502.986	7.77
503.186	7.34
503.386	7.73
503.586	7.62
503.786	7.53
503.987	7.58
504.187	7.41
504.387	7.74
504.587	7.65
504.787	7.95
504.987	8.03
505.187	7.68
505.387	7.75
505.587	6.44
505.786	6.09
505.986	5.92
506.186	5.87
506.386	6.18
506.586	6.16
506.786	6.96
506.986	6.77
507.186	6.63
507.386	6.55
507.585	7.01
507.785	7.61
507.985	7.86
508.185	7.9
508.384	7.76
508.584	7.67
508.784	7.22
508.984	6.81
509.183	6.55
509.383	6.47
509.583	6.74
509.782	6.52
509.982	6.27
510.182	6.57
510.381	6.36
510.581	6.62
510.781	6.75
510.98	6.84
511.18	7.33
511.379	7.6
511.579	7.5
511.778	7.67
511.978	7.48
512.177	8.01
512.377	7.62
512.576	8.6
512.776	8.96
512.975	8.95
513.175	8.89
513.374	8.62
513.573	8.53
513.773	8.99
513.972	8.58
514.172	9.11
514.371	8.58
514.57	8.65
514.77	8.13
514.969	7.78
515.168	7.78
515.367	8.3
515.567	8.52
515.766	8.82
515.965	8.69
516.164	8.77
516.364	8.57
516.563	8.89
516.762	8.69
516.961	8.6
517.16	9.01
517.359	8.69
517.559	8.78
517.758	8.84
517.957	8.6
518.156	8.42
518.355	8.61
518.554	8.59
518.753	8.83
518.952	9.09
519.151	9.36
519.35	8.91
519.549	9.36
519.748	8.76
519.947	8.6
520.146	8.81
520.345	9.32
520.544	9.73
520.743	9.74
520.942	9.5
521.141	9.62
521.339	9.89
521.538	10.28
521.737	10.05
521.936	10.79
522.135	10.88
522.333	10.77
522.532	10.71
522.731	10.21
522.93	10.33
523.129	10.5
523.327	10.43
523.526	9.94
523.725	9.72
523.923	9.82
524.122	9.52
524.321	9.72
524.519	9.54
524.718	9.26
524.917	9.39
525.115	9.45
525.314	9.51
525.512	9.58
525.711	9.77
525.909	9.99
526.108	10.04
526.306	10.05
526.505	9.71
526.703	9.96
526.902	10.11
527.1	10.07
527.299	10.1
527.497	10.1
527.696	10.2
527.894	10.27
528.092	10.24
528.291	10.32
528.489	10.44
528.688	10.73
528.886	10.76
529.084	10.95
529.283	11.1
529.481	11.25
529.679	11.1
529.877	11.04
530.076	10.9
530.274	10.95
530.472	10.98
530.67	11.17
530.869	11.07
531.067	10.87
531.265	10.72
531.463	10.55
531.661	10.56
531.859	10.96
532.057	11.15
532.255	10.99
532.454	11.2
532.652	11.37
532.85	11.34
533.048	11.28
533.246	11.55
533.444	11.48
533.642	11.64
533.84	11.52
534.038	11.2
534.236	10.89
534.434	11.43
534.632	11.39
534.83	11.26
535.027	10.87
535.225	11.11
535.423	11.1
535.621	10.93
535.819	10.88
536.017	11.1
536.215	11.9
536.412	11.87
536.61	11.89
536.808	11.75
537.006	11.74
537.203	12.19
537.401	12.19
537.599	12.4
537.797	12.37
537.994	12.48
538.192	12.63
538.39	12.2
538.587	12.54
538.785	12.5
538.983	12.92
539.18	13.1
539.378	12.93
539.575	12.77
539.773	12.75
539.97	12.96
540.168	13.23
540.366	13.02
540.563	12.97
540.761	12.8
540.958	12.66
541.155	12.36
541.353	12.31
541.55	12.71
541.748	12.93
541.945	12.85
542.143	12.97
542.34	12.81
542.537	12.88
542.735	12.65
542.932	12.99
543.129	13.06
543.327	13.25
543.524	13.26
543.721	12.88
543.919	12.58
544.116	12.72
544.313	12.67
544.51	12.59
544.708	12.53
544.905	13.01
545.102	13.1
545.299	13.39
545.496	13.56
545.693	13.96
545.891	14.51
546.088	14.75
546.285	14.81
546.482	15.08
546.679	15.47
546.876	15.58
547.073	15.1
547.27	15.3
547.467	15.37
547.664	15.36
547.861	14.68
548.058	14.38
548.255	14.15
548.452	13.93
548.649	14.1
548.846	13.66
549.043	14.33
549.24	14.81
549.437	14.71
549.633	14.77
549.83	14.9
550.027	15.82
550.224	15.66
550.421	15.89
550.618	16.27
550.814	15.66
551.011	15.74
551.208	15.74
551.405	16.04
551.601	16.11
551.798	15.58
551.995	15.34
552.191	14.74
552.388	14.65
552.585	14.62
552.781	14.27
552.978	14.66
553.175	14.76
553.371	15.51
553.568	15.38
553.764	14.84
553.961	15.66
554.157	15.62
554.354	15.81
554.55	16.23
554.747	16.55
554.943	17.22
555.14	17.67
555.336	18.16
555.533	16.93
555.729	17.08
555.926	17.4
556.122	17.72
556.318	18.07
556.515	18.69
556.711	18.32
556.907	18.15
557.104	18.74
557.3	18.31
557.496	18.03
557.693	18.34
557.889	18.45
558.085	18.74
558.281	18.44
558.478	18.67
558.674	18.15
558.87	18.79
559.066	19.12
559.262	18.37
559.459	18.25
559.655	18.39
559.851	18.51
560.047	18.22
560.243	17.88
560.439	17.63
560.635	17.09
560.831	17.73
561.027	17.3
561.223	17.29
561.419	17.31
561.615	17.96
561.811	18.16
562.007	18.05
562.203	17.65
562.399	18.32
562.595	18.3
562.791	18.54
562.987	18.37
563.183	18.7
563.379	18.86
563.575	18.87
563.771	18.35
563.966	18.09
564.162	18.13
564.358	18.46
564.554	18.07
564.75	18.7
564.945	18.68
565.141	18.53
565.337	18.6
565.533	18.78
565.728	18.47
565.924	18.75
566.12	18.55
566.315	18.96
566.511	18.98
566.707	19.49
566.902	18.93
567.098	18.71
567.293	19.12
567.489	18.98
567.684	18.14
567.88	18.87
568.076	18.66
568.271	19.19
568.467	18.77
568.662	18.92
568.858	19.06
569.053	19.72
569.248	19.82
569.444	19.22
569.639	19.39
569.835	19.98
570.03	19.79
570.225	20.14
570.421	20.15
570.616	20.1
570.812	20.07
571.007	19.62
571.202	18.9
571.397	20.19
571.593	20.83
571.788	20.97
571.983	21.2
572.178	20.93
572.374	20.7
572.569	20.4
572.764	20.56
572.959	20.23
573.154	20.49
573.35	21.19
573.545	20.23
573.74	19.55
573.935	18.99
574.13	18.86
574.325	19.09
574.52	19.28
574.715	19.26
574.91	19.44
575.105	19.99
575.3	19.77
575.495	19.19
575.69	19.51
575.885	20.37
576.08	21.06
576.275	20.9
576.47	21.34
576.665	21.9
576.86	21.83
577.055	21.46
577.25	21.53
577.444	21.82
577.639	21.81
577.834	21.11
578.029	20.56
578.224	20.22
578.418	20.49
578.613	20.38
578.808	19.43
579.003	19.79
579.197	20.3
579.392	19.97
579.587	19.82
579.781	20.69
579.976	21.39
580.171	21.39
580.365	21.23
580.56	21.89
580.755	22.67
580.949	23.04
581.144	23.74
581.338	24.14
581.533	24.76
581.727	25.09
581.922	24.66
582.116	24.61
582.311	24.06
582.505	24.6
582.7	24.45
582.894	23.55
583.089	23.99
583.283	23.31
583.478	23.5
583.672	23.02
583.866	22.35
584.061	22.24
584.255	21.6
584.449	21.53
584.644	21.21
584.838	20.92
585.032	21.77
585.226	21.71
585.421	21.78
585.615	20.94
585.809	20.98
586.003	20.99
586.198	20.48
586.392	21.34
586.586	22.5
586.78	22.24
586.974	22.64
587.168	22.04
587.363	21.6
587.557	21.83
587.751	21.79
587.945	21.92
588.139	21.96
588.333	22.32
588.527	22.07
588.721	21.18
588.915	21.02
589.109	20
589.303	18.98
589.497	18.97
589.691	17.86
589.885	18.12
590.079	17.79
590.273	17.83
590.466	18.16
590.66	17.79
590.854	18.75
591.048	18.84
591.242	19.41
591.436	20.78
591.629	20.52
591.823	21.63
592.017	21.22
592.211	20.72
592.404	21.19
592.598	21.1
592.792	20.68
592.986	19.68
593.179	19.26
593.373	18.86
593.567	17.95
593.76	18.19
593.954	17.68
594.147	18.39
594.341	19.77
594.535	19.66
594.728	19.82
594.922	20.96
595.115	21.24
595.309	21.55
595.502	21.69
595.696	21.32
595.889	21.5
596.083	21.89
596.276	21.34
596.47	20.43
596.663	20.58
596.856	20.39
597.05	20.22
597.243	20.14
597.437	20.52
597.63	20.82
597.823	22.27
598.017	22.19
598.21	22.27
598.403	21.99
598.596	22.94
598.79	22.35
598.983	22.47
599.176	22.84
599.369	23.37
599.563	22.78
599.756	23.01
599.949	22.1
600.142	22
600.335	21.92
600.528	22.43
600.722	21.98
600.915	22.13
601.108	22.21
601.301	21.4
601.494	21.2
601.687	22.33
601.88	21.37
602.073	21.43
602.266	21.61
602.459	21.6
602.652	21.76
602.845	21.27
603.038	21.52
603.231	21.78
603.424	21.2
603.617	20.72
603.809	20.01
604.002	20.54
604.195	20.19
604.388	20.18
604.581	20.17
604.774	20.26
604.966	20.97
605.159	21.07
605.352	21.02
605.545	22.42
605.737	23.32
605.93	23.55
606.123	23.47
606.316	23.96
606.508	24.08
606.701	23.31
606.894	22.59
607.086	21.66
607.279	21.55
607.471	21.06
607.664	20.7
607.857	19.89
608.049	20.25
608.242	20.11
608.434	19.71
608.627	19.57
608.819	20.68
609.012	20.85
609.204	21.06
609.397	20.84
609.589	21.15
609.782	21.12
609.974	20.95
610.166	20.77
610.359	21.88
610.551	22.81
610.743	22.88
610.936	23.24
611.128	23.47
611.32	24.43
611.513	25.05
611.705	24.97
611.897	24.22
612.09	25.19
612.282	25.32
612.474	24.95
612.666	24.81
612.858	24.86
613.051	24.73
613.243	25.4
613.435	24.57
613.627	24.24
613.819	24.78
614.011	26.07
614.203	26.16
614.395	25.8
614.588	25.4
614.78	24.58
614.972	24.68
615.164	23.25
615.356	23.72
615.548	24.77
615.74	25.15
615.932	24.52
616.124	23.98
616.315	23.9
616.507	23.62
616.699	23.01
616.891	23.13
617.083	23.4
617.275	23.92
617.467	23.65
617.659	23.04
617.85	24.63
618.042	25.13
618.234	25.45
618.426	25.66
618.618	26.64
618.809	27.24
619.001	28.19
619.193	26.95
619.384	27.67
619.576	27.12
619.768	27.16
619.959	25.68
620.151	25.6
620.343	26.15
620.534	25.89
620.726	25.83
620.917	25.84
621.109	24.97
621.301	25.77
621.492	25.76
621.684	26.56
621.875	26.56
622.067	26.05
622.258	25.68
622.45	25.55
622.641	25.22
622.832	25.05
623.024	25.32
623.215	25.57
623.407	25.41
623.598	24.9
623.789	23.97
623.981	24.12
624.172	24.55
624.363	24.99
624.555	24.4
624.746	24.63
624.937	23.73
625.129	23.78
625.32	23.26
625.511	23.8
625.702	23.86
625.893	23.62
626.085	24.43
626.276	24.18
626.467	24.71
626.658	25.39
626.849	25.21
627.04	25.38
627.231	24.53
627.422	25.33
627.614	24.71
627.805	24.4
627.996	25.05
628.187	24.34
628.378	25.5
628.569	24.78
628.76	23.65
628.951	23.86
629.142	24.47
629.332	24.4
629.523	23.8
629.714	24.37
629.905	24.16
630.096	23.88
630.287	23.8
630.478	22.33
630.669	22.08
630.859	23.18
631.05	22.69
631.241	22.37
631.432	22.85
631.623	22.85
631.813	22.75
632.004	23.32
632.195	24.24
632.385	22.94
632.576	22.88
632.767	22.09
632.957	21.47
633.148	22.57
633.339	22.57
633.529	22.36
633.72	23.55
633.91	24.06
634.101	24.13
634.292	22.92
634.482	24.13
634.673	24.31
634.863	24.84
635.054	25.25
635.244	24.65
635.435	24.85
635.625	24.85
635.815	24.35
636.006	23.47
636.196	24.04
636.387	24.44
636.577	25.33
636.767	24.97
636.958	24.95
637.148	25.72
637.338	25.99
637.529	26.18
637.719	26.18
637.909	25.37
638.099	25.93
638.29	26.58
638.48	26.66
638.67	25.48
638.86	26.29
639.05	26.52
639.241	24.98
639.431	24.35
639.621	23.11
639.811	22.8
640.001	23.45
640.191	22.8
640.381	20.44
640.571	20.25
640.761	21.01
640.951	21
641.141	21.11
641.331	22.22
641.521	22.77
641.711	23.11
641.901	24.69
642.091	23.19
642.281	23.84
642.471	24.71
642.661	26.11
642.851	25.15
643.041	24.61
643.231	25.3
643.42	25.17
643.61	24.49
643.8	25.29
643.99	24.99
644.18	25.58
644.369	25.66
644.559	24.99
644.749	24.36
644.939	24.78
645.128	25.55
645.318	24.46
645.508	23.65
645.697	24.31
645.887	24.38
646.076	23.54
646.266	24.82
646.456	24.15
646.645	24.52
646.835	24.81
647.024	25.25
647.214	24.76
647.403	25.9
647.593	26.44
647.782	26.19
647.972	26.67
648.161	25.93
648.351	25.66
648.54	26.8
648.73	26.77
648.919	25.28
649.108	24.75
649.298	24.95
649.487	24.24
649.677	23.01
649.866	22.89
650.055	22.84
650.244	22.95
650.434	23.83
650.623	23.4
650.812	24.79
651.002	26.6
651.191	26.92
651.38	27.21
651.569	28.07
651.758	28.29
651.947	28.54
652.137	29.16
652.326	30.17
652.515	27.52
652.704	27.44
652.893	26.29
653.082	25.29
653.271	23.67
653.46	22.17
653.649	20.86
653.838	22.03
654.027	22.76
654.216	22.26
654.405	22.8
654.594	24.84
654.783	24.71
654.972	25.04
655.161	24.9
655.35	27.13
655.539	28.44
655.728	28.91
655.916	28.34
656.105	26.33
656.294	26.11
656.483	25.36
656.672	24.92
656.86	23.67
657.049	22.79
657.238	22.23
657.427	22.85
657.615	22.96
657.804	22.93
657.993	22.67
658.181	24.71
658.37	24.8
658.559	25.87
658.747	26.76
658.936	26.91
659.125	27.34
659.313	28.93
659.502	27.69
659.69	26.81
659.879	27.08
660.067	27.63
660.256	26.86
660.444	26.65
660.633	25.77
660.821	24.93
661.01	25.8
661.198	26
661.387	25.56
661.575	25.97
661.763	27.06
661.952	28.09
662.14	28.42
662.328	29.04
662.517	30.15
662.705	30.08
662.893	30.9
663.082	30.97
663.27	32.06
663.458	31.1
663.646	30.48
663.834	30.48
664.023	28.58
664.211	27.14
664.399	25.27
664.587	25.03
664.775	25.82
664.963	25.57
665.152	26.71
665.34	24.47
665.528	24.97
665.716	25.03
665.904	26.01
666.092	27.29
666.28	28.44
666.468	29.35
666.656	28.62
666.844	27.6
667.032	27.58
667.22	28.03
667.408	28.55
667.596	28.04
667.784	27.84
667.971	28.06
668.159	27.5
668.347	26.79
668.535	26.97
668.723	26.83
668.911	27.63
669.098	27.92
669.286	26.05
669.474	27.02
669.662	26.91
669.849	26.9
670.037	25.84
670.225	25.49
670.413	26.28
670.6	25.65
670.788	24.01
670.976	23.6
671.163	22.44
671.351	22.78
671.538	22.83
671.726	24.66
671.913	25.54
672.101	25.41
672.289	27.6
672.476	26.75
672.664	27.66
672.851	29.34
673.039	27.47
673.226	27.26
673.413	28.64
673.601	26.81
673.788	25.61
673.976	24.92
674.163	25.32
674.35	23.19
674.538	25.57
674.725	24.77
674.912	24.19
675.1	26.53
675.287	27.19
675.474	26.18
675.662	26.58
675.849	26.45
676.036	26.36
676.223	25.58
676.411	25.71
676.598	24.41
676.785	25.84
676.972	25.13
677.159	24.75
677.346	23.73
677.533	22.43
677.721	22.28
677.908	22.46
678.095	23.14
678.282	23.04
678.469	23.19
678.656	22.82
678.843	22.03
679.03	23.42
679.217	23.35
679.404	23.84
679.591	25.62
679.778	26.18
679.964	26.4
680.151	25.01
680.338	25.78
680.525	24.97
680.712	25.19
680.899	26.01
681.086	26.28
681.272	26.77
681.459	27.06
681.646	25.83
681.833	27.56
682.02	27.43
682.206	28.25
682.393	28.56
682.58	29.19
682.766	29.1
682.953	28.81
683.14	29.62
683.326	28.1
683.513	27.69
683.7	27.93
683.886	26.21
684.073	25.54
684.259	26.34
684.446	25.07
684.632	24.88
684.819	24.38
685.005	23.4
685.192	21.52
685.378	24.36
685.565	24.22
685.751	24.77
685.938	24.75
686.124	25.83
686.31	25.3
686.497	26.96
686.683	28.11
686.87	29.48
687.056	29.67
687.242	30.54
687.429	29.27
687.615	28.63
687.801	29.48
687.987	30.37
688.174	29.69
688.36	30.08
688.546	28.09
688.732	27.64
688.918	25.87
689.105	24.78
689.291	25.09
689.477	25.27
689.663	26.38
689.849	25.91
690.035	26.75
690.221	26.83
690.407	27.01
690.593	28.22
690.779	27.88
690.965	28.08
691.151	28.4
691.337	28.39
691.523	28.58
691.709	28.48
691.895	27.66
692.081	25.54
692.267	26.16
692.453	24.82
692.639	24.04
692.825	22.65
693.011	23.62
693.196	25.03
693.382	22.25
693.568	20.63
693.754	20.07
693.94	20.39
694.125	21.26
694.311	20.34
694.497	23.15
694.682	22.46
694.868	24.02
695.054	23.57
695.239	23.35
695.425	24.95
695.611	27.06
695.796	28.47
695.982	27.9
696.168	27.51
696.353	27.02
696.539	24.42
696.724	26.54
696.91	27.2
697.095	27.27
697.281	26.21
697.466	25.86
697.652	24.79
697.837	23.85
698.023	23.75
698.208	23.81
698.393	23.73
698.579	24.09
698.764	22.75
698.949	22.06
699.135	21.35
699.32	21.53
699.505	21.13
699.691	21.87
699.876	23.34
700.061	24.92
700.246	25.14
700.432	25.51
700.617	27.56
700.802	29.47
700.987	29.13
701.172	27.51
701.358	28.53
701.543	28.94
701.728	27.12
701.913	24.9
702.098	23.45
702.283	24.77
702.468	23.98
702.653	21.4
702.838	20.49
703.023	20.22
703.208	23.28
703.393	21.65
703.578	22.72
703.763	25.86
703.948	26.63
704.133	28.48
704.318	25.08
704.503	28.04
704.688	29.05
704.873	27.74
705.057	29.15
705.242	31.52
705.427	34.73
705.612	32.92
705.797	29.94
705.981	29.01
706.166	27.07
706.351	30.14
706.536	29.48
706.72	31.65
706.905	32.25
707.09	32.85
707.274	29.84
707.459	27.02
707.644	27.31
707.828	28.48
708.013	29.88
708.197	30.09
708.382	28.34
708.567	28.2
708.751	26.82
708.936	28.3
709.12	26.39
709.305	28.31
709.489	29.5
709.673	31.89
709.858	33.18
710.042	30.8
710.227	31.89
710.411	32.37
710.596	30.73
710.78	29.95
710.964	26.06
711.149	28.01
711.333	27.51
711.517	27.72
711.702	27.12
711.886	25.93
712.07	29.6
712.254	29.64
712.438	28.34
712.623	28.39
712.807	29.16
712.991	30.66
713.175	29.03
713.359	28.72
713.544	28.14
713.728	28.48
713.912	28.19
714.096	27.7
714.28	28.44
714.464	29.02
714.648	30.53
714.832	31.17
715.016	30.78
715.2	31.72
715.384	30.34
715.568	30.92
715.752	29.95
715.936	29.87
716.12	28.44
716.304	24.89
716.488	24.74
716.671	23.58
716.855	20.56
717.039	20.3
717.223	22.16
717.407	23.6
717.59	23.97
717.774	25.43
717.958	25.91
718.142	27.42
718.325	29.4
718.509	29.64
718.693	30.46
718.877	32.55
719.06	33.62
719.244	32.77
719.428	32.29
719.611	31.43
719.795	29.4
719.978	28.3
720.162	27.66
720.345	28.41
720.529	30.03
720.713	29.12
720.896	27.59
721.08	28.27
721.263	27.06
721.446	27.91
721.63	28.57
721.813	28.41
721.997	28.7
722.18	28.23
722.364	27.53
722.547	25.81
722.73	26.44
722.914	29.58
723.097	30.87
723.28	30.53
723.464	28.34
723.647	27.85
723.83	28.12
724.013	28.04
724.197	28.41
724.38	31.04
724.563	29.41
724.746	29.14
724.929	25.47
725.112	25.07
725.296	26.8
725.479	27.3
725.662	26.25
725.845	25.69
726.028	26.88
726.211	27.68
726.394	25.74
726.577	26.48
726.76	28.39
726.943	30
727.126	28.23
727.309	24.26
727.492	26.94
727.675	28.93
727.858	28.62
728.041	25.53
728.224	24.73
728.407	24.58
728.589	25.01
728.772	24.31
728.955	24.85
729.138	25.94
729.321	28.05
729.503	24.83
729.686	23.22
729.869	23.04
730.052	25.05
730.234	22.52
730.417	21.39
730.6	21.5
730.782	18.97
730.965	17.46
731.148	19.11
731.33	17.49
731.513	18.2
731.695	20.35
731.878	23.48
732.061	25.72
732.243	29.32
732.426	30.14
732.608	31.42
732.791	34.1
732.973	37.06
733.156	34.99
733.338	37.84
733.52	40.55
733.703	37.94
733.885	35.67
734.068	35.34
734.25	35.06
734.432	36.23
734.615	33.23
734.797	32.5
734.979	29.63
735.162	29.57
735.344	30.38
735.526	30.55
735.708	31.4
735.891	34.71
736.073	34.7
736.255	33.31
736.437	31.18
736.619	34.19
736.802	32.18
736.984	35.61
737.166	35.28
737.348	33.11
737.53	32.72
737.712	33.39
737.894	31.49
738.076	30.59
738.258	30.69
738.44	33.66
738.622	31.16
738.804	32.95
738.986	31.12
739.168	32.73
739.35	34.32
739.532	32.1
739.714	31.23
739.896	28.92
740.078	30.43
740.259	32.48
740.441	32.23
740.623	33.32
740.805	36.38
740.987	38.6
741.168	37.47
741.35	34
741.532	33.92
741.714	35.84
741.895	39.18
742.077	40.06
742.259	37.39
742.44	36.28
742.622	36.97
742.804	36.26
742.985	36.79
743.167	37.04
743.348	39.78
743.53	41.75
743.711	39.04
743.893	37.7
744.075	37.08
744.256	37.36
744.438	35.92
744.619	38.73
744.8	37.71
744.982	31.68
745.163	31.19
745.345	30.92
745.526	30.5
745.707	31.44
745.889	33.37
746.07	28.26
746.252	30.44
746.433	30.23
746.614	29.96
746.795	30.33
746.977	37.73
747.158	35.83
747.339	37.87
747.52	41.2
747.702	41.24
747.883	34.13
748.064	39.6
748.245	40.87
748.426	42.99
748.607	41.68
748.788	41.7
748.97	38.43
749.151	43.51
749.332	40.66
749.513	33.77
749.694	34.99
749.875	36.32
750.056	35.22
750.237	34.31
750.418	34.84
750.599	33.17
750.78	31.46
750.96	33.03
751.141	33.63
751.322	33.04
751.503	31.48
751.684	33.07
751.865	34.26
752.046	34.58
752.226	32.81
752.407	32.35
752.588	35.31
752.769	34.31
752.949	37.59
753.13	36.64
753.311	39.78
753.492	42.46
753.672	44.02
753.853	45.31
754.034	46.99
754.214	49.7
754.395	47.76
754.575	47.03
754.756	49.92
754.937	47.13
755.117	48.99
755.298	45.53
755.478	48.81
755.659	41.47
755.839	39.18
756.02	39.99
756.2	41.85
756.381	43.68
756.561	41.18
756.741	36.54
756.922	30.15
757.102	25.64
757.283	23.54
757.463	22.35
757.643	25.33
757.823	26.71
758.004	24.31
758.184	19.81
758.364	20.8
758.545	21.3
758.725	24.04
758.905	26.47
759.085	28.55
759.265	30.02
759.446	27.94
759.626	25.8
759.806	25.84
759.986	24.21
760.166	26.91
760.346	20.18
760.526	21.04
760.706	20.07
760.886	23.58
761.066	20.43
761.246	18.29
761.426	20.69
761.606	21.73
761.786	18.95
761.966	20.2
762.146	19.68
762.326	22.39
762.506	24.14
762.686	25.24
762.866	22.5
763.046	23.76
763.225	27.39
763.405	23.87
763.585	23.97
763.765	25.61
763.945	26.88
764.124	26.17
764.304	27.28
764.484	25.02
764.664	25.72
764.843	29.39
765.023	29.53
765.203	28.84
765.382	32.85
765.562	33.04
765.741	38.2
765.921	35.08
766.101	40.1
766.28	41.8
766.46	44.27
766.639	42.44
766.819	42.73
766.998	43.05
767.178	44.91
767.357	41.49
767.537	41.78
767.716	44.2
767.896	46.57
768.075	45.91
768.254	45.13
768.434	43.49
768.613	43.59
768.792	42.66
768.972	44.81
769.151	36.28
769.33	42.4
769.51	39.74
769.689	35.84
769.868	35.67
770.047	30.71
770.226	32.23
770.406	33.38
770.585	32.48
770.764	34.96
770.943	37.15
771.122	46.73
771.301	43.8
771.48	48.64
771.66	46.86
771.839	46.92
772.018	52.95
772.197	49.39
772.376	46.83
772.555	52.66
772.734	46.38
772.913	45.38
773.092	48.23
773.271	48.53
773.449	52.98
773.628	50.58
773.807	54.09
773.986	53.67
774.165	54.98
774.344	59.31
774.523	54.39
774.701	59.14
774.88	59.56
775.059	54.06
775.238	53.9
775.417	49.8
775.595	51.99
775.774	51.44
775.953	45.11
776.131	48.8
776.31	43.99
776.489	46.69
776.667	47.48
776.846	48.37
777.025	47.76
777.203	53.31
777.382	51.32
777.56	51.33
777.739	48.91
777.917	48.8
778.096	52.08
778.274	55.58
778.453	52.46
778.631	51.97
778.81	46.23
778.988	46.71
779.166	43.8
779.345	39.52
779.523	42.59
779.702	43.05
779.88	49.37
780.058	41.18
780.237	40.36
780.415	39.27
780.593	38.63
780.771	44.12
780.95	47.14
781.128	45.72
781.306	54.34
781.484	55.21
781.662	52.5
781.841	50.74
782.019	53.04
782.197	51.95
782.375	57.71
782.553	54.34
782.731	50.04
782.909	46.8
783.087	47.65
783.265	44.34
783.443	49.67
783.621	56.18
783.799	53.21
783.977	53.42
784.155	52.37
784.333	46.23
784.511	51.6
784.689	54.96
784.867	56.35
785.045	51.06
785.223	51.16
785.4	45.71
785.578	43.5
785.756	45.3
785.934	41.82
786.112	38.39
786.289	38.83
786.467	33.8
786.645	29.46
786.823	25.91
787	30.83
787.178	33.21
787.356	27.62
787.533	27.97
787.711	29.86
787.889	33.68
788.066	42.39
788.244	43.64
788.421	45.22
788.599	51.12
788.776	51.14
788.954	49.96
789.131	44.39
789.309	46.6
789.486	42.92
789.664	37.22
789.841	36.25
790.019	30.4
790.196	31.36
790.373	28.84
790.551	27.18
790.728	30.86
790.906	29.38
791.083	32.77
791.26	35.37
791.437	39.41
791.615	43.71
791.792	46.01
791.969	51.32
792.146	47.94
792.324	50.66
792.501	50.7
792.678	46.7
792.855	54.26
793.032	60.89
793.209	53.19
793.387	54.79
793.564	53.53
793.741	48.64
793.918	41.59
794.095	39.15
794.272	39.48
794.449	36.83
794.626	40.12
794.803	38.78
794.98	30.45
795.157	29.07
795.334	30.35
795.511	30.39
795.688	32.91
795.864	40.7
796.041	47.18
796.218	47.55
796.395	48.62
796.572	47.81
796.749	48.46
796.925	55.46
797.102	59.08
797.279	54.29
797.456	55.76
797.632	56.28
797.809	54.12
797.986	49.93
798.162	53.98
798.339	53.66
798.516	56.43
798.692	47.65
798.869	36.89
799.046	39.35
799.222	39.37
799.399	42.83
799.575	48.6
799.752	48.57
799.928	49.56
800.105	40.17
800.281	48.15
800.458	37.59
800.634	36.96
800.811	43.67
800.987	43.96
801.163	30.94
801.34	26.3
801.516	27.23
801.692	31.21
801.869	36.35
802.045	43.13
802.221	43.69
802.398	58.28
802.574	52.23
802.75	49.22
802.926	42.53
803.103	50.8
803.279	48.45
803.455	45.09
803.631	38.46
803.807	35.16
803.983	28.92
804.16	20.42
804.336	20.8
804.512	23.97
804.688	18.9
804.864	20.57
805.04	21.56
805.216	26.4
805.392	17.87
805.568	23.06
805.744	18.73
805.92	21
806.096	26.3
806.272	18.52
806.448	21.9
806.623	29.41
806.799	26.69
806.975	25.05
807.151	27.92
807.327	34.7
807.503	38.7
807.678	45.3
807.854	41.63
808.03	44.62
808.206	40.16
808.381	43.18
808.557	46.88
808.733	53.3
808.908	47.66
809.084	44.3
809.26	46.13
809.435	37.08
809.611	28.27
809.787	44.64
809.962	30.41
810.138	32.88
810.313	30.99
810.489	33.39
810.664	15.7
810.84	34.83
811.015	27.41
811.191	15.32
811.366	33.52
811.542	42.93
811.717	33.51
811.892	47.39
812.068	50.89
812.243	51.65
812.419	42.63
812.594	39.19
812.769	29.29
812.944	29.89
813.12	39.66
813.295	24.71
813.47	21.58
813.645	21.97
813.821	22.92
813.996	16.86
814.171	11.94
814.346	23.84
814.521	43.23
814.697	45.36
814.872	47.64
815.047	46.23
815.222	55.14
815.397	59.31
815.572	54.65
815.747	53.14
815.922	61.51
816.097	57.5
816.272	52.57
816.447	42.92
816.622	39.24
816.797	41.08
816.972	45.79
817.147	46.48
817.322	42.32
817.496	43.48
817.671	43.95
817.846	42.27
818.021	47.22
818.196	45.73
818.371	42.89
818.545	51.85
818.72	53.34
818.895	56.39
819.069	56.24
819.244	51.82
819.419	45.91
819.594	39.08
819.768	37.07
819.943	35.77
820.117	33.82
820.292	31.85
820.467	25.88
820.641	24.83
820.816	21.14
820.99	19.5
821.165	16.57
821.339	16.95
821.514	16.5
821.688	16.03
821.863	13.62
822.037	14.61
822.212	15.81
822.386	17.43
822.56	16.74
822.735	16.82
822.909	14.36
823.084	18.77
823.258	20.6
823.432	22.83
823.606	22.82
823.781	24.58
823.955	22.68
824.129	22.29
824.303	21.24
824.478	22.88
824.652	24.21
824.826	28.55
825	26.45
825.174	25.84
825.348	23.11
825.523	21.11
825.697	17.69
825.871	18.61
826.045	18.58
826.219	19.11
826.393	16.32
826.567	15.06
826.741	11.74
826.915	10.85
827.089	9.33
827.263	10.32
827.437	12.16
827.611	17.09
827.784	17.25
827.958	15.5
828.132	18.01
828.306	19.81
828.48	19.11
828.654	28.59
828.827	29.65
829.001	33.87
829.175	33.07
829.349	32.87
829.522	37.45
829.696	31.4
829.87	33.33
830.044	32.76
830.217	32.5
830.391	31.56
830.565	29.23
830.738	24.32
830.912	24.45
831.085	32.13
831.259	38.01
831.432	39.55
831.606	43.68
831.779	46.61
831.953	40.66
832.126	43.67
832.3	37.1
832.473	36.27
832.647	38.67
832.82	35.28
832.994	35.77
833.167	29.91
833.34	26.51
833.514	30.06
833.687	26.94
833.86	31.04
834.034	34.66
834.207	40.67
834.38	36.99
834.553	34.87
834.727	35.43
834.9	33.01
835.073	41.42
835.246	48.04
835.419	42.78
835.593	39.09
835.766	38.67
835.939	27.01
836.112	25.78
836.285	33.24
836.458	43.38
836.631	60.18
836.804	65.9
836.977	62.24
837.15	60.92
837.323	62.42
837.496	75.34
837.669	74.53
837.842	89.1
838.015	67.53
838.188	64.02
838.361	62.52
838.533	39.5
838.706	31.84
838.879	34.93
839.052	28.06
839.225	30.84
839.398	32.22
839.57	40.56
839.743	33.26
839.916	49.89
840.088	75.68
840.261	76.77
840.434	82.82
840.607	77.18
840.779	72.57
840.952	80.62
841.124	69.31
841.297	64.48
841.47	71.14
841.642	81.78
841.815	57.7
841.987	35.64
842.16	25.4
842.332	28.07
842.505	33.78
842.677	32.55
842.85	30.71
843.022	34.3
843.194	37.22
843.367	22.32
843.539	20.36
843.712	39.68
843.884	30.75
844.056	32.65
844.229	30.6
844.401	31.09
844.573	28.82
844.745	30.52
844.918	39.79
845.09	28.54
845.262	25.72
845.434	5.45
845.606	-7.13
845.779	-23.77
845.951	-25.26
846.123	-23.41
846.295	-0.67
846.467	-6.12
846.639	-96.09
846.811	-192.05
846.983	-95.48
847.155	-11.84
847.327	27.16
847.499	15.25
847.671	27.94
847.843	27.48
848.015	38.12
848.187	41.75
848.359	165.17
848.531	366.67
848.703	117.39
848.875	170.16
849.047	90.85
849.218	193.22
849.39	161.87
849.562	350.96
849.734	125.5
849.905	99.53
850.077	100.33
850.249	61.58
850.421	44.12
850.592	63.95
850.764	34.48
850.936	44.73
851.107	37.13
851.279	24.89
851.451	26.73
851.622	18.93
851.794	23.37
851.965	22.6
852.137	15.14
852.308	8.35
852.48	10.81
852.651	55.42
852.823	42.91
852.994	65.97
853.166	69.62
853.337	58.82
853.509	79.27
853.68	68.87
853.851	81.94
854.023	95.5
854.194	110.63
854.365	110.15
854.537	84.62
854.708	80.14
854.879	80.11
855.05	71.59
855.222	98.33
855.393	92.67
855.564	111.33
855.735	90.29
855.906	70.1
856.078	49.53
856.249	17.62
856.42	32.83
856.591	78.22
856.762	5.84
856.933	45.36
857.104	18.53
857.275	1.55
857.446	17.71
857.617	26.91
857.788	68.21
857.959	61.03
858.13	65.55
858.301	71.55
858.472	54.07
858.643	79.56
858.814	67.41
858.985	89.45
859.155	84.37
859.326	85.74
859.497	95.54
859.668	74.86
859.839	60.19
860.009	61.77
860.18	47.39
860.351	64.25
860.522	54.29
860.692	38.69
860.863	-0.2
861.034	17.65
861.204	15.25
861.375	19.49
861.546	10.73
861.716	85.67
861.887	52.48
862.057	64.94
862.228	67.9
862.398	76.16
862.569	113.72
862.739	134.82
862.91	105.61
863.08	91.21
863.251	93.38
863.421	87.45
863.592	70.82
863.762	79.67
863.932	95.42
864.103	76.92
864.273	80.72
864.443	64.82
864.614	57.73
864.784	60.95
864.954	62.46
865.125	51.85
865.295	52.22
865.465	60.61
865.635	54.06
865.805	48.83
865.976	58.26
866.146	57.16
866.316	56.15
866.486	67.41
866.656	78.73
866.826	91.94
866.996	106.55
867.166	116.07
867.336	120.66
867.506	135.29
867.676	149.58
867.846	155.18
868.016	201.12
868.186	278.32
868.356	310.1
868.526	922.92
868.696	25300
868.866	-192.94
869.036	288.99
869.206	298.39
869.376	500
869.545	128.33
869.715	-0.68
869.885	-143.07
870.055	-61.99
870.224	-46.75
870.394	-58.48
870.564	-51.33
870.734	-47.44
870.903	-126.29
871.073	-11.87
871.243	-36.47
871.412	-94.2
871.582	-32.26
871.751	-17.05
871.921	-14.44
872.091	-12.57
872.26	-0.26
872.43	48.43
872.599	39.9
872.769	54.87
872.938	53.65
873.108	56.89
873.277	41.54
873.446	49.15
873.616	51.99
873.785	64.04
873.955	71.61
874.124	63.14
874.293	49.8
874.463	35.55
874.632	14.29
874.801	4.38
874.971	1.89
875.14	14
875.309	3.92
875.478	-7.49
875.647	-15.76
875.817	-11.16
875.986	-20.72
876.155	-13.12
876.324	19.52
876.493	18.74
876.662	19.96
876.831	21.97
877	27.32
877.17	28.18
877.339	35.52
877.508	28.16
877.677	39.32
877.846	46.23
878.015	38.26
878.184	28.94
878.352	32.73
878.521	29.58
878.69	38.49
878.859	31.66
879.028	38.95
879.197	35.18
879.366	37.75
879.534	26.75
879.703	21.43
879.872	23.49
880.041	17.02
880.21	14.06
880.378	20.4
880.547	18.44
880.716	23.72
880.884	26.87
881.053	22.41
881.222	26.25
881.39	26.93
881.559	27.39
881.727	24.23
881.896	29.94
882.065	33.78
882.233	30.4
882.402	25.62
882.57	24.25
882.739	22.5
882.907	27.68
883.076	21.97
883.244	19.87
883.412	29.34
883.581	31.79
883.749	22.14
883.918	22.5
884.086	22.64
884.254	28.23
884.423	22.02
884.591	23.54
884.759	7.15
884.927	-11.22
885.096	0
885.264	-37.21
885.432	-41.76
885.6	-16.61
885.769	12.71
885.937	17.82
886.105	33.39
886.273	66.17
886.441	59.54
886.609	81.51
886.777	94.01
886.945	96.24
887.113	127.31
887.281	103.56
887.449	107.18
887.617	80.44
887.785	91.67
887.953	101.1
888.121	73.02
888.289	85.27
888.457	79.64
888.625	79.22
888.793	84.76
888.961	72.13
889.129	107.57
889.296	125.55
889.464	136.11
889.632	116.77
889.8	108.95
889.967	135.29
890.135	84.65
