Data from JASIL_3270_Reflection_1.txt Node
Date: Tue Nov 17 18:52:10 EST 2015
User: Geneva
Spectrometer: USB4E03002
Autoset integration time: false
Trigger mode: 4
Integration Time (sec): 1.000000E-1
Scans to average: 10
Electric dark correction enabled: false
Nonlinearity correction enabled: false
Boxcar width: 5
Stray light correction enabled: false
XAxis mode: Wavelengths
Stop averaging: false
Number of Pixels in Spectrum: 3648
>>>>>Begin Spectral Data<<<<<
177.575	154.46
177.794	148.48
178.014	190.03
178.233	120.64
178.452	147.85
178.672	174.32
178.891	179.37
179.11	181.54
179.33	232.15
179.549	219.66
179.768	159.21
179.987	180.61
180.207	197.12
180.426	159.78
180.645	309
180.864	356.12
181.084	528.86
181.303	-45800
181.522	-1118.67
181.741	-697.09
181.96	-299.2
182.179	-285.37
182.398	-383.89
182.618	-805.61
182.837	-2720.59
183.056	-1085.51
183.275	756.12
183.494	309.65
183.713	344.1
183.932	266.15
184.151	260.97
184.37	222.58
184.589	265.6
184.808	329.52
185.027	396.13
185.246	725.85
185.465	729.15
185.684	997.28
185.903	2157.35
186.122	990.78
186.341	-2300
186.56	-408.47
186.779	-362.32
186.998	-202.69
187.216	-267.82
187.435	-125.56
187.654	-98.43
187.873	-123.59
188.092	-86.57
188.311	-138.86
188.53	-666.67
188.748	-952.38
188.967	369.79
189.186	-1057.53
189.405	3350
189.623	-81700
189.842	585.09
190.061	307.85
190.28	425
190.498	471.43
190.717	3537.04
190.936	96200
191.154	1193.02
191.373	1105.26
191.592	403.88
191.81	465.24
192.029	478.28
192.248	-618.92
192.466	-513.97
192.685	-418.94
192.904	-453.95
193.122	-780.62
193.341	-662.35
193.559	-457.73
193.778	-440.25
193.996	-1132.11
194.215	-1653.85
194.433	-954.63
194.652	537.05
194.87	630.21
195.089	457.25
195.307	1301.23
195.526	-39166.67
195.744	105300
195.963	-1202.33
196.181	-451.53
196.399	-222.38
196.618	-207.5
196.836	-420.67
197.055	-346.67
197.273	-1077.33
197.491	-368.95
197.71	-582.58
197.928	1716.33
198.146	-1000
198.365	-592.04
198.583	3237.5
198.801	5668.75
199.019	-1790.2
199.238	-991.43
199.456	3756.67
199.674	-793.15
199.892	1656.76
200.111	-1057.55
200.329	-481.46
200.547	-2818.42
200.765	662.5
200.983	-14650
201.202	-3127.27
201.42	47100
201.638	-814.42
201.856	-192.43
202.074	-170.93
202.292	-110.81
202.51	-238.64
202.728	-221.96
202.946	-245.1
203.165	-171
203.383	-333.79
203.601	-332.1
203.819	-210.86
204.037	-210.84
204.255	-2883.33
204.473	497.52
204.691	326.42
204.909	320.98
205.127	323.53
205.345	574.11
205.562	-1086.89
205.78	-3237.5
205.998	430.51
206.216	480.62
206.434	507.32
206.652	2526.09
206.87	1092
207.088	-870.69
207.306	2391.3
207.523	-3382.35
207.741	3588.24
207.959	510.83
208.177	604.31
208.395	679.7
208.612	-1597.96
208.83	1472.58
209.048	699.34
209.266	929.91
209.483	524.88
209.701	477.1
209.919	638.03
210.136	424.86
210.354	675
210.572	657.56
210.79	-18940
211.007	604.04
211.225	1141.94
211.442	751.47
211.66	566.67
211.878	1126.17
212.095	2507.89
212.313	1466.67
212.53	-414.77
212.748	1942.42
212.966	-546.46
213.183	-2372.5
213.401	-929.09
213.618	20860
213.836	-716.42
214.053	-441.5
214.271	-309.92
214.488	-291.53
214.705	-576.87
214.923	-876.58
215.14	-1224.05
215.358	-1852.83
215.575	9610
215.793	-911.54
216.01	-404.46
216.227	-242.62
216.445	-203.59
216.662	-953.93
216.879	-657.64
217.097	-391.59
217.314	-265.4
217.531	-324.53
217.749	1309.26
217.966	1371.79
218.183	172.67
218.4	215.99
218.618	174.91
218.835	136.61
219.052	140.54
219.269	124.05
219.487	138.87
219.704	131.49
219.921	105.9
220.138	149.68
220.355	170.54
220.572	275.97
220.79	204.56
221.007	215.56
221.224	178.14
221.441	168.43
221.658	194.41
221.875	193.98
222.092	222.51
222.309	226.39
222.526	146.24
222.743	148.95
222.96	141.82
223.177	139.53
223.394	133.65
223.611	163.08
223.828	200.77
224.045	154.1
224.262	158.79
224.479	135.29
224.696	146.62
224.913	184.98
225.13	203.71
225.347	244.21
225.564	209.28
225.781	209.77
225.997	173.48
226.214	124.13
226.431	118.41
226.648	100
226.865	92.12
227.082	83.47
227.298	76.85
227.515	70.58
227.732	64.16
227.949	63.5
228.165	60.46
228.382	57.67
228.599	57.12
228.816	55.87
229.032	56.16
229.249	60.94
229.466	66.54
229.682	67.4
229.899	66.46
230.116	67.87
230.332	61.3
230.549	65.57
230.765	67.86
230.982	63.08
231.199	71.39
231.415	82.94
231.632	82.37
231.848	69.59
232.065	75.53
232.281	77.91
232.498	74.76
232.714	70.61
232.931	70.54
233.147	76.64
233.364	76.09
233.58	70.61
233.797	73.13
234.013	60.01
234.23	63.23
234.446	51.59
234.662	49.73
234.879	48.2
235.095	52.75
235.312	51.1
235.528	43.99
235.744	55.12
235.961	52.81
236.177	42.66
236.393	61.35
236.61	57.42
236.826	64.49
237.042	66.91
237.258	72.13
237.475	61.3
237.691	64.44
237.907	67.27
238.123	63.36
238.339	66.03
238.556	64.4
238.772	61.35
238.988	52.58
239.204	50.49
239.42	47.21
239.636	39.58
239.853	40.25
240.069	38.38
240.285	29.52
240.501	23.05
240.717	22.95
240.933	20.45
241.149	17.26
241.365	20.8
241.581	19.96
241.797	23.09
242.013	25.21
242.229	28.84
242.445	28.65
242.661	34.27
242.877	36.93
243.093	37.78
243.309	38.1
243.525	37.23
243.741	33.27
243.957	30.75
244.173	23.51
244.388	25.08
244.604	19.13
244.82	18.04
245.036	14.77
245.252	15.86
245.468	13.91
245.683	14.31
245.899	15.2
246.115	15.77
246.331	15.52
246.547	17
246.762	15.87
246.978	15.36
247.194	14.64
247.409	12.19
247.625	10.58
247.841	12.77
248.057	12.97
248.272	13.55
248.488	15.99
248.703	17.25
248.919	18.53
249.135	20.45
249.35	22.29
249.566	25.94
249.782	31.55
249.997	32.88
250.213	31.28
250.428	29.74
250.644	28.32
250.859	29.4
251.075	26.93
251.29	22.78
251.506	22.34
251.721	20.27
251.937	19.83
252.152	18.29
252.368	18.47
252.583	16.27
252.798	17.74
253.014	20.71
253.229	13.64
253.445	15.26
253.66	17.22
253.875	14.94
254.091	22.04
254.306	22.77
254.521	23.78
254.737	24.08
254.952	24.19
255.167	23.24
255.383	17.98
255.598	20.87
255.813	23.5
256.028	23.72
256.244	23.8
256.459	19.8
256.674	18.48
256.889	18.78
257.104	15.08
257.32	14.24
257.535	14.3
257.75	16.24
257.965	14.83
258.18	13.36
258.395	11.48
258.61	10.17
258.826	9.15
259.041	9.15
259.256	8.33
259.471	9.5
259.686	8.39
259.901	8.41
260.116	7.66
260.331	8.29
260.546	8.78
260.761	10.78
260.976	12.04
261.191	15.48
261.406	16.13
261.621	19.75
261.836	20.69
262.05	22.4
262.265	22.19
262.48	22.2
262.695	22.05
262.91	21.5
263.125	21.97
263.34	22.63
263.555	23.59
263.769	21.91
263.984	17.44
264.199	18.4
264.414	21.84
264.629	24.16
264.843	23.59
265.058	19.35
265.273	19.69
265.488	19.64
265.702	18.96
265.917	16.33
266.132	17.19
266.346	18.93
266.561	17.97
266.776	14.95
266.99	13.66
267.205	12.32
267.42	14.92
267.634	14.33
267.849	15.41
268.063	17.56
268.278	18.05
268.492	18.13
268.707	17.33
268.922	17.6
269.136	19
269.351	17.79
269.565	18.21
269.78	20.8
269.994	19.75
270.209	18.01
270.423	16.86
270.637	16.36
270.852	17.67
271.066	18.72
271.281	19.29
271.495	18.35
271.709	19.67
271.924	19.39
272.138	17.42
272.353	18.02
272.567	17.99
272.781	18.8
272.996	20.74
273.21	19.16
273.424	18.24
273.638	18.07
273.853	19.77
274.067	19.71
274.281	20.41
274.495	21.44
274.71	21.22
274.924	23.06
275.138	20.58
275.352	16.82
275.566	17.84
275.781	17.32
275.995	15.62
276.209	15.86
276.423	14.66
276.637	12.83
276.851	10.97
277.065	11.83
277.279	9.68
277.493	11.45
277.707	13.43
277.921	10.46
278.135	12.37
278.349	13.93
278.563	13.16
278.777	14.62
278.991	16.48
279.205	16.61
279.419	16.35
279.633	18.52
279.847	16.12
280.061	17.34
280.275	18.18
280.489	15.35
280.703	13.21
280.917	12.02
281.131	11.47
281.344	11.3
281.558	10.8
281.772	9.64
281.986	7.62
282.2	8.29
282.414	7.2
282.627	7.06
282.841	8.42
283.055	10.25
283.269	11.02
283.482	10.28
283.696	11.97
283.91	13.31
284.123	14.3
284.337	15.15
284.551	14.7
284.764	14.03
284.978	14.27
285.192	14.07
285.405	14.23
285.619	15.05
285.833	15.51
286.046	15.22
286.26	14.81
286.473	13.73
286.687	12.95
286.9	14.97
287.114	15.74
287.327	15.51
287.541	15.49
287.754	14.92
287.968	13.74
288.181	14.28
288.395	13.43
288.608	12.4
288.822	13.7
289.035	14.62
289.248	13.47
289.462	12.71
289.675	13.17
289.889	13.61
290.102	14.91
290.315	15.83
290.529	15.47
290.742	16.07
290.955	16.15
291.169	15.92
291.382	14.62
291.595	15.95
291.808	17.04
292.022	17.37
292.235	16.46
292.448	15.64
292.661	14.59
292.875	15.32
293.088	13.42
293.301	14
293.514	11.72
293.727	11.88
293.94	10.88
294.153	11.56
294.367	10.08
294.58	9.36
294.793	8.28
295.006	9.6
295.219	8.5
295.432	9.29
295.645	9.54
295.858	11.06
296.071	11.28
296.284	11.46
296.497	9.76
296.71	10.41
296.923	10.76
297.136	9.75
297.349	9.27
297.562	9.11
297.775	10.28
297.988	10.29
298.201	11.07
298.414	9.81
298.626	10.28
298.839	11.5
299.052	11.25
299.265	12.39
299.478	12.94
299.691	12.34
299.903	11.88
300.116	10.5
300.329	11.15
300.542	9.31
300.755	10.59
300.967	10.52
301.18	11.64
301.393	12.43
301.605	10.52
301.818	11.18
302.031	12.45
302.243	13.16
302.456	11.66
302.669	11.61
302.881	12.59
303.094	13.26
303.307	11.83
303.519	9.4
303.732	8.51
303.944	9.75
304.157	9.53
304.37	9.72
304.582	10.4
304.795	11.19
305.007	11.34
305.22	10.61
305.432	10.69
305.645	11.71
305.857	13.2
306.069	14.41
306.282	13.88
306.494	16.2
306.707	15.11
306.919	13.63
307.132	13.73
307.344	12.81
307.556	13.28
307.769	12.69
307.981	12.32
308.193	13.25
308.406	12.05
308.618	11.44
308.83	9.85
309.043	10.33
309.255	10.73
309.467	10.94
309.679	11.49
309.892	11.22
310.104	11.74
310.316	11.7
310.528	10.34
310.74	10.65
310.953	12.41
311.165	12.11
311.377	12.03
311.589	12.63
311.801	11.81
312.013	12.83
312.225	12.58
312.437	13.26
312.649	14.09
312.862	14.37
313.074	15.37
313.286	15.4
313.498	15.57
313.71	14.96
313.922	14.57
314.134	14.71
314.346	14.25
314.558	15.15
314.77	14.41
314.982	16.61
315.193	16.36
315.405	15.24
315.617	14.7
315.829	16.54
316.041	16.32
316.253	16.03
316.465	17.06
316.677	15.39
316.888	14.49
317.1	13.83
317.312	12.56
317.524	13.43
317.736	14.19
317.947	14.52
318.159	15.84
318.371	16.27
318.583	17.06
318.794	17.65
319.006	20.44
319.218	20.82
319.43	21.28
319.641	20.48
319.853	21.12
320.064	18.58
320.276	18.92
320.488	16.34
320.699	15.91
320.911	17.41
321.123	17.31
321.334	15.86
321.546	17.29
321.757	16.94
321.969	17.68
322.18	17.52
322.392	20.59
322.603	19.62
322.815	19.79
323.026	20.54
323.238	19.24
323.449	18.53
323.661	16.82
323.872	17.06
324.083	17.4
324.295	16.05
324.506	15.39
324.718	14.92
324.929	15.1
325.14	14.77
325.352	13.81
325.563	14.13
325.774	15.08
325.986	16.5
326.197	15.77
326.408	15.6
326.62	15.83
326.831	16.17
327.042	15.59
327.253	17.11
327.464	17.35
327.676	18.72
327.887	18.22
328.098	18.39
328.309	17.79
328.52	17.52
328.732	17.85
328.943	18.17
329.154	18.88
329.365	18.42
329.576	15.94
329.787	15.73
329.998	16.1
330.209	17.54
330.42	16.42
330.631	17.09
330.842	18.21
331.053	18.67
331.264	19.07
331.475	18.85
331.686	21.48
331.897	22.02
332.108	23.63
332.319	22.57
332.53	21.85
332.741	22.66
332.952	22.53
333.163	20.86
333.374	20.01
333.585	19.4
333.795	19.22
334.006	17.6
334.217	18.12
334.428	17.57
334.639	17.62
334.849	18.18
335.06	18.32
335.271	18.64
335.482	20.39
335.692	21.42
335.903	21.94
336.114	23.15
336.325	23.56
336.535	24.23
336.746	23.48
336.957	24.53
337.167	24.97
337.378	24.28
337.589	24.27
337.799	21.63
338.01	22.01
338.22	21.35
338.431	20.89
338.642	20.06
338.852	18.75
339.063	19.72
339.273	20.59
339.484	19.19
339.694	19.34
339.905	20.36
340.115	22.26
340.326	21.09
340.536	22.52
340.746	20.87
340.957	22.56
341.167	23.82
341.378	24.88
341.588	24.26
341.799	25.07
342.009	26.01
342.219	25.51
342.43	24.6
342.64	25.01
342.85	24.87
343.061	25.53
343.271	24.85
343.481	23.85
343.691	22.32
343.902	21.03
344.112	20.15
344.322	20.03
344.532	19.24
344.743	19.94
344.953	20.89
345.163	19.65
345.373	20.52
345.583	20.23
345.793	20.26
346.004	20.95
346.214	22.7
346.424	23.05
346.634	21.49
346.844	21.85
347.054	22.22
347.264	20.49
347.474	21.95
347.684	20.24
347.894	19.84
348.104	20.47
348.314	19.4
348.524	17.2
348.734	17.63
348.944	19.23
349.154	19.39
349.364	19.11
349.574	19.22
349.784	18.72
349.994	20.24
350.204	20.52
350.413	20.01
350.623	19.86
350.833	20.88
351.043	20.54
351.253	20.82
351.463	21.35
351.672	22.04
351.882	21.66
352.092	21.36
352.302	20.93
352.511	21.34
352.721	19.91
352.931	21.09
353.141	20.15
353.35	20.83
353.56	20.26
353.77	18.72
353.979	18.19
354.189	18.7
354.399	18.7
354.608	16.98
354.818	16.33
355.027	19.03
355.237	17.76
355.447	18.37
355.656	16.93
355.866	16.66
356.075	17.23
356.285	16.69
356.494	17.66
356.704	17.7
356.913	19.46
357.123	20.31
357.332	19.04
357.542	20.27
357.751	19.84
357.96	20.01
358.17	19.9
358.379	19.82
358.589	19.73
358.798	18.25
359.007	18.35
359.217	17.59
359.426	16.95
359.635	16.76
359.845	15.39
360.054	15.43
360.263	16.31
360.472	16.61
360.682	16.81
360.891	16.97
361.1	17.29
361.309	16.93
361.519	17.39
361.728	17.38
361.937	17.9
362.146	18.29
362.355	19.25
362.564	18.65
362.774	18.91
362.983	18.95
363.192	19.28
363.401	19.14
363.61	19.08
363.819	18.25
364.028	18.04
364.237	17.29
364.446	17.6
364.655	16.13
364.864	16.77
365.073	15.94
365.282	15.55
365.491	15.6
365.7	16.1
365.909	16.3
366.118	17
366.327	17.97
366.536	17.95
366.745	17.74
366.954	18.81
367.162	17.81
367.371	17.7
367.58	18.07
367.789	17.86
367.998	17.83
368.207	17.88
368.415	18.4
368.624	17.99
368.833	18.44
369.042	19.22
369.25	18.17
369.459	18.99
369.668	19.99
369.877	19.35
370.085	19.25
370.294	18.23
370.503	18.24
370.711	17.14
370.92	16.1
371.129	16.29
371.337	15.91
371.546	15.92
371.754	16.61
371.963	17.02
372.171	17.69
372.38	18.06
372.589	18.83
372.797	19.09
373.006	19.39
373.214	20.8
373.423	20.07
373.631	20.19
373.84	20.68
374.048	19.09
374.256	18.02
374.465	18.47
374.673	17.97
374.882	18
375.09	18.02
375.298	18.11
375.507	17.57
375.715	18.07
375.923	17.78
376.132	16.96
376.34	17.22
376.548	17.15
376.757	16.09
376.965	16.17
377.173	15.72
377.381	15.55
377.59	15.92
377.798	15.57
378.006	15.26
378.214	15.51
378.423	16.08
378.631	15.99
378.839	16.58
379.047	17.26
379.255	17.98
379.463	18.23
379.671	18.43
379.879	18.75
380.088	19.74
380.296	20.38
380.504	20.34
380.712	20.99
380.92	21.25
381.128	20.54
381.336	20.53
381.544	19.89
381.752	20.04
381.96	19.67
382.168	19.2
382.376	17.99
382.584	17.71
382.791	17.83
382.999	17.36
383.207	17.12
383.415	16.89
383.623	16.76
383.831	16.24
384.039	16.66
384.247	16.39
384.454	16.98
384.662	17.15
384.87	16.94
385.078	16.64
385.285	17.46
385.493	18.09
385.701	17.86
385.909	17.3
386.116	17.42
386.324	16.45
386.532	17.01
386.739	16.85
386.947	16.88
387.155	16.78
387.362	17.25
387.57	16.11
387.778	15.82
387.985	17.36
388.193	17.34
388.4	17.17
388.608	17.99
388.816	17.59
389.023	16.95
389.231	17.08
389.438	16.82
389.646	15.92
389.853	16.73
390.061	16.65
390.268	16.22
390.475	16.73
390.683	16.78
390.89	16.36
391.098	16.63
391.305	17.22
391.512	17.35
391.72	17.71
391.927	17.75
392.135	17.73
392.342	17.62
392.549	17.04
392.756	16.82
392.964	17.05
393.171	17.26
393.378	16.98
393.586	16.39
393.793	16.64
394	16.22
394.207	16.98
394.414	16.4
394.622	16.11
394.829	16.1
395.036	16.95
395.243	16.79
395.45	17.36
395.657	17.38
395.864	17.05
396.072	16.28
396.279	16.18
396.486	15.66
396.693	15.87
396.9	15.87
397.107	16.74
397.314	16.08
397.521	15.86
397.728	15.34
397.935	15.78
398.142	15.93
398.349	16.25
398.556	17.1
398.763	16.39
398.97	16.81
399.177	17.45
399.383	16.82
399.59	16.73
399.797	17.11
400.004	17.54
400.211	16.98
400.418	17.39
400.625	17.6
400.831	17.31
401.038	18.09
401.245	17.71
401.452	17.64
401.658	18.06
401.865	18.12
402.072	18.46
402.279	18.48
402.485	18.8
402.692	18.45
402.899	18.57
403.105	18.63
403.312	19.06
403.519	19.74
403.725	19.26
403.932	18.92
404.138	18.91
404.345	19.23
404.552	18.91
404.758	19.22
404.965	18.62
405.171	18.39
405.378	18.4
405.584	17.99
405.791	17.45
405.997	17.87
406.204	18.29
406.41	18.55
406.617	18.28
406.823	18.61
407.029	18.51
407.236	19.1
407.442	19.12
407.649	19.06
407.855	19.22
408.061	19.83
408.268	19.87
408.474	19.79
408.68	19.8
408.887	18.99
409.093	18.24
409.299	17.96
409.505	18.71
409.712	18.53
409.918	18.88
410.124	18.82
410.33	17.89
410.537	17.95
410.743	17.94
410.949	17.99
411.155	18.63
411.361	18.9
411.567	19
411.773	18.56
411.98	19.21
412.186	18.6
412.392	18.17
412.598	18.78
412.804	18.47
413.01	17.58
413.216	17.71
413.422	18.74
413.628	18.35
413.834	17.94
414.04	17.79
414.246	16.53
414.452	16.18
414.658	16.67
414.864	16.5
415.07	16.76
415.275	17.31
415.481	17.07
415.687	16.52
415.893	16.7
416.099	17.19
416.305	17.08
416.511	17.71
416.716	17.95
416.922	18.28
417.128	18.56
417.334	18.51
417.539	18.64
417.745	18.36
417.951	18.23
418.157	18.26
418.362	18.17
418.568	18.3
418.774	18.17
418.979	17.91
419.185	17.42
419.391	16.93
419.596	16.76
419.802	16.46
420.008	16.37
420.213	16.16
420.419	16.45
420.624	16.53
420.83	16.53
421.035	16.8
421.241	16.91
421.446	17.22
421.652	17.37
421.857	17.65
422.063	17.91
422.268	18.08
422.474	18.44
422.679	17.98
422.885	17.72
423.09	17.71
423.295	17.56
423.501	17.95
423.706	17.63
423.911	17.82
424.117	17.64
424.322	17.39
424.527	17.6
424.733	17.38
424.938	17.74
425.143	17.85
425.349	17.94
425.554	18.03
425.759	18.08
425.964	18.15
426.169	17.75
426.375	18.07
426.58	18.18
426.785	18.1
426.99	18.05
427.195	18.39
427.4	18.86
427.605	19.02
427.811	18.51
428.016	18.28
428.221	18.38
428.426	18.63
428.631	18.5
428.836	19.05
429.041	18.9
429.246	18.9
429.451	18.59
429.656	18.46
429.861	18.42
430.066	19.1
430.271	19.14
430.476	19.29
430.681	19.43
430.886	19.38
431.09	19.23
431.295	19.21
431.5	19.61
431.705	19.7
431.91	19.68
432.115	19.52
432.32	19.17
432.524	19.64
432.729	19.61
432.934	19.55
433.139	19.39
433.343	19.04
433.548	18.95
433.753	18.78
433.958	18.82
434.162	18.93
434.367	18.87
434.572	18.92
434.776	18.53
434.981	18.5
435.186	18.72
435.39	18.96
435.595	18.86
435.799	18.77
436.004	18.43
436.209	18.2
436.413	17.79
436.618	17.88
436.822	18.04
437.027	18.24
437.231	18.76
437.436	18.27
437.64	18.44
437.845	18.72
438.049	19.07
438.253	19.31
438.458	19.1
438.662	19.48
438.867	19.2
439.071	18.98
439.275	18.71
439.48	18.21
439.684	18.35
439.888	18.18
440.093	18.16
440.297	18.18
440.501	18.3
440.706	18.36
440.91	18.12
441.114	18.26
441.318	18.3
441.523	18.13
441.727	18.38
441.931	18.61
442.135	18.45
442.339	18.39
442.543	18.41
442.748	18.02
442.952	18.09
443.156	18.05
443.36	18.45
443.564	18.58
443.768	18.42
443.972	18.23
444.176	17.86
444.38	17.97
444.584	18.25
444.788	18.11
444.992	18.08
445.196	18.12
445.4	18.02
445.604	17.91
445.808	17.9
446.012	17.91
446.216	17.95
446.42	18.02
446.624	17.92
446.828	17.65
447.032	17.58
447.235	17.82
447.439	17.82
447.643	17.96
447.847	17.84
448.051	17.64
448.254	17.69
448.458	17.55
448.662	17.61
448.866	17.61
449.069	17.82
449.273	17.72
449.477	17.64
449.681	17.51
449.884	17.2
450.088	16.99
450.292	17.5
450.495	17.66
450.699	17.98
450.902	18.16
451.106	18.11
451.31	18.01
451.513	18.37
451.717	18.52
451.92	18.91
452.124	18.98
452.327	19.27
452.531	19.25
452.734	19.57
452.938	19.3
453.141	19.33
453.345	19.44
453.548	19.5
453.752	19.18
453.955	18.94
454.158	18.52
454.362	18.59
454.565	18.59
454.769	18.14
454.972	18.08
455.175	18.44
455.379	18.38
455.582	18.47
455.785	18.4
455.988	18.53
456.192	18.39
456.395	18.62
456.598	18.82
456.801	18.98
457.005	19.37
457.208	19
457.411	18.7
457.614	18.69
457.817	18.45
458.021	18.11
458.224	18.38
458.427	18.3
458.63	18.25
458.833	18.06
459.036	17.7
459.239	17.68
459.442	17.83
459.645	17.89
459.848	17.78
460.051	17.82
460.254	18.37
460.457	18.29
460.66	18.04
460.863	17.75
461.066	17.7
461.269	17.99
461.472	18.17
461.675	18.1
461.878	17.94
462.081	17.97
462.284	18
462.486	17.71
462.689	17.28
462.892	17.91
463.095	18.37
463.298	18.55
463.5	18.57
463.703	18.17
463.906	18.67
464.109	18.84
464.311	19.12
464.514	19.14
464.717	19.19
464.92	19.31
465.122	18.96
465.325	18.74
465.528	18.77
465.73	18.77
465.933	18.83
466.135	18.19
466.338	17.95
466.541	17.55
466.743	17.86
466.946	17.8
467.148	17.74
467.351	18.32
467.553	18.71
467.756	18.17
467.958	17.85
468.161	17.51
468.363	17.79
468.566	18.12
468.768	18.27
468.971	17.82
469.173	17.85
469.375	17.96
469.578	17.63
469.78	17.53
469.983	17.83
470.185	18.23
470.387	18.46
470.59	18.32
470.792	18.27
470.994	18.3
471.196	18.51
471.399	18.46
471.601	18.44
471.803	18.1
472.005	17.99
472.208	18.25
472.41	17.81
472.612	17.97
472.814	17.93
473.016	18.04
473.218	18.13
473.421	18.13
473.623	18.05
473.825	18.18
474.027	18.38
474.229	18.34
474.431	18.08
474.633	18.89
474.835	18.62
475.037	19
475.239	18.86
475.441	18.67
475.643	18.62
475.845	18.61
476.047	18.62
476.249	18.91
476.451	18.77
476.653	18.76
476.855	18.34
477.057	18.41
477.258	18.24
477.46	18.02
477.662	18.14
477.864	18.04
478.066	17.83
478.268	17.71
478.469	17.72
478.671	17.55
478.873	17.86
479.075	17.48
479.276	17.54
479.478	17.44
479.68	17.38
479.882	17.44
480.083	17.5
480.285	17.61
480.487	17.52
480.688	17.25
480.89	17.18
481.091	17.09
481.293	17.06
481.495	17.07
481.696	16.97
481.898	16.98
482.099	16.94
482.301	16.99
482.502	16.92
482.704	16.83
482.905	16.81
483.107	16.81
483.308	16.82
483.51	16.93
483.711	16.88
483.913	16.9
484.114	16.95
484.315	16.92
484.517	16.87
484.718	16.94
484.92	17.13
485.121	17.08
485.322	17.16
485.524	17.11
485.725	17.18
485.926	17.18
486.127	17.06
486.329	17.16
486.53	17.14
486.731	17.13
486.932	17.03
487.134	17.06
487.335	17.25
487.536	17.27
487.737	17.27
487.938	17.24
488.139	17.27
488.341	17.42
488.542	17.34
488.743	17.56
488.944	17.53
489.145	17.77
489.346	17.57
489.547	17.58
489.748	17.62
489.949	17.48
490.15	17.52
490.351	17.49
490.552	17.35
490.753	17.43
490.954	17.28
491.155	17.4
491.356	17.3
491.557	17.51
491.758	17.49
491.959	17.61
492.159	17.74
492.36	17.8
492.561	17.93
492.762	18.34
492.963	18.45
493.164	18.58
493.364	18.64
493.565	18.6
493.766	18.38
493.967	18.52
494.167	18.47
494.368	18.56
494.569	18.52
494.769	18.63
494.97	18.54
495.171	18.37
495.371	18.5
495.572	18.64
495.773	18.8
495.973	18.9
496.174	18.67
496.375	18.69
496.575	18.77
496.776	18.64
496.976	18.64
497.177	18.69
497.377	18.73
497.578	18.54
497.778	18.52
497.979	18.45
498.179	18.58
498.38	18.9
498.58	18.88
498.78	19
498.981	19.21
499.181	19.34
499.382	19.54
499.582	19.58
499.782	19.83
499.983	19.64
500.183	19.71
500.383	19.84
500.584	19.72
500.784	19.71
500.984	19.78
501.184	19.68
501.385	19.43
501.585	19.64
501.785	19.77
501.985	19.73
502.185	19.5
502.386	19.9
502.586	19.85
502.786	20.12
502.986	20.1
503.186	20.01
503.386	19.95
503.586	20.22
503.786	19.73
503.987	19.94
504.187	19.97
504.387	20.52
504.587	20.06
504.787	20.17
504.987	19.84
505.187	20.14
505.387	20.42
505.587	20.4
505.786	20.5
505.986	20.48
506.186	20.25
506.386	20.39
506.586	20.44
506.786	20.86
506.986	20.8
507.186	20.98
507.386	20.96
507.585	20.88
507.785	20.79
507.985	20.67
508.185	20.54
508.384	20.49
508.584	20.54
508.784	20.5
508.984	20.39
509.183	20.52
509.383	20.65
509.583	20.56
509.782	20.33
509.982	20.75
510.182	20.89
510.381	21.13
510.581	21.09
510.781	21
510.98	20.94
511.18	21.12
511.379	20.96
511.579	20.8
511.778	20.61
511.978	20.81
512.177	20.57
512.377	20.46
512.576	20.6
512.776	20.65
512.975	20.46
513.175	20.55
513.374	20.76
513.573	20.93
513.773	21.11
513.972	21.62
514.172	21.67
514.371	22.24
514.57	22.21
514.77	22.22
514.969	22.6
515.168	22.66
515.367	22.52
515.567	22.1
515.766	22.07
515.965	22.04
516.164	21.96
516.364	22.24
516.563	21.85
516.762	21.77
516.961	21.77
517.16	21.47
517.359	21.49
517.559	21.59
517.758	21.77
517.957	21.95
518.156	22.1
518.355	22.14
518.554	22.27
518.753	22.48
518.952	22.84
519.151	23.07
519.35	23.33
519.549	23.65
519.748	23.85
519.947	23.99
520.146	23.83
520.345	23.83
520.544	23.95
520.743	23.43
520.942	23.61
521.141	23.45
521.339	23.35
521.538	23.53
521.737	23.35
521.936	23.27
522.135	23.34
522.333	23.25
522.532	23.38
522.731	23.08
522.93	23.3
523.129	23.33
523.327	23.33
523.526	23.71
523.725	23.5
523.923	23.56
524.122	23.55
524.321	23.39
524.519	23.7
524.718	23.73
524.917	23.89
525.115	24.03
525.314	24.06
525.512	23.89
525.711	23.64
525.909	23.73
526.108	23.63
526.306	23.7
526.505	23.77
526.703	23.65
526.902	23.49
527.1	23.41
527.299	23.28
527.497	23.14
527.696	23.35
527.894	23.39
528.092	23.27
528.291	23.45
528.489	23.39
528.688	23.42
528.886	23.54
529.084	23.69
529.283	23.86
529.481	24.09
529.679	24.18
529.877	24.17
530.076	24.22
530.274	24.69
530.472	24.59
530.67	24.82
530.869	25.04
531.067	25
531.265	25.08
531.463	24.95
531.661	24.93
531.859	25.02
532.057	24.91
532.255	24.93
532.454	24.81
532.652	25.06
532.85	25.12
533.048	25.04
533.246	25.1
533.444	25.1
533.642	25.31
533.84	25.48
534.038	25.56
534.236	25.65
534.434	25.85
534.632	26.12
534.83	26.14
535.027	26.13
535.225	25.96
535.423	25.88
535.621	25.87
535.819	25.81
536.017	25.67
536.215	25.62
536.412	25.77
536.61	25.75
536.808	25.76
537.006	25.79
537.203	26
537.401	26.17
537.599	26.44
537.797	26.92
537.994	27.02
538.192	27.21
538.39	27.47
538.587	27.47
538.785	27.49
538.983	27.46
539.18	27.37
539.378	27.07
539.575	27
539.773	26.97
539.97	26.81
540.168	26.93
540.366	26.93
540.563	26.97
540.761	27.13
540.958	27.11
541.155	27.11
541.353	27.09
541.55	27.33
541.748	27.64
541.945	27.82
542.143	27.91
542.34	28.07
542.537	28.18
542.735	28.26
542.932	28.28
543.129	28.58
543.327	28.73
543.524	28.97
543.721	28.89
543.919	28.62
544.116	28.6
544.313	28.94
544.51	28.82
544.708	28.88
544.905	29.06
545.102	29.18
545.299	29.17
545.496	29.26
545.693	29.41
545.891	29.6
546.088	30.05
546.285	29.87
546.482	29.68
546.679	29.95
546.876	30.11
547.073	30.04
547.27	29.99
547.467	29.91
547.664	29.82
547.861	29.99
548.058	29.8
548.255	29.69
548.452	30.16
548.649	30.5
548.846	30.4
549.043	30.52
549.24	30.53
549.437	30.81
549.633	31.01
549.83	31.06
550.027	30.65
550.224	31.04
550.421	31.12
550.618	31.31
550.814	31.1
551.011	31.08
551.208	30.9
551.405	31.04
551.601	31.17
551.798	31.22
551.995	31.31
552.191	31.36
552.388	31.32
552.585	31.01
552.781	30.82
552.978	30.58
553.175	30.84
553.371	31.07
553.568	31.41
553.764	31.44
553.961	31.43
554.157	31.76
554.354	31.59
554.55	32.02
554.747	32.25
554.943	32.38
555.14	32.7
555.336	32.55
555.533	32.61
555.729	32.17
555.926	32.15
556.122	32.75
556.318	32.48
556.515	33.42
556.711	33.52
556.907	33.77
557.104	33.81
557.3	34.05
557.496	34.07
557.693	34.01
557.889	34.15
558.085	34.35
558.281	34.09
558.478	34.43
558.674	34.29
558.87	34.04
559.066	34.07
559.262	34.47
559.459	34.41
559.655	34.86
559.851	35.13
560.047	35.15
560.243	35.08
560.439	34.84
560.635	34.54
560.831	34.45
561.027	34.59
561.223	35.03
561.419	34.74
561.615	34.95
561.811	34.94
562.007	34.97
562.203	35.3
562.399	34.93
562.595	35.31
562.791	35.3
562.987	35.25
563.183	35.5
563.379	35.14
563.575	35.17
563.771	35.06
563.966	35.24
564.162	35.16
564.358	35.45
564.554	35.81
564.75	35.47
564.945	35.67
565.141	35.47
565.337	35.34
565.533	35.73
565.728	35.76
565.924	35.8
566.12	35.45
566.315	35.55
566.511	35.07
566.707	35.19
566.902	35.38
567.098	35.8
567.293	36.49
567.489	36.43
567.684	36.48
567.88	36.64
568.076	36.29
568.271	36.43
568.467	36.21
568.662	36.49
568.858	36.27
569.053	36.59
569.248	35.9
569.444	35.77
569.639	35.71
569.835	35.38
570.03	35.48
570.225	36.14
570.421	35.95
570.616	35.73
570.812	35.68
571.007	35.77
571.202	35.86
571.397	36.33
571.593	36.24
571.788	36.67
571.983	37.06
572.178	37.17
572.374	36.76
572.569	37.2
572.764	38.14
572.959	38
573.154	38.37
573.35	38.54
573.545	38.7
573.74	39.06
573.935	38.47
574.13	38.35
574.325	38.14
574.52	38.24
574.715	37.82
574.91	37.34
575.105	37.5
575.3	37.4
575.495	37.62
575.69	37.52
575.885	37.32
576.08	37.68
576.275	37.87
576.47	37.94
576.665	38.01
576.86	38.28
577.055	38.47
577.25	38.44
577.444	38.64
577.639	37.84
577.834	37.64
578.029	37.14
578.224	37.38
578.418	36.91
578.613	37.03
578.808	37.03
579.003	37.04
579.197	36.86
579.392	37.09
579.587	36.88
579.781	37.32
579.976	37.49
580.171	38.17
580.365	38.27
580.56	38.73
580.755	39.01
580.949	39.21
581.144	39.55
581.338	39.96
581.533	40.27
581.727	40.51
581.922	40.79
582.116	40.71
582.311	40.4
582.505	39.99
582.7	40.01
582.894	40.11
583.089	39.72
583.283	39.73
583.478	39.6
583.672	39.71
583.866	39.43
584.061	39.12
584.255	39.69
584.449	39.52
584.644	39.85
584.838	39.49
585.032	39.53
585.226	40.33
585.421	40.41
585.615	40.94
585.809	41.05
586.003	40.94
586.198	41.08
586.392	40.51
586.586	40.79
586.78	40.64
586.974	41.07
587.168	41.14
587.363	40.76
587.557	40.81
587.751	40.41
587.945	40.48
588.139	41.13
588.333	41.18
588.527	41.78
588.721	41.76
588.915	42.06
589.109	41.88
589.303	41.98
589.497	42.43
589.691	42.34
589.885	42.33
590.079	42.19
590.273	41.74
590.466	41.09
590.66	41.09
590.854	41.07
591.048	41.07
591.242	41.07
591.436	40.38
591.629	40.4
591.823	40.74
592.017	40.69
592.211	40.54
592.404	40.37
592.598	41.07
592.792	40.5
592.986	40.73
593.179	40.63
593.373	40.28
593.567	40.77
593.76	40.44
593.954	40.48
594.147	40.66
594.341	40.08
594.535	40.46
594.728	40.36
594.922	40.66
595.115	40.68
595.309	40.58
595.502	40.89
595.696	40.69
595.889	40.53
596.083	40.44
596.276	40.41
596.47	41.13
596.663	41.38
596.856	41.32
597.05	41.65
597.243	41.96
597.437	41.93
597.63	42.14
597.823	42.03
598.017	42.6
598.21	42.45
598.403	42.49
598.596	42.53
598.79	41.66
598.983	41.56
599.176	41.3
599.369	41.12
599.563	41.27
599.756	41.67
599.949	41.84
600.142	41.18
600.335	41.13
600.528	41.15
600.722	41.16
600.915	41.78
601.108	41.92
601.301	42
601.494	41.58
601.687	41.78
601.88	41.21
602.073	41.42
602.266	41.71
602.459	41.9
602.652	41.91
602.845	41.68
603.038	41.3
603.231	41.14
603.424	40.78
603.617	40.67
603.809	40.49
604.002	40.67
604.195	40.49
604.388	39.86
604.581	39.97
604.774	40.01
604.966	40.07
605.159	40.49
605.352	40.52
605.545	40.64
605.737	41.26
605.93	41.43
606.123	41.34
606.316	41.74
606.508	42.66
606.701	42.75
606.894	42.42
607.086	42.55
607.279	42.55
607.471	42.93
607.664	43.11
607.857	43.06
608.049	43.22
608.242	43.72
608.434	43.68
608.627	43.49
608.819	43.36
609.012	43.49
609.204	43.41
609.397	43.37
609.589	43.28
609.782	43.15
609.974	42.97
610.166	43.24
610.359	42.92
610.551	42.78
610.743	43.01
610.936	42.76
611.128	43.21
611.32	43.33
611.513	43.65
611.705	43.96
611.897	44.22
612.09	44.42
612.282	43.81
612.474	43.37
612.666	43.29
612.858	43.06
613.051	43.1
613.243	42.86
613.435	42.82
613.627	42.55
613.819	42.1
614.011	42.96
614.203	43.12
614.395	43.58
614.588	44.45
614.78	44.88
614.972	45.23
615.164	45.57
615.356	45.37
615.548	44.87
615.74	45.08
615.932	45.29
616.124	44.27
616.315	44.46
616.507	44.88
616.699	44.68
616.891	44.58
617.083	44.44
617.275	44.58
617.467	45.01
617.659	45.37
617.85	45.72
618.042	45.93
618.234	46.01
618.426	45.98
618.618	45.91
618.809	45.22
619.001	45.33
619.193	45.69
619.384	45.51
619.576	44.91
619.768	44.82
619.959	44.54
620.151	44.85
620.343	45.26
620.534	45.44
620.726	45.37
620.917	46.04
621.109	45.06
621.301	45.15
621.492	45.22
621.684	45.46
621.875	46.25
622.067	46.04
622.258	45.52
622.45	45.42
622.641	45.22
622.832	44.74
623.024	44.02
623.215	44.52
623.407	44.07
623.598	44.08
623.789	44.3
623.981	44.5
624.172	44.8
624.363	45.38
624.555	45.43
624.746	45.67
624.937	45.79
625.129	46.58
625.32	46.69
625.511	46.8
625.702	47.03
625.893	46.64
626.085	45.88
626.276	45.96
626.467	45.29
626.658	45
626.849	44.47
627.04	44.47
627.231	43.9
627.422	44.15
627.614	44.11
627.805	43.7
627.996	44.29
628.187	44.3
628.378	43.86
628.569	43.7
628.76	44.21
628.951	44.24
629.142	44.16
629.332	44.41
629.523	44.4
629.714	44.05
629.905	43.52
630.096	42.9
630.287	43.37
630.478	42.87
630.669	43.63
630.859	43.45
631.05	43.81
631.241	43.62
631.432	43.82
631.623	43.6
631.813	43.93
632.004	44.48
632.195	44.4
632.385	44.02
632.576	44.9
632.767	44.84
632.957	44.62
633.148	44.14
633.339	44.94
633.529	44.76
633.72	45.3
633.91	44.8
634.101	44.66
634.292	45.11
634.482	45.36
634.673	45.33
634.863	45.17
635.054	45.29
635.244	45.27
635.435	45.02
635.625	44.88
635.815	44.88
636.006	45.22
636.196	45.63
636.387	45.84
636.577	45.64
636.767	45.55
636.958	45.53
637.148	45.96
637.338	45.84
637.529	45.77
637.719	46.75
637.909	46.14
638.099	46.38
638.29	46.21
638.48	45.74
638.67	45.7
638.86	45.86
639.05	45.68
639.241	45.54
639.431	45.93
639.621	45.62
639.811	45.38
640.001	45.17
640.191	45.66
640.381	45.59
640.571	45.51
640.761	45.91
640.951	46.26
641.141	46.45
641.331	46.12
641.521	46.13
641.711	47.21
641.901	46.07
642.091	46.84
642.281	45.97
642.471	46.22
642.661	47.54
642.851	47.86
643.041	47.38
643.231	47.05
643.42	46.95
643.61	46.33
643.8	45.28
643.99	45.97
644.18	46.26
644.369	46.62
644.559	46.01
644.749	45.05
644.939	44.6
645.128	45.16
645.318	46.37
645.508	46.96
645.697	47.47
645.887	47.49
646.076	47.12
646.266	46.91
646.456	46.87
646.645	47.18
646.835	46.95
647.024	47.49
647.214	47.15
647.403	46.14
647.593	44.79
647.782	45.61
647.972	45.46
648.161	46.66
648.351	46.28
648.54	46.85
648.73	47.73
648.919	47.7
649.108	46.6
649.298	46.64
649.487	47.26
649.677	48.25
649.866	48.26
650.055	48.78
650.244	48.19
650.434	47.79
650.623	47.3
650.812	46.35
651.002	46.26
651.191	47.11
651.38	46.46
651.569	46.48
651.758	46.22
651.947	45.2
652.137	45.15
652.326	44.78
652.515	45.15
652.704	45.77
652.893	45.95
653.082	46.31
653.271	45.64
653.46	46.65
653.649	46.29
653.838	46.78
654.027	47.84
654.216	48.11
654.405	48.51
654.594	48.29
654.783	48
654.972	48.7
655.161	48.76
655.35	49.06
655.539	48.14
655.728	48.02
655.916	47.59
656.105	47.04
656.294	46.52
656.483	45.81
656.672	45.41
656.86	45.35
657.049	44.59
657.238	44.52
657.427	44.85
657.615	45.57
657.804	45.83
657.993	45.91
658.181	46.06
658.37	46.54
658.559	46.77
658.747	47.17
658.936	47.46
659.125	47.98
659.313	47.63
659.502	47.78
659.69	48.34
659.879	48.7
660.067	48.77
660.256	48.44
660.444	47.92
660.633	48.22
660.821	48.88
661.01	48.61
661.198	49.01
661.387	49.58
661.575	49.63
661.763	48.36
661.952	48.61
662.14	48.62
662.328	48.97
662.517	49.08
662.705	49.27
662.893	48.95
663.082	48.9
663.27	47.82
663.458	47.88
663.646	47.21
663.834	47.4
664.023	46.49
664.211	46.79
664.399	46.38
664.587	46.56
664.775	47.13
664.963	47.14
665.152	47.51
665.34	48.44
665.528	48.23
665.716	48.51
665.904	48.19
666.092	48.05
666.28	47.63
666.468	48.51
666.656	48.25
666.844	47.09
667.032	47.44
667.22	46.9
667.408	46.57
667.596	47.25
667.784	47.29
667.971	47.55
668.159	48.15
668.347	48.24
668.535	47.31
668.723	48.04
668.911	48.87
669.098	48.67
669.286	48.95
669.474	48.83
669.662	48.45
669.849	49.01
670.037	49.49
670.225	49.2
670.413	49.86
670.6	50.29
670.788	49.85
670.976	49.76
671.163	48.89
671.351	49.11
671.538	49.59
671.726	49.46
671.913	49.04
672.101	48.49
672.289	48.99
672.476	48.71
672.664	48.22
672.851	48.6
673.039	49.33
673.226	50.43
673.413	50.4
673.601	48.99
673.788	49.33
673.976	49.98
674.163	51.35
674.35	50.53
674.538	50.63
674.725	51.5
674.912	51.21
675.1	49.86
675.287	49.85
675.474	50.23
675.662	51.08
675.849	50.04
676.036	49.57
676.223	48.31
676.411	48.42
676.598	48.22
676.785	48.02
676.972	48.02
677.159	48.52
677.346	48.43
677.533	48.32
677.721	47.99
677.908	49.11
678.095	49.81
678.282	50.38
678.469	50.22
678.656	49.86
678.843	49.33
679.03	49.99
679.217	49.86
679.404	49.85
679.591	49.19
679.778	49.31
679.964	47.99
680.151	47.08
680.338	46.96
680.525	47.3
680.712	48.06
680.899	48.38
681.086	47.76
681.272	47.78
681.459	47.98
681.646	48.59
681.833	49.27
682.02	50.6
682.206	50.55
682.393	50.81
682.58	51.02
682.766	50.9
682.953	52.13
683.14	52.08
683.326	51.59
683.513	50.64
683.7	50.97
683.886	50.68
684.073	49.29
684.259	50.32
684.446	49.38
684.632	49.49
684.819	48.09
685.005	46.84
685.192	46.92
685.378	48.17
685.565	48.91
685.751	47.83
685.938	48.05
686.124	48.9
686.31	48.42
686.497	48.61
686.683	48.08
686.87	49.34
687.056	48.68
687.242	49.43
687.429	49.82
687.615	50.55
687.801	50.95
687.987	51.11
688.174	51.79
688.36	52.22
688.546	53.23
688.732	53.19
688.918	52.88
689.105	53.66
689.291	53.11
689.477	52.13
689.663	50.94
689.849	50.97
690.035	51.35
690.221	51.46
690.407	51.54
690.593	50.11
690.779	50.56
690.965	50.23
691.151	50.28
691.337	50.99
691.523	50.97
691.709	51.04
691.895	50.35
692.081	49.21
692.267	49.15
692.453	48.1
692.639	50.35
692.825	50.47
693.011	50.97
693.196	51.49
693.382	51.49
693.568	52.14
693.754	52.51
693.94	54.46
694.125	54.95
694.311	55.05
694.497	55.44
694.682	53.28
694.868	53.49
695.054	54.02
695.239	54.82
695.425	53.63
695.611	53.06
695.796	52.75
695.982	52.14
696.168	52.16
696.353	50.95
696.539	50.4
696.724	50.74
696.91	50.75
697.095	50.49
697.281	49.28
697.466	48.4
697.652	48.63
697.837	48.44
698.023	48.33
698.208	48.64
698.393	48.83
698.579	49.43
698.764	49.73
698.949	49.95
699.135	50.65
699.32	51.86
699.505	53.23
699.691	53.57
699.876	52.83
700.061	51.97
700.246	51.37
700.432	51.88
700.617	51.85
700.802	52.65
700.987	51.81
701.172	51.52
701.358	50.68
701.543	51.18
701.728	50.09
701.913	51.15
702.098	51.83
702.283	53.14
702.468	54.38
702.653	52.72
702.838	51.47
703.023	52.2
703.208	51.21
703.393	51.56
703.578	50.71
703.763	51.08
703.948	52.84
704.133	52.66
704.318	51.78
704.503	50.24
704.688	51.62
704.873	52.34
705.057	52.01
705.242	51.75
705.427	51.34
705.612	52.15
705.797	53.42
705.981	52.44
706.166	52.74
706.351	52.13
706.536	53.69
706.72	54.25
706.905	54.19
707.09	54.62
707.274	54.73
707.459	56.16
707.644	56.02
707.828	54.43
708.013	54.45
708.197	54.95
708.382	56.14
708.567	55.02
708.751	54.52
708.936	53.46
709.12	53.18
709.305	54.16
709.489	52.17
709.673	51.6
709.858	51.89
710.042	52.13
710.227	52.8
710.411	52.4
710.596	52.06
710.78	52.57
710.964	53.49
711.149	53.53
711.333	53.72
711.517	54.26
711.702	54.27
711.886	54.27
712.07	55.22
712.254	54.24
712.438	54.28
712.623	53.83
712.807	54.84
712.991	53.81
713.175	53.87
713.359	53.81
713.544	54.48
713.728	54.66
713.912	55.42
714.096	53.43
714.28	54.01
714.464	53.71
714.648	54.95
714.832	52.74
715.016	52.41
715.2	52.26
715.384	52.45
715.568	53.28
715.752	53.59
715.936	52.66
716.12	53.81
716.304	53.69
716.488	52.75
716.671	51.72
716.855	51.82
717.039	52.82
717.223	52.65
717.407	53.76
717.59	53.84
717.774	54.74
717.958	55.43
718.142	55.71
718.325	56.62
718.509	58.67
718.693	61.24
718.877	61.69
719.06	62.04
719.244	61.77
719.428	60.32
719.611	61.71
719.795	60.37
719.978	61.45
720.162	61.99
720.345	61.5
720.529	59.61
720.713	59.74
720.896	60.69
721.08	60.7
721.263	62.66
721.446	60.86
721.63	57.56
721.813	58.16
721.997	57.38
722.18	54.15
722.364	55.77
722.547	55.76
722.73	55.35
722.914	54.95
723.097	56.81
723.28	56.74
723.464	57.78
723.647	58.58
723.83	59.06
724.013	57.65
724.197	59
724.38	56.54
724.563	57.58
724.746	56.47
724.929	57.09
725.112	55.01
725.296	53.86
725.479	53.97
725.662	53.77
725.845	54.03
726.028	54.79
726.211	54.36
726.394	56.3
726.577	56.1
726.76	57.05
726.943	56.09
727.126	57.09
727.309	56.98
727.492	57.1
727.675	56.95
727.858	57.19
728.041	56.98
728.224	57.66
728.407	55.62
728.589	54.78
728.772	53.46
728.955	53.01
729.138	52.17
729.321	52.04
729.503	49.91
729.686	50.41
729.869	48.72
730.052	49.44
730.234	50.52
730.417	51.4
730.6	52.24
730.782	52.6
730.965	53.95
731.148	53.56
731.33	53.98
731.513	55.08
731.695	55.39
731.878	56.29
732.061	57.03
732.243	58.22
732.426	58.42
732.608	58.19
732.791	59.61
732.973	60.56
733.156	62.61
733.338	62.14
733.52	63.61
733.703	61.44
733.885	62.5
734.068	62.86
734.25	61.46
734.432	61.82
734.615	63.38
734.797	62.97
734.979	62.43
735.162	60.23
735.344	60.44
735.526	61.42
735.708	61.95
735.891	60.17
736.073	57.92
736.255	58.54
736.437	57.91
736.619	59.33
736.802	58.77
736.984	56.85
737.166	58.85
737.348	59.27
737.53	56.06
737.712	57.58
737.894	58.27
738.076	59.76
738.258	60.01
738.44	59.02
738.622	55.73
738.804	54.46
738.986	55.11
739.168	54.4
739.35	53.61
739.532	55.61
739.714	54.58
739.896	53.4
740.078	54.35
740.259	53.75
740.441	55.89
740.623	57.57
740.805	59.41
740.987	60.63
741.168	61.49
741.35	64
741.532	63.37
741.714	63.64
741.895	64.64
742.077	64.19
742.259	63.79
742.44	65
742.622	66.28
742.804	66.18
742.985	64.68
743.167	64.5
743.348	62.98
743.53	65.5
743.711	66.29
743.893	65.73
744.075	62.55
744.256	60.67
744.438	58.52
744.619	56.53
744.8	55.56
744.982	57.36
745.163	58.09
745.345	58.4
745.526	56.05
745.707	54.37
745.889	55.23
746.07	57.42
746.252	60.87
746.433	60.5
746.614	60.71
746.795	62.35
746.977	61.26
747.158	60.47
747.339	61.34
747.52	62.37
747.702	65.24
747.883	66.73
748.064	65.12
748.245	61.49
748.426	63.18
748.607	62.96
748.788	63.46
748.97	64.97
749.151	63.55
749.332	62.92
749.513	60.32
749.694	58.88
749.875	57.79
750.056	59.45
750.237	62.45
750.418	60.99
750.599	60.64
750.78	59.14
750.96	59.07
751.141	59.67
751.322	57.63
751.503	59.35
751.684	59.44
751.865	61.14
752.046	59.97
752.226	60.01
752.407	59.07
752.588	59.35
752.769	62.14
752.949	61.13
753.13	60.64
753.311	61.99
753.492	61.1
753.672	61.23
753.853	60.18
754.034	61.66
754.214	61.32
754.395	63.49
754.575	65.55
754.756	62.73
754.937	64.44
755.117	64.65
755.298	66.59
755.478	64.82
755.659	63.15
755.839	63.39
756.02	62.18
756.2	62.1
756.381	62.26
756.561	59.87
756.741	59.97
756.922	58.22
757.102	57.9
757.283	58.62
757.463	61.88
757.643	61.64
757.823	60.37
758.004	59.61
758.184	59.52
758.364	58.3
758.545	60.55
758.725	60.31
758.905	60.22
759.085	63.22
759.265	60.76
759.446	61.56
759.626	63.36
759.806	62.93
759.986	63.69
760.166	62.01
760.346	62.42
760.526	61.43
760.706	60.56
760.886	58.46
761.066	57.66
761.246	56.32
761.426	53.89
761.606	54.13
761.786	53.39
761.966	53.51
762.146	54.5
762.326	54.2
762.506	54.95
762.686	55.21
762.866	55.24
763.046	54.68
763.225	57.42
763.405	58.17
763.585	58.29
763.765	58.34
763.945	60.01
764.124	58.75
764.304	60.75
764.484	60.15
764.664	60.47
764.843	60.69
765.023	59.84
765.203	57.88
765.382	60.2
765.562	60.09
765.741	61.94
765.921	61.48
766.101	61.72
766.28	59.16
766.46	57.84
766.639	57.73
766.819	60.78
766.998	62
767.178	63.9
767.357	62.13
767.537	62.64
767.716	62.48
767.896	62.41
768.075	63.91
768.254	65.22
768.434	67.5
768.613	70
768.792	70.24
768.972	69.45
769.151	67.13
769.33	65.03
769.51	63.72
769.689	64.72
769.868	65.38
770.047	67.02
770.226	66.6
770.406	67.4
770.585	67.7
770.764	67.02
770.943	69.53
771.122	69.11
771.301	71.82
771.48	74.75
771.66	74.3
771.839	73.26
772.018	68.65
772.197	70.34
772.376	69.8
772.555	68.4
772.734	70.12
772.913	68.65
773.092	69.25
773.271	70.45
773.449	66.12
773.628	64.52
773.807	66.75
773.986	70.92
774.165	69.62
774.344	70.09
774.523	69.49
774.701	70.57
774.88	68.94
775.059	70.55
775.238	67.33
775.417	69.54
775.595	69.26
775.774	67.11
775.953	64.84
776.131	66.88
776.31	66.29
776.489	66.73
776.667	65.64
776.846	66.46
777.025	65.22
777.203	68.02
777.382	67.59
777.56	67.86
777.739	69.64
777.917	73.61
778.096	71.97
778.274	71.75
778.453	70.78
778.631	70.06
778.81	72.34
778.988	73.71
779.166	70.88
779.345	71.29
779.523	69.53
779.702	68.82
779.88	66.03
780.058	66.28
780.237	65.72
780.415	67.6
780.593	66.29
780.771	63.23
780.95	64.69
781.128	68.95
781.306	68.11
781.484	72
781.662	71.6
781.841	71.69
782.019	71.18
782.197	72.87
782.375	73.35
782.553	73.34
782.731	74.98
782.909	73.72
783.087	71.67
783.265	75.52
783.443	74.76
783.621	76.67
783.799	78.52
783.977	76.92
784.155	76.62
784.333	76.2
784.511	77.17
784.689	75.41
784.867	77.19
785.045	78.08
785.223	75.15
785.4	73.93
785.578	70.67
785.756	69.97
785.934	72.45
786.112	72.98
786.289	74.62
786.467	74.89
786.645	78.72
786.823	76.52
787	76.93
787.178	78.8
787.356	79.23
787.533	78.92
787.711	76.88
787.889	74.4
788.066	74.07
788.244	71.45
788.421	67.23
788.599	63.88
788.776	59.55
788.954	58.15
789.131	53.25
789.309	50.76
789.486	55.82
789.664	57.9
789.841	61.92
790.019	63.84
790.196	65.57
790.373	69.48
790.551	70.11
790.728	73.38
790.906	73.58
791.083	75.27
791.26	76.32
791.437	73.26
791.615	71.18
791.792	70.99
791.969	68.77
792.146	65.19
792.324	68.21
792.501	73.15
792.678	73.22
792.855	77.27
793.032	80.53
793.209	83.74
793.387	85.77
793.564	87.92
793.741	85.46
793.918	88.53
794.095	90.88
794.272	87.81
794.449	84.54
794.626	85.98
794.803	80.43
794.98	78.51
795.157	78.31
795.334	77.19
795.511	78.42
795.688	78.65
795.864	79.53
796.041	78.37
796.218	79.09
796.395	75.85
796.572	74.42
796.749	73.69
796.925	75.82
797.102	74.15
797.279	74.98
797.456	71.54
797.632	70.59
797.809	67.48
797.986	67.56
798.162	70.61
798.339	69.16
798.516	71.43
798.692	69.97
798.869	68.93
799.046	69.58
799.222	66.74
799.399	67.45
799.575	72.3
799.752	72.44
799.928	71.92
800.105	66.29
800.281	71.54
800.458	73.06
800.634	79.54
800.811	79.44
800.987	80.39
801.163	81.5
801.34	86.58
801.516	85.48
801.692	86.39
801.869	85.59
802.045	90.22
802.221	86.72
802.398	83.55
802.574	83.63
802.75	85.02
802.926	82.27
803.103	84.56
803.279	84.16
803.455	80.14
803.631	81.06
803.807	87
803.983	83.24
804.16	82.03
804.336	84.9
804.512	80.38
804.688	79.37
804.864	85.95
805.04	89.11
805.216	83.5
805.392	83.5
805.568	75.92
805.744	76.49
805.92	80.46
806.096	81.34
806.272	79.2
806.448	81.61
806.623	81.56
806.799	75.33
806.975	71.81
807.151	71.58
807.327	74.85
807.503	79.02
807.678	77.07
807.854	77.17
808.03	78.17
808.206	76.93
808.381	73.41
808.557	73.44
808.733	76.6
808.908	80.43
809.084	80.72
809.26	73.51
809.435	76.68
809.611	78.19
809.787	72.59
809.962	80.48
810.138	76.11
810.313	79.31
810.489	80.17
810.664	81.71
810.84	76.43
811.015	83.21
811.191	88.19
811.366	85.56
811.542	85.13
811.717	85.21
811.892	78.65
812.068	78.01
812.243	73.33
812.419	69.21
812.594	68.09
812.769	67.48
812.944	62.79
813.12	59.54
813.295	60.99
813.47	61.35
813.645	64.28
813.821	65.08
813.996	71.02
814.171	78.76
814.346	79.38
814.521	81.23
814.697	87.47
814.872	92.54
815.047	86.39
815.222	88.2
815.397	85.86
815.572	82.41
815.747	82.49
815.922	84.35
816.097	78.42
816.272	79.72
816.447	79.76
816.622	75.78
816.797	72.16
816.972	74.49
817.147	71.51
817.322	74.53
817.496	73.78
817.671	70.23
817.846	66.68
818.021	66.39
818.196	66.63
818.371	65.45
818.545	66.54
818.72	67.38
818.895	70.64
819.069	67.72
819.244	65.11
819.419	63.06
819.594	63.69
819.768	61.55
819.943	62.27
820.117	58.68
820.292	56.85
820.467	54.53
820.641	52.3
820.816	49.88
820.99	49.62
821.165	48.83
821.339	49.07
821.514	48.01
821.688	47.85
821.863	46.71
822.037	47.39
822.212	47.33
822.386	47.84
822.56	48.6
822.735	48.67
822.909	49.57
823.084	50.29
823.258	50.42
823.432	50.9
823.606	50.92
823.781	51.01
823.955	50.47
824.129	51.01
824.303	51.3
824.478	50.55
824.652	51.86
824.826	51.96
825	51.86
825.174	51.22
825.348	51.69
825.523	52.76
825.697	53.47
825.871	55.48
826.045	54.64
826.219	53.61
826.393	53.21
826.567	52.33
826.741	51.78
826.915	52.36
827.089	53.47
827.263	53.43
827.437	53.7
827.611	54.07
827.784	52.43
827.958	52.31
828.132	53.14
828.306	54.22
828.48	54.79
828.654	53.29
828.827	53
829.001	51.56
829.175	51.51
829.349	51.33
829.522	54.19
829.696	57.63
829.87	57.66
830.044	58.86
830.217	62.16
830.391	62.95
830.565	66.31
830.738	65.55
830.912	67.93
831.085	70.04
831.259	69.42
831.432	67.7
831.606	65.47
831.779	67.53
831.953	67.26
832.126	63.61
832.3	62.95
832.473	63.51
832.647	64.99
832.82	64.47
832.994	65.49
833.167	66.13
833.34	65.98
833.514	64
833.687	63.75
833.86	63.23
834.034	65.33
834.207	65.26
834.38	63.68
834.553	62.45
834.727	63.14
834.9	59.65
835.073	59.05
835.246	60.74
835.419	61.54
835.593	62.52
835.766	64.27
835.939	61.44
836.112	66.05
836.285	69.66
836.458	72.06
836.631	70.58
836.804	75.08
836.977	75.3
837.15	77.05
837.323	80.74
837.496	79.35
837.669	78.85
837.842	82.97
838.015	79.61
838.188	77.62
838.361	78.64
838.533	79.29
838.706	76.41
838.879	76.84
839.052	74.08
839.225	77.5
839.398	74.85
839.57	76.3
839.743	75.46
839.916	74.46
840.088	77.12
840.261	74.49
840.434	72.58
840.607	71.89
840.779	74.32
840.952	76.94
841.124	68
841.297	71.45
841.47	73.47
841.642	74.73
841.815	79.58
841.987	79.32
842.16	80.85
842.332	89.91
842.505	101.26
842.677	102.06
842.85	95.42
843.022	109.17
843.194	113.7
843.367	115.36
843.539	122.02
843.712	116.62
843.884	104.52
844.056	103.83
844.229	106.16
844.401	103.49
844.573	108.26
844.745	106.81
844.918	94.05
845.09	97.58
845.262	94.67
845.434	86.13
845.606	96.04
845.779	89.14
845.951	91.03
846.123	95.36
846.295	97.95
846.467	95.01
846.639	103
846.811	102.71
846.983	94.88
847.155	103.4
847.327	111.9
847.499	109.8
847.671	129.77
847.843	141.42
848.015	132.47
848.187	119.66
848.359	124.7
848.531	126.64
848.703	140.42
848.875	150.62
849.047	141.22
849.218	147.66
849.39	140.6
849.562	143.87
849.734	131.14
849.905	132.12
850.077	159.27
850.249	145.63
850.421	131.47
850.592	116.03
850.764	113.91
850.936	111.98
851.107	108.94
851.279	120.22
851.451	115.94
851.622	118.46
851.794	120.41
851.965	109.45
852.137	115.44
852.308	140.69
852.48	161.62
852.651	160.48
852.823	147.34
852.994	126.72
853.166	114.55
853.337	113.02
853.509	108.89
853.68	111.24
853.851	110.56
854.023	109.64
854.194	109.15
854.365	105.92
854.537	110.35
854.708	127.03
854.879	138.77
855.05	138.64
855.222	137.35
855.393	142.76
855.564	142.97
855.735	143.72
855.906	150.39
856.078	127.92
856.249	127.58
856.42	122.39
856.591	108.62
856.762	116.86
856.933	126.01
857.104	135.06
857.275	139.47
857.446	149.25
857.617	134.48
857.788	175.14
857.959	236.26
858.13	237.96
858.301	261.08
858.472	250.08
858.643	207
858.814	190.33
858.985	178.79
859.155	166.4
859.326	141.92
859.497	164.95
859.668	140.72
859.839	111.86
860.009	104.8
860.18	97.31
860.351	96.38
860.522	96.56
860.692	96.8
860.863	106.02
861.034	128.18
861.204	136.05
861.375	127.31
861.546	126.6
861.716	138.29
861.887	157.22
862.057	156.98
862.228	151.67
862.398	155.95
862.569	163.99
862.739	154.68
862.91	133.9
863.08	123.84
863.251	124.89
863.421	125.3
863.592	121.91
863.762	114.01
863.932	119.59
864.103	109.95
864.273	113.11
864.443	113.45
864.614	120.15
864.784	113.81
864.954	116.91
865.125	133.01
865.295	118.65
865.465	123.91
865.635	116.33
865.805	112
865.976	120.69
866.146	112.65
866.316	114.63
866.486	97.7
866.656	96.52
866.826	100.09
866.996	79.45
867.166	87.18
867.336	94.89
867.506	114.99
867.676	118.68
867.846	124.1
868.016	133
868.186	128.71
868.356	127.48
868.526	150.08
868.696	152.77
868.866	173.37
869.036	210.89
869.206	195.11
869.376	179.75
869.545	170.46
869.715	164.91
869.885	135.22
870.055	117.39
870.224	108.62
870.394	95.12
870.564	101.76
870.734	98.07
870.903	99.02
871.073	107.42
871.243	98.19
871.412	101.32
871.582	105.36
871.751	100.75
871.921	105.98
872.091	106.9
872.26	108.79
872.43	97.96
872.599	91.86
872.769	87.86
872.938	85.01
873.108	89.45
873.277	86.75
873.446	81.8
873.616	92.99
873.785	93.84
873.955	91.24
874.124	86.84
874.293	104.17
874.463	118.88
874.632	118.27
874.801	104.41
874.971	91.04
875.14	89.9
875.309	89.43
875.478	86.01
875.647	86.87
875.817	82.51
875.986	80.98
876.155	77.28
876.324	72.36
876.493	78.24
876.662	86.29
876.831	95.78
877	101.79
877.17	99.86
877.339	114.09
877.508	116.25
877.677	124.65
877.846	114.9
878.015	102.84
878.184	96.88
878.352	91.87
878.521	83.81
878.69	79.55
878.859	74.71
879.028	76.83
879.197	65.91
879.366	64.15
879.534	66.26
879.703	76.32
879.872	71.56
880.041	68.4
880.21	66.42
880.378	59.77
880.547	56.78
880.716	56.16
880.884	52.96
881.053	51.83
881.222	48.97
881.39	46.13
881.559	44.24
881.727	44.94
881.896	44.01
882.065	44.97
882.233	45.1
882.402	45.01
882.57	43.51
882.739	45.04
882.907	45.62
883.076	45.59
883.244	47.74
883.412	47.72
883.581	48.83
883.749	48.72
883.918	48.35
884.086	51.32
884.254	54.87
884.423	58.46
884.591	58.38
884.759	59.76
884.927	62.55
885.096	63.94
885.264	66.56
885.432	65.58
885.6	74.04
885.769	74.11
885.937	81.21
886.105	81.59
886.273	81.3
886.441	85.27
886.609	85.42
886.777	81.53
886.945	78.58
887.113	76.8
887.281	81.14
887.449	80.07
887.617	81.69
887.785	73.08
887.953	73.96
888.121	75.67
888.289	76.99
888.457	84.89
888.625	96.06
888.793	92.55
888.961	110.7
889.129	110.98
889.296	112.68
889.464	114.98
889.632	114.07
889.8	110.21
889.967	110.78
890.135	128.16
