Data from JASIL_2991_Reflection_02.txt Node
Date: Mon Nov 09 09:45:45 EST 2015
User: Geneva
Spectrometer: USB4E03002
Autoset integration time: false
Trigger mode: 4
Integration Time (sec): 1.000000E-1
Scans to average: 10
Electric dark correction enabled: false
Nonlinearity correction enabled: false
Boxcar width: 5
Stray light correction enabled: false
XAxis mode: Wavelengths
Stop averaging: false
Number of Pixels in Spectrum: 3648
>>>>>Begin Spectral Data<<<<<
177.575	50.48
177.794	56.32
178.014	58.08
178.233	59.85
178.452	70.65
178.672	73.52
178.891	68.87
179.11	64.41
179.33	43.6
179.549	48.62
179.768	24.14
179.987	55.16
180.207	48.9
180.426	29.9
180.645	11.64
180.864	-11.27
181.084	1.91
181.303	33.49
181.522	39
181.741	51.08
181.96	48.07
182.179	46.67
182.398	38.74
182.618	26.06
182.837	51.26
183.056	61.5
183.275	44.56
183.494	36.78
183.713	20.4
183.932	19.14
184.151	47.61
184.37	40.24
184.589	31.75
184.808	34.51
185.027	43.09
185.246	17
185.465	11.44
185.684	19.48
185.903	11.03
186.122	-1.43
186.341	-28.88
186.56	-83.13
186.779	-2.61
186.998	20.81
187.216	18.64
187.435	-2.65
187.654	26.25
187.873	38.08
188.092	71.52
188.311	44.86
188.53	48.78
188.748	48.99
188.967	24.44
189.186	-12.48
189.405	-29.64
189.623	-18.37
189.842	20
190.061	-53.85
190.28	-35.27
190.498	-87.65
190.717	-63.5
190.936	-86.18
191.154	-168.85
191.373	-23.2
191.592	-60
191.81	-3.04
192.029	-144.14
192.248	-270.95
192.466	-63.01
192.685	-72.17
192.904	-46.05
193.122	-53.74
193.341	-62.03
193.559	-116.43
193.778	-72.85
193.996	-17.87
194.215	-32.06
194.433	-1.87
194.652	32.21
194.87	26.55
195.089	-1.31
195.307	31.75
195.526	-7.22
195.744	-44.42
195.963	-5.13
196.181	-42.79
196.399	-67.27
196.618	-87.19
196.836	-119.71
197.055	-109.57
197.273	-108.67
197.491	-80.79
197.71	-38.3
197.928	-15.47
198.146	20.99
198.365	-55.32
198.583	-43.81
198.801	-51.42
199.019	-65.19
199.238	-54.17
199.456	-71.71
199.674	-88.11
199.892	-59.55
200.111	-140
200.329	-201.42
200.547	-87.61
200.765	-56.86
200.983	-96.64
201.202	-20
201.42	46.22
201.638	11.94
201.856	-143.66
202.074	105.41
202.292	-139.02
202.51	95.57
202.728	125
202.946	128.57
203.165	61.3
203.383	103.58
203.601	-4.55
203.819	-43.02
204.037	-12.3
204.255	30.24
204.473	15.06
204.691	17.22
204.909	-60.84
205.127	-39.86
205.345	-3.49
205.562	114.61
205.78	39.45
205.998	73.48
206.216	69.8
206.434	95.62
206.652	105.39
206.87	125.74
207.088	132.14
207.306	115.34
207.523	76.26
207.741	18.1
207.959	40
208.177	9.49
208.395	63.25
208.612	40.74
208.83	11.48
209.048	28.77
209.266	35.94
209.483	9.25
209.701	52.23
209.919	71.55
210.136	29.24
210.354	-32.39
210.572	-34.56
210.79	-52.03
211.007	17.81
211.225	51.09
211.442	27.15
211.66	22.49
211.878	39.33
212.095	77.76
212.313	83.49
212.53	89.46
212.748	90.69
212.966	95.43
213.183	92.83
213.401	77.89
213.618	73.5
213.836	74.18
214.053	71.92
214.271	72.39
214.488	44.1
214.705	38.92
214.923	43.68
215.14	42.26
215.358	30.54
215.575	28.09
215.793	41.73
216.01	44.39
216.227	92.44
216.445	122.02
216.662	51.68
216.879	42.12
217.097	41.67
217.314	29.38
217.531	-23.26
217.749	-7.07
217.966	24.29
218.183	18.5
218.4	-46.98
218.618	-75.67
218.835	-76.61
219.052	-218.57
219.269	-482.46
219.487	-186.55
219.704	-698.41
219.921	557.89
220.138	792.31
220.355	691.78
220.572	0
220.79	-1339.39
221.007	-322.73
221.224	-219.85
221.441	-43.18
221.658	-69.54
221.875	-94.78
222.092	-52.61
222.309	-17.99
222.526	-0.95
222.743	3.72
222.96	22.71
223.177	23.47
223.394	39.52
223.611	15.89
223.828	-72.9
224.045	-65.2
224.262	-27.47
224.479	-43.11
224.696	-47.67
224.913	-65.31
225.13	-81.22
225.347	-81.82
225.564	-80.84
225.781	-83.47
225.997	-56.08
226.214	-26.01
226.431	-7.05
226.648	-7.56
226.865	7.8
227.082	2.57
227.298	-8.71
227.515	-2.38
227.732	-3.94
227.949	-4.54
228.165	4.33
228.382	12.58
228.599	12.5
228.816	7.32
229.032	1.55
229.249	-1.5
229.466	-4.97
229.682	3.79
229.899	-2.08
230.116	0.14
230.332	-3.14
230.549	-19.19
230.765	-66.15
230.982	-59.88
231.199	-48.13
231.415	-34.27
231.632	-42
231.848	-44.31
232.065	-24.77
232.281	-29.93
232.498	-29.04
232.714	-23.5
232.931	-19.65
233.147	-2.28
233.364	-0.88
233.58	-12.07
233.797	-6.12
234.013	1.85
234.23	-0.55
234.446	-4.48
234.662	15.42
234.879	21.26
235.095	32.14
235.312	22.82
235.528	13.34
235.744	12.87
235.961	32.07
236.177	31.41
236.393	19.21
236.61	31.56
236.826	29.02
237.042	26.43
237.258	20.59
237.475	10.35
237.691	22.5
237.907	29.14
238.123	17.43
238.339	3.86
238.556	5.71
238.772	0.52
238.988	-7.46
239.204	-6.77
239.42	-8
239.636	10.25
239.853	17.61
240.069	12.69
240.285	6.69
240.501	11.3
240.717	10.15
240.933	10.51
241.149	14.81
241.365	18.56
241.581	15.04
241.797	12.75
242.013	6.41
242.229	1.74
242.445	5.41
242.661	9.05
242.877	9.8
243.093	5.36
243.309	0.26
243.525	-4.88
243.741	-9.17
243.957	-6.29
244.173	-5.6
244.388	-6.64
244.604	-2.94
244.82	-4.76
245.036	-5.98
245.252	-4.21
245.468	2.81
245.683	3.07
245.899	6.73
246.115	5.77
246.331	4.29
246.547	3.3
246.762	4.52
246.978	2.36
247.194	4.23
247.409	4.04
247.625	3.74
247.841	1.17
248.057	4.91
248.272	5.3
248.488	8.57
248.703	13.63
248.919	18.2
249.135	18.47
249.35	22.51
249.566	14.33
249.782	14.04
249.997	15.48
250.213	10.74
250.428	5.16
250.644	0.23
250.859	1.7
251.075	-0.29
251.29	-3.37
251.506	0.4
251.721	-0.3
251.937	5.86
252.152	9.71
252.368	7.72
252.583	9.66
252.798	14.22
253.014	16.71
253.229	13.28
253.445	13.47
253.66	15.04
253.875	2.82
254.091	0.63
254.306	-2.13
254.521	6.83
254.737	12.24
254.952	17.72
255.167	9.5
255.383	10.13
255.598	9.68
255.813	4.05
256.028	-0.84
256.244	-3.22
256.459	-3.42
256.674	-1.89
256.889	-4.22
257.104	-6.18
257.32	-9
257.535	-2.71
257.75	-1.81
257.965	-0.96
258.18	3.51
258.395	5.66
258.61	8.41
258.826	7.65
259.041	7.11
259.256	3.35
259.471	3.98
259.686	6.39
259.901	4.32
260.116	2.64
260.331	-0.04
260.546	-3.52
260.761	-2.73
260.976	-8.48
261.191	-5.68
261.406	-9.87
261.621	-0.2
261.836	1.34
262.05	-2.84
262.265	-0.06
262.48	3.8
262.695	5.51
262.91	8.82
263.125	4.94
263.34	9.99
263.555	12.51
263.769	18.6
263.984	16.39
264.199	8.37
264.414	8.78
264.629	8.22
264.843	6.59
265.058	7.28
265.273	2.4
265.488	7.09
265.702	5.28
265.917	1.06
266.132	-0.59
266.346	-3.23
266.561	3.09
266.776	1.88
266.99	1.49
267.205	4.91
267.42	5.35
267.634	8.27
267.849	5.49
268.063	7.28
268.278	8.95
268.492	9.57
268.707	11.81
268.922	12.29
269.136	11.97
269.351	10.53
269.565	10.53
269.78	7.72
269.994	8.42
270.209	8.64
270.423	9.41
270.637	9.78
270.852	8.55
271.066	7.12
271.281	7.39
271.495	9.43
271.709	8.33
271.924	6.12
272.138	9.69
272.353	8.79
272.567	7.4
272.781	6.21
272.996	4.26
273.21	3.86
273.424	1.33
273.638	-2.76
273.853	-4.34
274.067	-0.57
274.281	-4.79
274.495	-6.52
274.71	-6.35
274.924	-4.14
275.138	-3.26
275.352	2.86
275.566	3.5
275.781	5.98
275.995	10.15
276.209	11.67
276.423	11.65
276.637	16.45
276.851	16.06
277.065	15.19
277.279	14.26
277.493	15.21
277.707	12.86
277.921	11.42
278.135	12.62
278.349	7.15
278.563	6.61
278.777	2.91
278.991	1
279.205	-0.34
279.419	0.48
279.633	-2.54
279.847	-5.34
280.061	-9.1
280.275	-4.27
280.489	-4.91
280.703	-0.22
280.917	-2.45
281.131	2.58
281.344	4.45
281.558	6.01
281.772	5.31
281.986	7.64
282.2	7.12
282.414	8.75
282.627	6.09
282.841	7.56
283.055	4.47
283.269	7.46
283.482	5.55
283.696	6.11
283.91	7.42
284.123	6.89
284.337	6.12
284.551	6.31
284.764	6.69
284.978	8.43
285.192	5.71
285.405	6.44
285.619	4.35
285.833	4.76
286.046	2.62
286.26	-0.63
286.473	1.45
286.687	2.4
286.9	4.89
287.114	3.5
287.327	2.56
287.541	2.34
287.754	0.8
287.968	2.05
288.181	-1.36
288.395	-2.18
288.608	-2.12
288.822	-2.08
289.035	-2.08
289.248	-3.12
289.462	-4.4
289.675	-2.47
289.889	-0.25
290.102	4.18
290.315	3.24
290.529	4.12
290.742	4.91
290.955	5.55
291.169	2.78
291.382	3.14
291.595	-1.94
291.808	2.61
292.022	-0.47
292.235	-0.38
292.448	-1.56
292.661	-2.61
292.875	-1.65
293.088	-1.91
293.301	1.3
293.514	1.04
293.727	0.68
293.94	3.78
294.153	2.5
294.367	1.89
294.58	1.51
294.793	-2.04
295.006	-1.43
295.219	-0.04
295.432	2.77
295.645	1.66
295.858	3.84
296.071	4.74
296.284	5.9
296.497	3.87
296.71	3.68
296.923	3.76
297.136	5.38
297.349	7.47
297.562	7.23
297.775	4.37
297.988	5.4
298.201	5.48
298.414	5.2
298.626	5.43
298.839	6.58
299.052	9.23
299.265	9.52
299.478	8.59
299.691	6.47
299.903	8.04
300.116	8.36
300.329	6.95
300.542	7.82
300.755	6.35
300.967	6.91
301.18	9.26
301.393	8.75
301.605	7.29
301.818	5.24
302.031	5.76
302.243	4.67
302.456	4.26
302.669	5.69
302.881	5.74
303.094	5.97
303.307	3.81
303.519	1.73
303.732	0.51
303.944	-0.37
304.157	3.38
304.37	3.55
304.582	1.71
304.795	3.59
305.007	2.34
305.22	-0.35
305.432	1.7
305.645	5.14
305.857	5.29
306.069	5.47
306.282	8.52
306.494	9.42
306.707	9.08
306.919	10.3
307.132	10.66
307.344	8.37
307.556	6.96
307.769	9.44
307.981	5.92
308.193	4.84
308.406	3.44
308.618	4.7
308.83	3.54
309.043	7.55
309.255	5.53
309.467	5.05
309.679	5.84
309.892	8.03
310.104	5.99
310.316	7.42
310.528	10.49
310.74	11.24
310.953	8.24
311.165	9.43
311.377	6.67
311.589	8.46
311.801	9.88
312.013	13.08
312.225	14.95
312.437	15.74
312.649	16.42
312.862	12.84
313.074	13.52
313.286	16.84
313.498	14.89
313.71	14.29
313.922	15.02
314.134	13.89
314.346	12.19
314.558	8.91
314.77	9.79
314.982	11.24
315.193	15.6
315.405	13.4
315.617	11.24
315.829	13.02
316.041	13.23
316.253	11.77
316.465	12.47
316.677	13.81
316.888	18.05
317.1	15.59
317.312	12.41
317.524	12.14
317.736	15.1
317.947	15.26
318.159	15.01
318.371	15.33
318.583	15.68
318.794	15.21
319.006	13.5
319.218	10.19
319.43	12.5
319.641	16.03
319.853	12.76
320.064	10.02
320.276	8.79
320.488	8.54
320.699	6.92
320.911	4.9
321.123	4.64
321.334	4.14
321.546	2.98
321.757	0.33
321.969	-1.7
322.18	1.16
322.392	3.82
322.603	1.95
322.815	4.7
323.026	8.76
323.238	12.66
323.449	12.67
323.661	12.06
323.872	12.33
324.083	12.32
324.295	11.1
324.506	9.85
324.718	8.29
324.929	11.42
325.14	7.24
325.352	5.14
325.563	5.14
325.774	4.44
325.986	5.59
326.197	8.21
326.408	9.88
326.62	9.17
326.831	8.78
327.042	9.28
327.253	9.69
327.464	12.45
327.676	12.78
327.887	12.62
328.098	15.51
328.309	15.91
328.52	16.34
328.732	14.93
328.943	16.67
329.154	17.29
329.365	19.99
329.576	21.69
329.787	22.84
329.998	23.1
330.209	21.86
330.42	22.96
330.631	22.59
330.842	19.39
331.053	19.99
331.264	18.52
331.475	22.61
331.686	21.76
331.897	22.25
332.108	22.41
332.319	23.49
332.53	22.55
332.741	21.44
332.952	20.06
333.163	20.34
333.374	20.3
333.585	19.56
333.795	13.6
334.006	14.56
334.217	12.13
334.428	11.87
334.639	10.82
334.849	10.3
335.06	9.25
335.271	9.98
335.482	10.44
335.692	9.75
335.903	10.78
336.114	11.83
336.325	10.7
336.535	9.32
336.746	8.87
336.957	10.81
337.167	11.71
337.378	12.87
337.589	13.94
337.799	12.79
338.01	12
338.22	12.78
338.431	10.87
338.642	9.31
338.852	9.44
339.063	7.92
339.273	9.32
339.484	10.39
339.694	8.29
339.905	7.03
340.115	9.32
340.326	8.58
340.536	7.47
340.746	11.01
340.957	12.56
341.167	14.93
341.378	17.19
341.588	14.25
341.799	12.83
342.009	15.82
342.219	16.19
342.43	16.25
342.64	17.05
342.85	20.15
343.061	19.56
343.271	18.54
343.481	17
343.691	14.46
343.902	14.99
344.112	15.96
344.322	12.93
344.532	12.76
344.743	12.02
344.953	10.89
345.163	9.33
345.373	9.93
345.583	10.45
345.793	8.99
346.004	10.51
346.214	7.44
346.424	6.85
346.634	7.48
346.844	9.48
347.054	8.18
347.264	6.9
347.474	8.09
347.684	9.39
347.894	10.69
348.104	12.89
348.314	13.25
348.524	18.14
348.734	19.74
348.944	19.63
349.154	16.8
349.364	18.26
349.574	19.41
349.784	18.26
349.994	18.14
350.204	17.36
350.413	18.6
350.623	18.67
350.833	16.78
351.043	13.49
351.253	14.7
351.463	17.08
351.672	17.99
351.882	20.29
352.092	20.91
352.302	19.64
352.511	20.42
352.721	19.02
352.931	19.53
353.141	18.13
353.35	19.57
353.56	20.21
353.77	17.27
353.979	17.08
354.189	16.75
354.399	14.89
354.608	14.87
354.818	13.9
355.027	12.71
355.237	12.31
355.447	13.1
355.656	12.57
355.866	10.62
356.075	11.6
356.285	10.58
356.494	9.83
356.704	10.04
356.913	8.06
357.123	7.7
357.332	7.46
357.542	5.98
357.751	6.32
357.96	7.81
358.17	9.23
358.379	10.15
358.589	10.34
358.798	9.47
359.007	10.25
359.217	10.47
359.426	10.32
359.635	10.17
359.845	9.8
360.054	9
360.263	9.08
360.472	8.46
360.682	8.07
360.891	9.39
361.1	10.57
361.309	10.04
361.519	10.34
361.728	10.75
361.937	11.79
362.146	12.94
362.355	14.27
362.564	12.68
362.774	12.71
362.983	12.75
363.192	11.96
363.401	11.12
363.61	11.57
363.819	12.48
364.028	11.25
364.237	12.25
364.446	11.92
364.655	11.56
364.864	13.48
365.073	12.95
365.282	13.67
365.491	13.26
365.7	15.45
365.909	14.45
366.118	13.66
366.327	12.83
366.536	12.81
366.745	13.02
366.954	12.26
367.162	11.54
367.371	10.79
367.58	10.11
367.789	9.24
367.998	7.84
368.207	11.4
368.415	11.75
368.624	12.44
368.833	11.6
369.042	10.16
369.25	9.78
369.459	9.42
369.668	10.83
369.877	11.18
370.085	12.81
370.294	12.4
370.503	8.29
370.711	8.62
370.92	9.24
371.129	9.17
371.337	10.4
371.546	11.25
371.754	12.46
371.963	12.2
372.171	11.27
372.38	10.44
372.589	10.87
372.797	11.26
373.006	12.19
373.214	11.75
373.423	12.28
373.631	11.61
373.84	10.44
374.048	9.98
374.256	9.27
374.465	9.74
374.673	9.05
374.882	8.66
375.09	8.78
375.298	6.86
375.507	8.09
375.715	7.59
375.923	7.99
376.132	8.84
376.34	8.96
376.548	10.73
376.757	9.89
376.965	10.31
377.173	10.49
377.381	10.92
377.59	11.91
377.798	12.61
378.006	11.94
378.214	11.76
378.423	12.7
378.631	12.57
378.839	11.53
379.047	11.6
379.255	10.61
379.463	11.16
379.671	12.24
379.879	11.89
380.088	10.02
380.296	9.25
380.504	10.05
380.712	10.09
380.92	8.93
381.128	9.82
381.336	12.58
381.544	13.81
381.752	13.3
381.96	12.91
382.168	13.14
382.376	13.94
382.584	15.33
382.791	14.34
382.999	12.96
383.207	13.39
383.415	11.99
383.623	9.89
383.831	10.04
384.039	9.81
384.247	9.66
384.454	10.43
384.662	10.93
384.87	11.05
385.078	11.5
385.285	12.55
385.493	13.44
385.701	15.04
385.909	15.04
386.116	14.72
386.324	15.59
386.532	15.22
386.739	15.25
386.947	14.33
387.155	14.27
387.362	14.42
387.57	12.64
387.778	11.61
387.985	10.79
388.193	11.14
388.4	11.38
388.608	10.66
388.816	10.44
389.023	9.44
389.231	9.7
389.438	9.34
389.646	9.89
389.853	11.64
390.061	11.2
390.268	10.54
390.475	11.6
390.683	10.5
390.89	10.98
391.098	12.03
391.305	12.55
391.512	13.57
391.72	14.93
391.927	13.48
392.135	12.16
392.342	12.55
392.549	13.51
392.756	11.8
392.964	12.31
393.171	11.29
393.378	10.51
393.586	11.07
393.793	9.62
394	9.06
394.207	10.91
394.414	11.9
394.622	11.92
394.829	11.21
395.036	11.3
395.243	11.25
395.45	12.2
395.657	11.97
395.864	10.68
396.072	10.65
396.279	11.14
396.486	10.17
396.693	10.57
396.9	11.25
397.107	11.82
397.314	11.84
397.521	12.71
397.728	13.69
397.935	13.02
398.142	13.84
398.349	14.25
398.556	13.67
398.763	12.9
398.97	11.46
399.177	10.81
399.383	10.41
399.59	10.02
399.797	8.97
400.004	7.49
400.211	8.56
400.418	8.79
400.625	10.01
400.831	9.57
401.038	10.55
401.245	10.59
401.452	10.85
401.658	11.45
401.865	12.9
402.072	13.13
402.279	12.79
402.485	12.78
402.692	11.67
402.899	10.63
403.105	10.29
403.312	9.66
403.519	10.81
403.725	10.9
403.932	10.93
404.138	10.71
404.345	10.44
404.552	10.51
404.758	10.94
404.965	11.83
405.171	12.14
405.378	12.95
405.584	13.67
405.791	14.01
405.997	14.12
406.204	13.36
406.41	13.09
406.617	14
406.823	13.2
407.029	13.85
407.236	13.6
407.442	14.04
407.649	13.7
407.855	13.46
408.061	13.44
408.268	13.39
408.474	13.88
408.68	13.85
408.887	13.53
409.093	14.51
409.299	14.11
409.505	13.83
409.712	12.71
409.918	12.63
410.124	12.18
410.33	11.06
410.537	11.63
410.743	11.19
410.949	10.86
411.155	10.59
411.361	10.31
411.567	8.92
411.773	9.18
411.98	9.84
412.186	9.95
412.392	10.03
412.598	10.7
412.804	8.66
413.01	8.77
413.216	8.48
413.422	8.94
413.628	10.03
413.834	11.46
414.04	10.99
414.246	11.46
414.452	11.28
414.658	11.7
414.864	11.54
415.07	12.59
415.275	12.93
415.481	14.02
415.687	13.61
415.893	13.47
416.099	11.98
416.305	12.18
416.511	11.43
416.716	11.43
416.922	11.69
417.128	11.51
417.334	11.57
417.539	11.52
417.745	11.16
417.951	10.57
418.157	10.49
418.362	11.19
418.568	10.74
418.774	10.96
418.979	11.14
419.185	10.97
419.391	11.32
419.596	11.06
419.802	11.26
420.008	11.49
420.213	7.7
420.419	7.6
420.624	7.26
420.83	7.52
421.035	7.55
421.241	6.99
421.446	6.56
421.652	6.42
421.857	6.55
422.063	6.08
422.268	5.42
422.474	9.41
422.679	9.48
422.885	9.65
423.09	9.61
423.295	9.46
423.501	9.82
423.706	9.89
423.911	9.74
424.117	9.6
424.322	9.81
424.527	10.11
424.733	10.47
424.938	10.14
425.143	10.18
425.349	10.49
425.554	10.69
425.759	10.53
425.964	10.91
426.169	10.65
426.375	10.77
426.58	10.41
426.785	10.54
426.99	10.38
427.195	10.88
427.4	11.58
427.605	11.47
427.811	11.2
428.016	11.68
428.221	11.72
428.426	11.12
428.631	11.07
428.836	11.03
429.041	11.36
429.246	11.2
429.451	10.89
429.656	10.12
429.861	9.51
430.066	9.5
430.271	9.54
430.476	9.68
430.681	10.71
430.886	10.85
431.09	11.77
431.295	11.93
431.5	12.12
431.705	12.07
431.91	12.37
432.115	12.57
432.32	12.59
432.524	12.35
432.729	11.96
432.934	11.37
433.139	11.7
433.343	11.17
433.548	10.72
433.753	11.02
433.958	11.41
434.162	11.34
434.367	11.17
434.572	10.79
434.776	10.31
434.981	10.33
435.186	10.12
435.39	9.89
435.595	10.22
435.799	9.82
436.004	9.6
436.209	9.9
436.413	10.04
436.618	10.79
436.822	10.98
437.027	10.93
437.231	11.2
437.436	12.14
437.64	12.25
437.845	11.42
438.049	11.96
438.253	12.03
438.458	10.9
438.662	10.34
438.867	10.07
439.071	9.74
439.275	10.42
439.48	10.55
439.684	10.02
439.888	10.16
440.093	10.38
440.297	10.77
440.501	10.87
440.706	11.93
440.91	12.41
441.114	12.19
441.318	12.93
441.523	12.88
441.727	12.95
441.931	13.22
442.135	13
442.339	12.87
442.543	12.84
442.748	12.88
442.952	12.18
443.156	11.27
443.36	11.92
443.564	12.02
443.768	12.05
443.972	11.28
444.176	10.99
444.38	10.54
444.584	11.37
444.788	10.63
444.992	10.6
445.196	10.6
445.4	11.18
445.604	11.09
445.808	10.17
446.012	10
446.216	10.41
446.42	10.85
446.624	11.33
446.828	11.1
447.032	11.36
447.235	11.02
447.439	11.02
447.643	11.2
447.847	10.85
448.051	11.26
448.254	11.06
448.458	11.03
448.662	11.28
448.866	11.05
449.069	10.77
449.273	10.58
449.477	10.88
449.681	11.23
449.884	11.06
450.088	11.16
450.292	11.6
450.495	11.79
450.699	12.32
450.902	11.82
451.106	11.75
451.31	11.62
451.513	11.61
451.717	11.54
451.92	11.14
452.124	10.96
452.327	11.09
452.531	11.21
452.734	11.08
452.938	10.27
453.141	10.49
453.345	10.35
453.548	10.72
453.752	10.86
453.955	10.89
454.158	11.12
454.362	11.76
454.565	12.04
454.769	12.27
454.972	12.38
455.175	12.16
455.379	11.49
455.582	12.22
455.785	11.68
455.988	10.96
456.192	10.59
456.395	10.43
456.598	9.62
456.801	8.64
457.005	8.6
457.208	8.48
457.411	8.77
457.614	9.06
457.817	8.39
458.021	8.16
458.224	8.78
458.427	8.42
458.63	8.31
458.833	8.63
459.036	9.03
459.239	9.22
459.442	9.45
459.645	9.66
459.848	9.47
460.051	9.75
460.254	10.34
460.457	10.23
460.66	10.61
460.863	11.01
461.066	10.69
461.269	10.61
461.472	9.96
461.675	9.65
461.878	9.4
462.081	9.9
462.284	10.13
462.486	10.64
462.689	11.21
462.892	11.02
463.095	11.05
463.298	10.98
463.5	11.41
463.703	11.7
463.906	12.38
464.109	12.95
464.311	13.14
464.514	12.91
464.717	12.24
464.92	11.73
465.122	11.91
465.325	11.69
465.528	11.63
465.73	11.29
465.933	10.97
466.135	10.2
466.338	10.15
466.541	10.12
466.743	10.77
466.946	11.09
467.148	11.12
467.351	12.19
467.553	11.85
467.756	12.12
467.958	12.45
468.161	12.38
468.363	12.24
468.566	11.89
468.768	11.48
468.971	10.72
469.173	10.3
469.375	9.91
469.578	8.7
469.78	9.46
469.983	8.82
470.185	8.11
470.387	8.05
470.59	9.09
470.792	8.83
470.994	9.26
471.196	9.42
471.399	9.88
471.601	10.35
471.803	10.15
472.005	9.44
472.208	10.15
472.41	10.58
472.612	10.52
472.814	9.44
473.016	10.01
473.218	9.72
473.421	9.95
473.623	9.68
473.825	10.01
474.027	10.09
474.229	10.48
474.431	10.36
474.633	9.91
474.835	10.15
475.037	10.64
475.239	10.18
475.441	10.19
475.643	10.01
475.845	10.06
476.047	9.68
476.249	9.66
476.451	9.61
476.653	9.45
476.855	9.71
477.057	9.46
477.258	9.6
477.46	10.12
477.662	10.04
477.864	10.44
478.066	10.12
478.268	10.48
478.469	10.95
478.671	11.16
478.873	11.39
479.075	11.22
479.276	11.77
479.478	11.52
479.68	11.14
479.882	11.29
480.083	10.42
480.285	10.74
480.487	10.42
480.688	10.12
480.89	9.76
481.091	9.49
481.293	9.34
481.495	9.06
481.696	9.13
481.898	8.99
482.099	8.79
482.301	9.07
482.502	9.03
482.704	8.98
482.905	9.06
483.107	9.21
483.308	9.33
483.51	9.39
483.711	9.36
483.913	9.42
484.114	9.5
484.315	9.64
484.517	9.54
484.718	9.55
484.92	9.52
485.121	9.41
485.322	9.38
485.524	9.42
485.725	9.3
485.926	9.28
486.127	8.95
486.329	9.11
486.53	9.25
486.731	9.18
486.932	9.09
487.134	9.1
487.335	9.15
487.536	9.22
487.737	9.18
487.938	9.5
488.139	9.71
488.341	10.02
488.542	10.17
488.743	9.97
488.944	9.99
489.145	9.66
489.346	9.56
489.547	9.62
489.748	9.37
489.949	9.38
490.15	9.24
490.351	9.11
490.552	9.09
490.753	8.89
490.954	8.76
491.155	8.87
491.356	8.99
491.557	9.25
491.758	9.28
491.959	9.48
492.159	9.52
492.36	9.53
492.561	9.71
492.762	9.56
492.963	9.86
493.164	10.15
493.364	10.09
493.565	10.82
493.766	10.63
493.967	10.67
494.167	10.7
494.368	10.37
494.569	10.44
494.769	10
494.97	10.2
495.171	10.01
495.371	10.06
495.572	10.01
495.773	9.93
495.973	10.2
496.174	10.51
496.375	10.28
496.575	10.41
496.776	10.74
496.976	11.31
497.177	11.62
497.377	11.47
497.578	11.25
497.778	11.7
497.979	11.36
498.179	11.44
498.38	11.26
498.58	11.2
498.78	11.51
498.981	11.04
499.181	10.7
499.382	10.68
499.582	10.52
499.782	10.68
499.983	10.49
500.183	10.41
500.383	10.15
500.584	9.63
500.784	9.98
500.984	10.11
501.184	10.11
501.385	10.43
501.585	9.83
501.785	10.09
501.985	9.75
502.185	9.83
502.386	9.67
502.586	9.74
502.786	9.98
502.986	9.89
503.186	9.5
503.386	10.03
503.586	9.84
503.786	10.19
503.987	10.24
504.187	10.38
504.387	10.5
504.587	10.85
504.787	11.13
504.987	11.26
505.187	11.48
505.387	11.51
505.587	10.62
505.786	10.33
505.986	10.36
506.186	10.31
506.386	10.39
506.586	10.42
506.786	11.03
506.986	11.11
507.186	11.22
507.386	11.09
507.585	12.08
507.785	12.57
507.985	13.04
508.185	13.46
508.384	13.27
508.584	13.27
508.784	13.08
508.984	13.12
509.183	12.77
509.383	12.52
509.583	12.72
509.782	11.52
509.982	11.48
510.182	11.58
510.381	11.23
510.581	11.46
510.781	12.12
510.98	12.24
511.18	11.82
511.379	12.11
511.579	12.09
511.778	12.06
511.978	12.58
512.177	12.77
512.377	12.94
512.576	13.37
512.776	13.81
512.975	12.96
513.175	12.87
513.374	12.97
513.573	13.01
513.773	13.73
513.972	13.56
514.172	13.77
514.371	13.98
514.57	13.77
514.77	13.31
514.969	12.78
515.168	13.22
515.367	13.45
515.567	13.38
515.766	12.9
515.965	12.92
516.164	13.12
516.364	13.12
516.563	13.18
516.762	13.39
516.961	13.6
517.16	14.06
517.359	14.06
517.559	13.96
517.758	13.96
517.957	14.22
518.156	13.89
518.355	14.11
518.554	13.84
518.753	13.88
518.952	13.67
519.151	13.41
519.35	13.17
519.549	13.57
519.748	13.64
519.947	13.71
520.146	13.85
520.345	14.38
520.544	14.14
520.743	14.17
520.942	14.32
521.141	14.65
521.339	15.09
521.538	15.03
521.737	15.01
521.936	15.53
522.135	15.42
522.333	15.8
522.532	15.68
522.731	15.91
522.93	16.2
523.129	16.07
523.327	16.07
523.526	15.67
523.725	15.76
523.923	15.61
524.122	15.24
524.321	15.42
524.519	15.02
524.718	14.72
524.917	14.71
525.115	14.67
525.314	14.72
525.512	14.47
525.711	14.67
525.909	14.56
526.108	14.81
526.306	14.6
526.505	14.54
526.703	14.55
526.902	14.59
527.1	14.61
527.299	14.72
527.497	14.81
527.696	14.78
527.894	14.77
528.092	14.91
528.291	14.77
528.489	15.03
528.688	15.17
528.886	15.45
529.084	15.82
529.283	15.81
529.481	15.97
529.679	15.79
529.877	16.09
530.076	16.02
530.274	16.31
530.472	16.4
530.67	16.47
530.869	16.52
531.067	16.17
531.265	16.03
531.463	16.15
531.661	15.95
531.859	15.99
532.057	16.13
532.255	16.15
532.454	15.98
532.652	16.13
532.85	16.02
533.048	16.09
533.246	16.33
533.444	16.42
533.642	16.59
533.84	16.58
534.038	16.78
534.236	16.97
534.434	17.27
534.632	17.17
534.83	17.42
535.027	17.51
535.225	17.54
535.423	17.59
535.621	17.26
535.819	17.11
536.017	17.22
536.215	17.48
536.412	17.02
536.61	17.62
536.808	18.01
537.006	17.77
537.203	17.94
537.401	18.01
537.599	17.96
537.797	18.32
537.994	18.67
538.192	18.8
538.39	18.75
538.587	19
538.785	18.37
538.983	18.3
539.18	18.54
539.378	18.35
539.575	18.36
539.773	18.2
539.97	18.14
540.168	18.21
540.366	18.21
540.563	18.04
540.761	17.93
540.958	17.79
541.155	17.53
541.353	17.28
541.55	17.55
541.748	17.58
541.945	17.96
542.143	18.24
542.34	18.12
542.537	17.95
542.735	18.19
542.932	18.58
543.129	18.96
543.327	19.43
543.524	19.81
543.721	19.78
543.919	19.69
544.116	19.84
544.313	19.86
544.51	20.08
544.708	20.31
544.905	20.55
545.102	20.28
545.299	20.61
545.496	21.05
545.693	21.08
545.891	21.31
546.088	21.35
546.285	21.31
546.482	20.93
546.679	20.88
546.876	20.87
547.073	20.63
547.27	20.97
547.467	21.1
547.664	20.72
547.861	20.23
548.058	19.62
548.255	19.71
548.452	19.28
548.649	19.86
548.846	19.53
549.043	20.71
549.24	21.13
549.437	21.42
549.633	21.27
549.83	21.41
550.027	21.98
550.224	22.43
550.421	23.11
550.618	23.65
550.814	23.38
551.011	23.87
551.208	23.3
551.405	22.8
551.601	22.63
551.798	21.87
551.995	21.63
552.191	21.7
552.388	21.48
552.585	20.73
552.781	20.2
552.978	20.56
553.175	20.6
553.371	20.57
553.568	20.97
553.764	20.98
553.961	22.03
554.157	22.53
554.354	22.67
554.55	22.67
554.747	23.67
554.943	24.45
555.14	24.56
555.336	24.37
555.533	24.23
555.729	24.47
555.926	24.61
556.122	24.9
556.318	24.61
556.515	24.63
556.711	25.35
556.907	24.96
557.104	24.7
557.3	24.14
557.496	23.9
557.693	24
557.889	24.06
558.085	23.81
558.281	23.11
558.478	22.97
558.674	23.03
558.87	23.22
559.066	22.93
559.262	22.69
559.459	23.18
559.655	24.02
559.851	23.99
560.047	23.71
560.243	23.78
560.439	24.15
560.635	24.54
560.831	24.61
561.027	24.03
561.223	24.11
561.419	24.34
561.615	24.25
561.811	23.54
562.007	23.28
562.203	23.15
562.399	23.27
562.595	23.11
562.791	22.92
562.987	23.05
563.183	23.3
563.379	23.77
563.575	23.7
563.771	23.61
563.966	23.52
564.162	24.12
564.358	24.28
564.554	24.42
564.75	24.42
564.945	24.11
565.141	23.52
565.337	23.68
565.533	23.63
565.728	23.87
565.924	24.06
566.12	23.76
566.315	23.11
566.511	23.2
566.707	23.38
566.902	23.13
567.098	23.8
567.293	24.47
567.489	24.34
567.684	24.1
567.88	24.09
568.076	24.31
568.271	24.78
568.467	25.22
568.662	25.29
568.858	25.64
569.053	26.8
569.248	26.56
569.444	26.18
569.639	26.14
569.835	26.39
570.03	26.59
570.225	26.63
570.421	26.54
570.616	26.32
570.812	25.78
571.007	24.99
571.202	24.19
571.397	24.36
571.593	25.09
571.788	24.86
571.983	25.12
572.178	25.21
572.374	24.73
572.569	24.81
572.764	24.66
572.959	24.41
573.154	24.21
573.35	24.45
573.545	24.27
573.74	23.87
573.935	23.88
574.13	23.77
574.325	23.75
574.52	24.05
574.715	23.96
574.91	23.88
575.105	24.72
575.3	25.4
575.495	24.81
575.69	25.09
575.885	25.58
576.08	26.15
576.275	25.44
576.47	25.14
576.665	25.71
576.86	26.48
577.055	27.33
577.25	26.85
577.444	26.95
577.639	27.27
577.834	26.98
578.029	26.02
578.224	25.76
578.418	26.82
578.613	27.16
578.808	26.27
579.003	26.03
579.197	25.86
579.392	26.41
579.587	26.73
579.781	27.34
579.976	26.9
580.171	27.23
580.365	27.62
580.56	27.93
580.755	28.34
580.949	29.28
581.144	29.36
581.338	30.12
581.533	30.27
581.727	29.14
581.922	28.52
582.116	29.37
582.311	29.09
582.505	29.29
582.7	29.18
582.894	28.46
583.089	28.67
583.283	28.49
583.478	28.14
583.672	27.92
583.866	28.51
584.061	29.68
584.255	28.92
584.449	29.26
584.644	29.59
584.838	28.82
585.032	29.48
585.226	29.19
585.421	30.19
585.615	29.26
585.809	29.01
586.003	29.01
586.198	28.19
586.392	29
586.586	29.43
586.78	28.19
586.974	28.35
587.168	27.63
587.363	27.19
587.557	26.69
587.751	26.81
587.945	27.29
588.139	27.24
588.333	26.55
588.527	26.47
588.721	25.84
588.915	26.19
589.109	25.83
589.303	25.52
589.497	24.98
589.691	23.82
589.885	25
590.079	24.69
590.273	24.73
590.466	25.68
590.66	24.54
590.854	25.44
591.048	25.47
591.242	25.94
591.436	26.57
591.629	26.63
591.823	27.38
592.017	26.42
592.211	26.42
592.404	26.36
592.598	26.05
592.792	26.18
592.986	25.67
593.179	26
593.373	25.79
593.567	24.89
593.76	25.16
593.954	24.85
594.147	24.88
594.341	25.09
594.535	25
594.728	25.71
594.922	26.49
595.115	25.7
595.309	25.57
595.502	24.96
595.696	25.34
595.889	25.17
596.083	25.65
596.276	25.67
596.47	24.82
596.663	24.79
596.856	24.09
597.05	24.2
597.243	24.64
597.437	24.26
597.63	24.8
597.823	25.22
598.017	25.2
598.21	25.5
598.403	24.8
598.596	25.88
598.79	25.71
598.983	26.14
599.176	26.45
599.369	27.47
599.563	27.85
599.756	28.57
599.949	28.48
600.142	29.41
600.335	28.99
600.528	29.75
600.722	29.78
600.915	30.66
601.108	29.74
601.301	28.3
601.494	27.3
601.687	27.34
601.88	26.57
602.073	26.55
602.266	26.27
602.459	26.88
602.652	26.55
602.845	26.72
603.038	25.85
603.231	26.37
603.424	26.76
603.617	26.71
603.809	26.69
604.002	26.76
604.195	26.36
604.388	26.17
604.581	25.04
604.774	25.46
604.966	25.38
605.159	26.42
605.352	26.63
605.545	26.58
605.737	27.33
605.93	27.04
606.123	27.15
606.316	28.11
606.508	28.44
606.701	28.7
606.894	28.45
607.086	27.95
607.279	27.58
607.471	26.93
607.664	27.34
607.857	26.53
608.049	27.02
608.242	26.97
608.434	26.76
608.627	26.7
608.819	26.56
609.012	27.37
609.204	27.74
609.397	27.8
609.589	28.15
609.782	28.39
609.974	28.52
610.166	28.47
610.359	28.79
610.551	29.09
610.743	29.59
610.936	30.6
611.128	29.95
611.32	29.34
611.513	29.18
611.705	30.2
611.897	30.14
612.09	30.44
612.282	30.96
612.474	31.05
612.666	30.07
612.858	29.23
613.051	29.22
613.243	30.09
613.435	29.98
613.627	30.1
613.819	28.82
614.011	29.07
614.203	29.17
614.395	27.58
614.588	26.87
614.78	27.05
614.972	27.74
615.164	26.77
615.356	26.16
615.548	26.98
615.74	27.33
615.932	27.55
616.124	27.32
616.315	27.71
616.507	28.38
616.699	29.54
616.891	28.89
617.083	28.92
617.275	29.65
617.467	30.34
617.659	30.36
617.85	30.44
618.042	30.81
618.234	30.63
618.426	31.06
618.618	31.02
618.809	31.06
619.001	32.19
619.193	31.53
619.384	31.66
619.576	31.53
619.768	31.31
619.959	31.09
620.151	30.38
620.343	30.44
620.534	29.16
620.726	29.66
620.917	28.74
621.109	28.43
621.301	28.71
621.492	28.61
621.684	28.85
621.875	29.34
622.067	29.56
622.258	29.33
622.45	30.3
622.641	30.34
622.832	29.36
623.024	29.84
623.215	30.71
623.407	30.53
623.598	30.27
623.789	28.48
623.981	28.46
624.172	27.53
624.363	28.34
624.555	27.2
624.746	27.26
624.937	28.01
625.129	28.25
625.32	27.7
625.511	27.95
625.702	27.61
625.893	28.79
626.085	28.55
626.276	29.08
626.467	29.56
626.658	29.87
626.849	29.95
627.04	29.39
627.231	29.12
627.422	29.6
627.614	29.34
627.805	29.66
627.996	29.82
628.187	29.54
628.378	29.99
628.569	29.7
628.76	29.89
628.951	30.17
629.142	31.09
629.332	30.68
629.523	30.82
629.714	30.8
629.905	30.29
630.096	30.3
630.287	30.83
630.478	29.74
630.669	29.94
630.859	30.62
631.05	30.67
631.241	29.69
631.432	30.01
631.623	29.01
631.813	29.45
632.004	29.99
632.195	29.16
632.385	28
632.576	27.93
632.767	27.24
632.957	26.15
633.148	26.4
633.339	27.32
633.529	28.12
633.72	29.05
633.91	28.85
634.101	28.77
634.292	29.22
634.482	29.71
634.673	30.79
634.863	30.51
635.054	31.06
635.244	31.13
635.435	30.28
635.625	29.24
635.815	28.75
636.006	28.69
636.196	29.65
636.387	29.49
636.577	30.02
636.767	29.71
636.958	29.65
637.148	29.66
637.338	30.27
637.529	30.19
637.719	30.74
637.909	30.28
638.099	30.87
638.29	30.78
638.48	31.36
638.67	31.41
638.86	31.11
639.05	31.77
639.241	31.67
639.431	30.75
639.621	30.8
639.811	30.18
640.001	30.73
640.191	30.17
640.381	28.64
640.571	27.45
640.761	26.74
640.951	28.28
641.141	27.85
641.331	27.42
641.521	28.07
641.711	28.47
641.901	28.89
642.091	27.39
642.281	27.58
642.471	28.41
642.661	30.94
642.851	31.15
643.041	29.33
643.231	30.01
643.42	30.1
643.61	28.42
643.8	28.97
643.99	29.08
644.18	31.18
644.369	31.06
644.559	30.58
644.749	27.95
644.939	28.31
645.128	29.04
645.318	28.91
645.508	28.7
645.697	28.99
645.887	28.76
646.076	28.95
646.266	28.35
646.456	27.81
646.645	27.97
646.835	28.72
647.024	29.06
647.214	28.58
647.403	29.13
647.593	30.26
647.782	31.42
647.972	31.47
648.161	30.34
648.351	30.51
648.54	31.01
648.73	31.53
648.919	31.77
649.108	30.93
649.298	31.48
649.487	30.76
649.677	29.88
649.866	29.31
650.055	29.61
650.244	29.88
650.434	29.93
650.623	30.13
650.812	30.26
651.002	30.26
651.191	31.25
651.38	31.33
651.569	33.08
651.758	33.43
651.947	33.39
652.137	33.36
652.326	34.74
652.515	33.55
652.704	32.42
652.893	31.22
653.082	31.09
653.271	30.97
653.46	30
653.649	28.73
653.838	28.59
654.027	28.89
654.216	28.43
654.405	27.98
654.594	28.61
654.783	29.26
654.972	29.48
655.161	28.94
655.35	28.19
655.539	28.82
655.728	27.41
655.916	27.47
656.105	27.5
656.294	28.95
656.483	28.13
656.672	28.2
656.86	28.87
657.049	29.55
657.238	29.69
657.427	31.03
657.615	31.78
657.804	32.44
657.993	31.94
658.181	32.82
658.37	32.03
658.559	32.1
658.747	32.6
658.936	32.87
659.125	31.74
659.313	33.1
659.502	32.34
659.69	31.57
659.879	31.42
660.067	32.07
660.256	33.13
660.444	32.5
660.633	33.65
660.821	33.27
661.01	32.77
661.198	33.18
661.387	32.01
661.575	31.75
661.763	31.68
661.952	32.16
662.14	32.69
662.328	29.41
662.517	30.87
662.705	29.01
662.893	30.3
663.082	29.35
663.27	30.3
663.458	29.85
663.646	29.84
663.834	29.96
664.023	28.82
664.211	27.97
664.399	28.77
664.587	28.19
664.775	30.73
664.963	28.46
665.152	30.67
665.34	30.01
665.528	30.43
665.716	30.4
665.904	30.08
666.092	31.09
666.28	30.03
666.468	30.92
666.656	30.93
666.844	30.33
667.032	32.28
667.22	31.5
667.408	31.65
667.596	32.47
667.784	33.28
667.971	35.23
668.159	35.09
668.347	35.97
668.535	34.22
668.723	34.77
668.911	34.71
669.098	34.14
669.286	34.22
669.474	34.3
669.662	33.52
669.849	32.74
670.037	31.31
670.225	32.24
670.413	33.47
670.6	34.86
670.788	32.2
670.976	30.83
671.163	29.26
671.351	28.4
671.538	27.75
671.726	28.25
671.913	28.71
672.101	28.97
672.289	28.75
672.476	27.39
672.664	27.63
672.851	28.07
673.039	28.36
673.226	29.94
673.413	30.27
673.601	29.55
673.788	28.34
673.976	28.9
674.163	28.55
674.35	28.09
674.538	28.67
674.725	27.18
674.912	27.97
675.1	29.19
675.287	28.75
675.474	29.23
675.662	30.88
675.849	31.8
676.036	30.94
676.223	30.56
676.411	30.54
676.598	30.59
676.785	32.15
676.972	31.8
677.159	31.61
677.346	30.52
677.533	29.85
677.721	29.02
677.908	30.24
678.095	30.84
678.282	31.21
678.469	32.02
678.656	30.92
678.843	31.26
679.03	32.49
679.217	31.8
679.404	32.64
679.591	32.67
679.778	33.01
679.964	32.76
680.151	32.21
680.338	32.92
680.525	31.53
680.712	31.68
680.899	30.76
681.086	29.76
681.272	31.09
681.459	31.79
681.646	32.14
681.833	33.1
682.02	31.34
682.206	31.76
682.393	31.84
682.58	32.19
682.766	32.52
682.953	33.93
683.14	33.56
683.326	33.14
683.513	32.41
683.7	32.12
683.886	32.13
684.073	32.82
684.259	33.15
684.446	32.72
684.632	33.22
684.819	34.73
685.005	32.35
685.192	33.48
685.378	34.56
685.565	33.58
685.751	33
685.938	31.76
686.124	30.15
686.31	29.53
686.497	29.74
686.683	29.72
686.87	29
687.056	31.07
687.242	30.66
687.429	29.58
687.615	31.99
687.801	33.32
687.987	33.6
688.174	37.53
688.36	37.79
688.546	36.34
688.732	36.62
688.918	36.2
689.105	33.95
689.291	34.82
689.477	35.37
689.663	34.52
689.849	35.28
690.035	38.1
690.221	35.73
690.407	34.34
690.593	35.04
690.779	33.76
690.965	33.78
691.151	34.26
691.337	34.11
691.523	33.48
691.709	33.89
691.895	32.44
692.081	29.66
692.267	29.5
692.453	29.97
692.639	29.04
692.825	28.48
693.011	30.52
693.196	30.17
693.382	29.82
693.568	26.89
693.754	25.49
693.94	25.62
694.125	25.73
694.311	24.8
694.497	26.82
694.682	26.43
694.868	26.95
695.054	25.27
695.239	25.96
695.425	27.46
695.611	29.55
695.796	30.32
695.982	30.77
696.168	30.85
696.353	30.49
696.539	29.97
696.724	31.34
696.91	32.06
697.095	31.9
697.281	32.25
697.466	31.64
697.652	31.5
697.837	30.47
698.023	30.53
698.208	30.7
698.393	31.97
698.579	31.36
698.764	30.69
698.949	30.19
699.135	29.69
699.32	29.51
699.505	28
699.691	28.44
699.876	30.23
700.061	31.17
700.246	30.47
700.432	31.49
700.617	31.96
700.802	32.59
700.987	32.94
701.172	35.05
701.358	34.5
701.543	36.19
701.728	34.55
701.913	32.19
702.098	30.03
702.283	32.18
702.468	29.83
702.653	30.12
702.838	29.43
703.023	29.47
703.208	28.89
703.393	28.74
703.578	31.62
703.763	33.28
703.948	35.21
704.133	37.79
704.318	34.36
704.503	35.24
704.688	35.05
704.873	34.65
705.057	34.78
705.242	37.24
705.427	40.4
705.612	38.24
705.797	38.7
705.981	37.95
706.166	34.1
706.351	34.87
706.536	35.65
706.72	35.6
706.905	37.22
707.09	37.21
707.274	33.33
707.459	32.03
707.644	29.27
707.828	28.64
708.013	28.35
708.197	29.76
708.382	30.78
708.567	30.89
708.751	32.62
708.936	32.59
709.12	32.09
709.305	31.86
709.489	31.23
709.673	33.34
709.858	35.99
710.042	35.38
710.227	36.35
710.411	34.46
710.596	33.56
710.78	33.63
710.964	32.36
711.149	33.76
711.333	34.57
711.517	33.58
711.702	33.74
711.886	32
712.07	34.6
712.254	33.91
712.438	36.56
712.623	37.18
712.807	35.22
712.991	34.22
713.175	33.71
713.359	35.34
713.544	35.52
713.728	35.62
713.912	35.92
714.096	35.54
714.28	37.99
714.464	35.12
714.648	34.67
714.832	36.29
715.016	35.32
715.2	33.94
715.384	31.23
715.568	33.37
715.752	31.79
715.936	31.77
716.12	31.32
716.304	28.76
716.488	28.54
716.671	29.03
716.855	26.8
717.039	28.88
717.223	30.84
717.407	32.74
717.59	30.39
717.774	32.17
717.958	28.93
718.142	26.7
718.325	27.27
718.509	29.56
718.693	29.63
718.877	28.4
719.06	28.91
719.244	28.71
719.428	28.88
719.611	29.45
719.795	27.07
719.978	31.46
720.162	34.31
720.345	33.43
720.529	34.83
720.713	32.34
720.896	33.35
721.08	32.49
721.263	32.49
721.446	31.12
721.63	30.01
721.813	30.17
721.997	26.08
722.18	25.55
722.364	25.86
722.547	25.34
722.73	26.13
722.914	28.73
723.097	31.08
723.28	30.2
723.464	30.67
723.647	32.5
723.83	35.2
724.013	37.84
724.197	37.54
724.38	38.29
724.563	35.84
724.746	35.6
724.929	32.65
725.112	29.74
725.296	33.09
725.479	33.14
725.662	32.14
725.845	28.76
726.028	29.15
726.211	29.7
726.394	29.62
726.577	32.2
726.76	31.3
726.943	30.98
727.126	32.67
727.309	29.73
727.492	30.45
727.675	27.75
727.858	28.83
728.041	26.77
728.224	26.73
728.407	24.88
728.589	22.72
728.772	23.91
728.955	24.95
729.138	22.93
729.321	21.94
729.503	23.16
729.686	25.23
729.869	26.33
730.052	27.88
730.234	26.37
730.417	25.9
730.6	25.81
730.782	26.2
730.965	25.26
731.148	28.07
731.33	27.24
731.513	26.44
731.695	26.32
731.878	27.49
732.061	26.14
732.243	26.38
732.426	29.21
732.608	30.61
732.791	30.64
732.973	31.96
733.156	29.3
733.338	31.4
733.52	31.28
733.703	31.83
733.885	28.88
734.068	32.9
734.25	34.64
734.432	35.36
734.615	34.51
734.797	34.71
734.979	34.89
735.162	35.85
735.344	35.31
735.526	32.87
735.708	31.78
735.891	35.2
736.073	32.94
736.255	33.93
736.437	32.17
736.619	33.8
736.802	34.33
736.984	35.18
737.166	38.06
737.348	36.45
737.53	40.93
737.712	41.28
737.894	41.3
738.076	40.66
738.258	39.17
738.44	38.73
738.622	39.63
738.804	39.62
738.986	39.34
739.168	37.53
739.35	41.63
739.532	40.8
739.714	42.91
739.896	41.68
740.078	42.4
740.259	42.23
740.441	45.29
740.623	40.89
740.805	40.82
740.987	44.84
741.168	46.47
741.35	42.92
741.532	38.27
741.714	36.99
741.895	36.57
742.077	35.44
742.259	36.54
742.44	32.71
742.622	33.15
742.804	32.92
742.985	28.8
743.167	27.29
743.348	32.64
743.53	35.77
743.711	36.23
743.893	35.52
744.075	40.14
744.256	36.66
744.438	41.82
744.619	46.52
744.8	48.96
744.982	47.23
745.163	45.06
745.345	42.99
745.526	39.7
745.707	38.27
745.889	38.73
746.07	31.77
746.252	33.46
746.433	27.49
746.614	27.52
746.795	26.61
746.977	29.62
747.158	32.57
747.339	31.58
747.52	36.39
747.702	34.74
747.883	33.45
748.064	36.81
748.245	36.99
748.426	35.76
748.607	34.31
748.788	33.57
748.97	32.05
749.151	34.62
749.332	35.87
749.513	30.95
749.694	33.71
749.875	31.88
750.056	33.14
750.237	33.29
750.418	34.84
750.599	34.25
750.78	31.38
750.96	32.56
751.141	27.89
751.322	26.33
751.503	29.46
751.684	30.39
751.865	35.56
752.046	31.39
752.226	35.63
752.407	41.34
752.588	39.97
752.769	40.6
752.949	39.82
753.13	38.9
753.311	41.55
753.492	41.63
753.672	41.84
753.853	38.37
754.034	39.37
754.214	33.92
754.395	35.06
754.575	34.21
754.756	36.92
754.937	38.2
755.117	41.46
755.298	43.46
755.478	41.44
755.659	38.25
755.839	43.42
756.02	44.97
756.2	50.05
756.381	47.42
756.561	47.62
756.741	46.1
756.922	43.73
757.102	42.93
757.283	38.7
757.463	39.26
757.643	42.48
757.823	37.88
758.004	35.52
758.184	29.96
758.364	30.39
758.545	26.36
758.725	24.35
758.905	22.5
759.085	27.26
759.265	26.17
759.446	25.79
759.626	22.11
759.806	25.62
759.986	23.68
760.166	26.34
760.346	22.31
760.526	25.12
760.706	26.1
760.886	29.69
761.066	24.68
761.246	24.11
761.426	25.33
761.606	28.8
761.786	24.41
761.966	29.61
762.146	31
762.326	32.08
762.506	33.05
762.686	34.38
762.866	33.9
763.046	35.41
763.225	36.38
763.405	35.83
763.585	36.2
763.765	37.28
763.945	36.26
764.124	34.54
764.304	37.15
764.484	37
764.664	36.94
764.843	38.58
765.023	34.73
765.203	33.11
765.382	35.45
765.562	32.79
765.741	37.3
765.921	32.42
766.101	34.46
766.28	31.94
766.46	32.12
766.639	32.08
766.819	32.55
766.998	33.98
767.178	39.01
767.357	36.6
767.537	36.17
767.716	34.13
767.896	39.51
768.075	38.9
768.254	40.52
768.434	42.85
768.613	42.37
768.792	37.74
768.972	36.42
769.151	29.88
769.33	30.49
769.51	28.85
769.689	28.42
769.868	24.96
770.047	23.72
770.226	24.51
770.406	18.64
770.585	17.68
770.764	23.11
770.943	23.84
771.122	28.94
771.301	28.93
771.48	29.94
771.66	28.64
771.839	30.57
772.018	34.27
772.197	30.55
772.376	37.17
772.555	39.26
772.734	31.05
772.913	35.2
773.092	34.66
773.271	34.72
773.449	38.94
773.628	36.23
773.807	39.05
773.986	39.6
774.165	42.26
774.344	40.72
774.523	39.79
774.701	45.55
774.88	45.93
775.059	42.6
775.238	41.25
775.417	41.19
775.595	46.68
775.774	44.99
775.953	44.59
776.131	42.08
776.31	39.07
776.489	39.45
776.667	39.41
776.846	40.96
777.025	44.45
777.203	48.4
777.382	45.48
777.56	41.29
777.739	40.75
777.917	40.45
778.096	41.4
778.274	42.01
778.453	43.75
778.631	48.1
778.81	44.52
778.988	48.71
779.166	43.92
779.345	37.35
779.523	40.21
779.702	44
779.88	45.27
780.058	46.57
780.237	48.89
780.415	48.6
780.593	44.47
780.771	41.81
780.95	38.23
781.128	41.2
781.306	47.14
781.484	49.33
781.662	47.61
781.841	39.63
782.019	40.56
782.197	40.01
782.375	40.61
782.553	36.13
782.731	34.43
782.909	30.75
783.087	24.92
783.265	20.58
783.443	20.56
783.621	17.05
783.799	20.56
783.977	16.08
784.155	21.46
784.333	18.79
784.511	24.75
784.689	21.01
784.867	26.79
785.045	33.3
785.223	35.86
785.4	39.5
785.578	45.99
785.756	52.17
785.934	51.33
786.112	47.23
786.289	47.71
786.467	42.85
786.645	51.09
786.823	49.4
787	50.99
787.178	50.22
787.356	45.68
787.533	40.27
787.711	37.64
787.889	37.22
788.066	40.1
788.244	42.4
788.421	43.65
788.599	40.57
788.776	42.27
788.954	39.14
789.131	42.99
789.309	44.58
789.486	45.27
789.664	40.29
789.841	37.59
790.019	34.73
790.196	34.81
790.373	36.47
790.551	36.31
790.728	35.64
790.906	35
791.083	34.05
791.26	33.86
791.437	33.76
791.615	33.13
791.792	40.54
791.969	36.51
792.146	29.17
792.324	31.19
792.501	29.41
792.678	23.38
792.855	27.06
793.032	29.29
793.209	29.46
793.387	28.73
793.564	30.51
793.741	26.67
793.918	31.52
794.095	33.72
794.272	29.76
794.449	34.36
794.626	38.73
794.803	36.37
794.98	39.42
795.157	33.93
795.334	38.69
795.511	41.17
795.688	44.34
795.864	44.72
796.041	50.12
796.218	56.16
796.395	56.4
796.572	57.89
796.749	64.05
796.925	58.71
797.102	61.01
797.279	56.65
797.456	55.01
797.632	50.45
797.809	54.41
797.986	52.6
798.162	51.64
798.339	41.65
798.516	27.69
798.692	24.52
798.869	22.08
799.046	27.4
799.222	23.09
799.399	29.07
799.575	33.39
799.752	31.32
799.928	28.24
800.105	23.17
800.281	31.32
800.458	41.78
800.634	39.93
800.811	37.84
800.987	34.5
801.163	36.14
801.34	40.69
801.516	36
801.692	34.85
801.869	34.05
802.045	34.09
802.221	27.65
802.398	28.23
802.574	34.04
802.75	33.24
802.926	32.68
803.103	39.11
803.279	34.26
803.455	36.82
803.631	25.92
803.807	27.69
803.983	28.66
804.16	27.76
804.336	22.71
804.512	18.02
804.688	22.22
804.864	22.78
805.04	13.93
805.216	14.98
805.392	10.39
805.568	17.54
805.744	19.05
805.92	16.18
806.096	22.66
806.272	24.89
806.448	26.03
806.623	31.2
806.799	33.41
806.975	31.95
807.151	23.54
807.327	29.79
807.503	39.19
807.678	40.81
807.854	39.2
808.03	35.62
808.206	28.41
808.381	32.77
808.557	31.56
808.733	28.63
808.908	23.59
809.084	26.17
809.26	26.13
809.435	15.87
809.611	19.37
809.787	23.54
809.962	27.05
810.138	28.38
810.313	21.13
810.489	23.25
810.664	25.13
810.84	43.35
811.015	47.65
811.191	48.41
811.366	56.96
811.542	51.8
811.717	56.68
811.892	57.1
812.068	63.23
812.243	61.69
812.419	58.39
812.594	42.78
812.769	43.62
812.944	44.66
813.12	47.45
813.295	39.94
813.47	32.16
813.645	38.34
813.821	49.34
813.996	49.49
814.171	48.3
814.346	46.82
814.521	64.54
814.697	59.12
814.872	53.51
815.047	52.9
815.222	64.01
815.397	74.88
815.572	56.05
815.747	51.31
815.922	53.26
816.097	56.06
816.272	62.56
816.447	60.32
816.622	68.9
816.797	72.85
816.972	68.2
817.147	60.66
817.322	59.37
817.496	65.94
817.671	61.34
817.846	58.52
818.021	55.68
818.196	49.62
818.371	45.44
818.545	36.48
818.72	38.34
818.895	45.31
819.069	49.73
819.244	42.91
819.419	40.33
819.594	36.74
819.768	33.78
819.943	36.64
820.117	36.66
820.292	36.31
820.467	34.71
820.641	33.76
820.816	31.8
820.99	32.43
821.165	33.18
821.339	33.27
821.514	34.21
821.688	34.71
821.863	34.35
822.037	35.48
822.212	35.33
822.386	35.63
822.56	35.31
822.735	36.42
822.909	33.62
823.084	34.39
823.258	33.94
823.432	33.77
823.606	38.63
823.781	37.34
823.955	36.57
824.129	34.85
824.303	35.75
824.478	38.52
824.652	33.12
824.826	37.19
825	38.09
825.174	37.84
825.348	37.77
825.523	32.54
825.697	34.45
825.871	32.01
826.045	34.45
826.219	34.13
826.393	31.7
826.567	34.29
826.741	33.35
826.915	32.58
827.089	34.59
827.263	32.71
827.437	34.03
827.611	30.7
827.784	34.98
827.958	34.08
828.132	34.19
828.306	37.13
828.48	35.79
828.654	45.6
828.827	43.77
829.001	42.57
829.175	40.5
829.349	50.99
829.522	56.46
829.696	53.28
829.87	48.86
830.044	44.43
830.217	40.99
830.391	32.48
830.565	15.46
830.738	12.09
830.912	2.29
831.085	3.33
831.259	-18.04
831.432	0.79
831.606	-5.01
831.779	10
831.953	18.82
832.126	19
832.3	28.61
832.473	30.85
832.647	31.77
832.82	35.2
832.994	38.13
833.167	43.08
833.34	34.98
833.514	42.27
833.687	40.3
833.86	48.29
834.034	52.54
834.207	52.76
834.38	52.27
834.553	54.16
834.727	54.28
834.9	56.05
835.073	63.78
835.246	72.59
835.419	68.99
835.593	70.56
835.766	56.4
835.939	49.66
836.112	36.16
836.285	33.45
836.458	27.7
836.631	38.74
836.804	27.19
836.977	14.84
837.15	12.88
837.323	0.9
837.496	-12.8
837.669	3.85
837.842	15.07
838.015	17.92
838.188	18.98
838.361	16.87
838.533	17.75
838.706	38.44
838.879	32.05
839.052	19.35
839.225	33.18
839.398	31.86
839.57	33.67
839.743	24.39
839.916	28.84
840.088	25.1
840.261	27.11
840.434	10.88
840.607	15.27
840.779	22.03
840.952	18.83
841.124	-2.13
841.297	6.31
841.47	3.15
841.642	12.01
841.815	7.49
841.987	11.64
842.16	2.87
842.332	13.32
842.505	9.47
842.677	12.85
842.85	16.92
843.022	18.1
843.194	14.13
843.367	-2.83
843.539	-5.98
843.712	6.34
843.884	4.65
844.056	14.57
844.229	9.47
844.401	12.44
844.573	-9.53
844.745	-5.39
844.918	1.92
845.09	0.46
845.262	-0.21
845.434	-14.49
845.606	-27.13
845.779	-65.1
845.951	-71.4
846.123	-77.46
846.295	-75.38
846.467	-83.56
846.639	-202.34
846.811	-248.3
846.983	-247.74
847.155	-240.13
847.327	-100.74
847.499	-149.15
847.671	-64.71
847.843	-100.74
848.015	-132.87
848.187	-162.81
848.359	-585.39
848.531	-688.89
848.703	-243.96
848.875	-521.77
849.047	-543.14
849.218	-490.68
849.39	-165.76
849.562	-358.65
849.734	-125.83
849.905	-83.49
850.077	-115.69
850.249	-31.93
850.421	-10.53
850.592	-17.84
850.764	13.51
850.936	48.33
851.107	43.25
851.279	20.21
851.451	32.58
851.622	41.69
851.794	53.03
851.965	52.16
852.137	48.99
852.308	33.38
852.48	19.9
852.651	9.12
852.823	8.65
852.994	27.31
853.166	57
853.337	52.42
853.509	53.5
853.68	44.98
853.851	63.14
854.023	67.47
854.194	78.05
854.365	81.92
854.537	72.83
854.708	55.62
854.879	43.87
855.05	33.78
855.222	37.98
855.393	29.04
855.564	20.82
855.735	7.06
855.906	-14.73
856.078	-28.33
856.249	-99.46
856.42	-29.07
856.591	29.56
856.762	-13.96
856.933	-2.76
857.104	-5.24
857.275	-47.55
857.446	-24.35
857.617	-35.43
857.788	13.85
857.959	10.13
858.13	26.91
858.301	-20.89
858.472	-19.38
858.643	3.41
858.814	9.72
858.985	26.45
859.155	23.52
859.326	23.5
859.497	38.32
859.668	25.27
859.839	49.11
860.009	32.95
860.18	51.57
860.351	54.86
860.522	32.34
860.692	27.85
860.863	-23.9
861.034	21.72
861.204	12.08
861.375	3.54
861.546	-0.98
861.716	-21.18
861.887	11.82
862.057	16.4
862.228	16.81
862.398	33.27
862.569	43.54
862.739	81.52
862.91	54.05
863.08	61.76
863.251	58.04
863.421	60.76
863.592	63.18
863.762	62.68
863.932	71.21
864.103	68.97
864.273	78.01
864.443	61.38
864.614	67.51
864.784	84.27
864.954	95.68
865.125	97.1
865.295	94.88
865.465	88.68
865.635	83.92
865.805	80.56
865.976	90.28
866.146	77.11
866.316	75.73
866.486	73.63
866.656	65.66
866.826	66.05
866.996	61.39
867.166	70.7
867.336	53.11
867.506	44.71
867.676	59.6
867.846	32.34
868.016	31.03
868.186	11.65
868.356	-113.46
868.526	-687.5
868.696	-39600
868.866	681.18
869.036	-482.57
869.206	-779.03
869.376	-814.63
869.545	-297.22
869.715	-330.61
869.885	-313.87
870.055	-75.28
870.224	27.27
870.394	-6.06
870.564	-11.33
870.734	3.5
870.903	-56.47
871.073	10.86
871.243	12.94
871.412	83.04
871.582	69.5
871.751	39.53
871.921	15.88
872.091	-0.29
872.26	24.1
872.43	54.48
872.599	69.79
872.769	68.88
872.938	55.51
873.108	46.33
873.277	21.92
873.446	24.92
873.616	33.76
873.785	32.1
873.955	29.96
874.124	45.39
874.293	30.43
874.463	20.97
874.632	18.25
874.801	10.55
874.971	8.49
875.14	23.2
875.309	11.5
875.478	13.31
875.647	32.96
875.817	42.29
875.986	38.01
876.155	42.72
876.324	60.48
876.493	46.13
876.662	70.99
876.831	60.04
877	61.07
877.17	44.89
877.339	49
877.508	31.78
877.677	32.2
877.846	28.43
878.015	37.81
878.184	30.98
878.352	39.6
878.521	42.39
878.69	44.98
878.859	24.06
879.028	44.67
879.197	37.38
879.366	32.12
879.534	21.34
879.703	15.81
879.872	18.45
880.041	23.92
880.21	24.79
880.378	27.81
880.547	22.61
880.716	33.06
880.884	30.79
881.053	31.85
881.222	37.3
881.39	41.27
881.559	45.93
881.727	42.74
881.896	40.53
882.065	39.03
882.233	31.38
882.402	31.69
882.57	30.69
882.739	34.23
882.907	33.85
883.076	20.91
883.244	25.52
883.412	31.27
883.581	38.1
883.749	26.67
883.918	21.61
884.086	33.53
884.254	45.06
884.423	47.43
884.591	29.6
884.759	1.94
884.927	8.33
885.096	6.12
885.264	-37
885.432	-70.65
885.6	-12.37
885.769	20.79
885.937	21.8
886.105	18.87
886.273	13.4
886.441	3.31
886.609	50.16
886.777	75.88
886.945	64.71
887.113	94.54
887.281	65.86
887.449	56.89
887.617	69.1
887.785	54.93
887.953	58.18
888.121	37.78
888.289	42.42
888.457	49.16
888.625	33.45
888.793	35.33
888.961	28.46
889.129	37.47
889.296	47.51
889.464	14.81
889.632	16.17
889.8	-1.28
889.967	30.67
890.135	51.57
