Data from JASIL_3902_Reflection_1.txt Node
Date: Sat Nov 07 20:12:45 EST 2015
User: Geneva
Spectrometer: USB4E03002
Autoset integration time: false
Trigger mode: 4
Integration Time (sec): 1.000000E-1
Scans to average: 10
Electric dark correction enabled: true
Nonlinearity correction enabled: false
Boxcar width: 5
Stray light correction enabled: false
XAxis mode: Wavelengths
Stop averaging: false
Number of Pixels in Spectrum: 3648
>>>>>Begin Spectral Data<<<<<
177.575	114.42
177.794	101.71
178.014	106.37
178.233	124
178.452	84.93
178.672	45.12
178.891	69.55
179.11	180.24
179.33	126.24
179.549	101.2
179.768	75.5
179.987	82.86
180.207	75.28
180.426	92.64
180.645	127.04
180.864	125.31
181.084	121.98
181.303	219.32
181.522	165.85
181.741	159.19
181.96	130.45
182.179	151.37
182.398	198.93
182.618	223.3
182.837	217.52
183.056	331
183.275	293.45
183.494	286.82
183.713	198.17
183.932	274.06
184.151	264.89
184.37	346.08
184.589	238.48
184.808	183.42
185.027	166.77
185.246	155.74
185.465	111.99
185.684	124.75
185.903	122.62
186.122	127.74
186.341	134.76
186.56	154.99
186.779	163.18
186.998	166.09
187.216	183.7
187.435	185.38
187.654	185.97
187.873	235.95
188.092	181.38
188.311	167.18
188.53	171.5
188.748	147.9
188.967	131.32
189.186	122.3
189.405	126.5
189.623	131.17
189.842	128.64
190.061	117.8
190.28	130.97
190.498	140.78
190.717	134.96
190.936	123.01
191.154	118.39
191.373	116.8
191.592	112.92
191.81	124.56
192.029	121.17
192.248	131.44
192.466	128.06
192.685	109.89
192.904	120.08
193.122	130.13
193.341	132.26
193.559	143
193.778	145.21
193.996	141.93
194.215	149.25
194.433	157.56
194.652	161.7
194.87	186.88
195.089	212.6
195.307	200.6
195.526	174.33
195.744	175.3
195.963	146.67
196.181	143.85
196.399	167.97
196.618	159.04
196.836	155.37
197.055	152.49
197.273	134.06
197.491	114.62
197.71	105.53
197.928	118.24
198.146	109.3
198.365	124.39
198.583	110.14
198.801	102.06
199.019	80.18
199.238	91.17
199.456	72.46
199.674	114.43
199.892	182.83
200.111	174.35
200.329	165.25
200.547	173.48
200.765	205.99
200.983	203.78
201.202	183.83
201.42	216.35
201.638	191.2
201.856	208.57
202.074	206.85
202.292	184.8
202.51	187.51
202.728	190.94
202.946	189.41
203.165	144.15
203.383	157.89
203.601	163.83
203.819	155.02
204.037	167.27
204.255	174.01
204.473	180.16
204.691	208.53
204.909	199.04
205.127	197.16
205.345	189.82
205.562	204.72
205.78	196.1
205.998	186.01
206.216	164.66
206.434	140.05
206.652	108.38
206.87	100.34
207.088	96.28
207.306	100.95
207.523	89.26
207.741	94.8
207.959	92.39
208.177	116.24
208.395	102.76
208.612	140.13
208.83	148.79
209.048	198.55
209.266	196.37
209.483	179.3
209.701	209.28
209.919	250.86
210.136	238.73
210.354	220.18
210.572	138.36
210.79	152.4
211.007	125.5
211.225	117.03
211.442	118.39
211.66	123.12
211.878	129.06
212.095	118.96
212.313	118.64
212.53	125.08
212.748	118.82
212.966	129.18
213.183	120.3
213.401	138.45
213.618	124.62
213.836	128.11
214.053	135.68
214.271	133.43
214.488	136.04
214.705	146.52
214.923	148.92
215.14	177.11
215.358	181.21
215.575	192.96
215.793	157.99
216.01	192.25
216.227	192.18
216.445	160.2
216.662	144
216.879	153.26
217.097	149.07
217.314	161.18
217.531	141.51
217.749	131.03
217.966	127.67
218.183	131.32
218.4	135.13
218.618	121.79
218.835	118.13
219.052	114.58
219.269	108.89
219.487	105.79
219.704	92.78
219.921	91.94
220.138	92
220.355	100.33
220.572	89.81
220.79	89.83
221.007	90.43
221.224	85.45
221.441	95.69
221.658	93.82
221.875	101.66
222.092	103.02
222.309	94.19
222.526	93.59
222.743	89.52
222.96	95.96
223.177	103.62
223.394	89.04
223.611	100.19
223.828	101.82
224.045	108.16
224.262	98.54
224.479	102.24
224.696	110.54
224.913	106.15
225.13	104.06
225.347	100.07
225.564	96.05
225.781	102.01
225.997	93.82
226.214	88.6
226.431	76.98
226.648	78.44
226.865	73.69
227.082	70.93
227.298	65.88
227.515	65.46
227.732	65.92
227.949	64.84
228.165	63.74
228.382	62.07
228.599	62.02
228.816	63.32
229.032	63.28
229.249	64.19
229.466	61.97
229.682	63.72
229.899	64.15
230.116	62.64
230.332	61.19
230.549	64.46
230.765	66.64
230.982	65.74
231.199	67.95
231.415	68.78
231.632	69.62
231.848	69.4
232.065	70.12
232.281	70.72
232.498	73.3
232.714	71.63
232.931	69.8
233.147	71.1
233.364	73.37
233.58	69.12
233.797	68.55
234.013	62.72
234.23	61.8
234.446	63.56
234.662	61.86
234.879	61.62
235.095	61.31
235.312	59.24
235.528	56.72
235.744	54.06
235.961	54.85
236.177	46.26
236.393	49.83
236.61	55.82
236.826	55.66
237.042	55.27
237.258	53.69
237.475	54.06
237.691	56.77
237.907	55.13
238.123	54.66
238.339	57.99
238.556	66.44
238.772	67.9
238.988	64.98
239.204	62.88
239.42	65.77
239.636	65.28
239.853	64.85
240.069	61.9
240.285	61.98
240.501	60.78
240.717	59.5
240.933	57.38
241.149	54.92
241.365	52.47
241.581	52.64
241.797	50.88
242.013	51.16
242.229	52.93
242.445	52.61
242.661	52.46
242.877	53.28
243.093	53.49
243.309	53.43
243.525	55.54
243.741	59.16
243.957	58.38
244.173	59.31
244.388	57.39
244.604	53.82
244.82	52.88
245.036	50.75
245.252	48.67
245.468	47.06
245.683	46.32
245.899	44.12
246.115	43.36
246.331	43.3
246.547	42.18
246.762	41.38
246.978	41.44
247.194	40.89
247.409	40.76
247.625	40.96
247.841	40.6
248.057	41.07
248.272	41.31
248.488	40.61
248.703	39.51
248.919	40.46
249.135	41.57
249.35	40.72
249.566	41.71
249.782	42.65
249.997	42.87
250.213	43.55
250.428	43.19
250.644	45.52
250.859	45.5
251.075	45.48
251.29	44.16
251.506	42.99
251.721	41.95
251.937	42
252.152	42.38
252.368	41.99
252.583	41.94
252.798	40.93
253.014	40.05
253.229	40.36
253.445	40.34
253.66	41.34
253.875	42.35
254.091	43.02
254.306	41.22
254.521	41.13
254.737	41.52
254.952	40.99
255.167	40.25
255.383	39.44
255.598	38.43
255.813	38.13
256.028	37.4
256.244	35.47
256.459	36.93
256.674	37.1
256.889	34.97
257.104	34.22
257.32	34.28
257.535	34.4
257.75	32.59
257.965	32.11
258.18	31.99
258.395	31.6
258.61	31.26
258.826	30.19
259.041	30.09
259.256	29.67
259.471	29.49
259.686	29.02
259.901	28.88
260.116	29.51
260.331	29.17
260.546	29.1
260.761	28.47
260.976	28.86
261.191	29.08
261.406	28.79
261.621	30.05
261.836	29.96
262.05	29.09
262.265	28.65
262.48	28.15
262.695	28.27
262.91	27.85
263.125	29.65
263.34	30.56
263.555	31.36
263.769	31.93
263.984	31.8
264.199	31.32
264.414	31.9
264.629	32.09
264.843	31.85
265.058	32.13
265.273	31.29
265.488	30.12
265.702	28.96
265.917	29.37
266.132	28.77
266.346	28.11
266.561	28.04
266.776	27.81
266.99	27.23
267.205	27.34
267.42	27.38
267.634	27.47
267.849	27.94
268.063	28.73
268.278	28.12
268.492	28.43
268.707	27.86
268.922	27.85
269.136	27.39
269.351	26.98
269.565	26.76
269.78	25.92
269.994	25.65
270.209	24.86
270.423	24.61
270.637	23.75
270.852	23.28
271.066	23.65
271.281	23.54
271.495	23.78
271.709	24.37
271.924	24.15
272.138	24.35
272.353	24.18
272.567	23.61
272.781	23.27
272.996	24.06
273.21	24.18
273.424	24.07
273.638	23.94
273.853	24.54
274.067	24.48
274.281	24.91
274.495	24.94
274.71	25.19
274.924	25.99
275.138	26.34
275.352	26.05
275.566	26.37
275.781	26.58
275.995	27.11
276.209	26.84
276.423	26.05
276.637	25.18
276.851	24.78
277.065	24.73
277.279	24.73
277.493	24.28
277.707	24.52
277.921	24.11
278.135	23.24
278.349	22.61
278.563	22.57
278.777	23.07
278.991	23.36
279.205	24.4
279.419	25.13
279.633	25.61
279.847	25.33
280.061	24.32
280.275	23.94
280.489	24.53
280.703	23.88
280.917	24.02
281.131	23.67
281.344	23.61
281.558	22.29
281.772	21.94
281.986	21.82
282.2	21.58
282.414	21.95
282.627	22.46
282.841	22.39
283.055	22.84
283.269	22.28
283.482	22.15
283.696	22.12
283.91	22.61
284.123	22.41
284.337	22.1
284.551	22.41
284.764	22.76
284.978	22.81
285.192	22.38
285.405	21.82
285.619	21.62
285.833	21.7
286.046	21.49
286.26	21.14
286.473	21.21
286.687	20.88
286.9	21.17
287.114	20.55
287.327	19.82
287.541	19.78
287.754	20.29
287.968	20.66
288.181	20.58
288.395	21.1
288.608	21.85
288.822	21.68
289.035	21.5
289.248	20.84
289.462	21.09
289.675	21.26
289.889	21.47
290.102	21.13
290.315	20.97
290.529	21.01
290.742	20.84
290.955	20.58
291.169	20.8
291.382	20.97
291.595	21.33
291.808	20.79
292.022	20.94
292.235	21.75
292.448	22.14
292.661	21.99
292.875	21.84
293.088	21.49
293.301	21.02
293.514	20.76
293.727	21.26
293.94	21.82
294.153	22.11
294.367	21.97
294.58	20.88
294.793	21.2
295.006	21.46
295.219	21.65
295.432	22.02
295.645	22.12
295.858	21.91
296.071	21.46
296.284	20.8
296.497	20.73
296.71	20.8
296.923	21.13
297.136	20.87
297.349	21.06
297.562	20.98
297.775	20.61
297.988	20.86
298.201	21.02
298.414	21.42
298.626	21.35
298.839	21.3
299.052	21.38
299.265	21.76
299.478	21.4
299.691	20.99
299.903	21.14
300.116	21.32
300.329	21.18
300.542	21.19
300.755	21.7
300.967	21.6
301.18	21.96
301.393	21.97
301.605	21.5
301.818	22.03
302.031	22.3
302.243	22.19
302.456	22.63
302.669	22.6
302.881	22.89
303.094	22.16
303.307	21.77
303.519	21.55
303.732	21.4
303.944	21.59
304.157	21.37
304.37	21.06
304.582	21.13
304.795	20.89
305.007	20.92
305.22	21.29
305.432	21.34
305.645	22.47
305.857	22.72
306.069	22.48
306.282	22.57
306.494	23.23
306.707	23.55
306.919	23.5
307.132	23.14
307.344	23.39
307.556	22.87
307.769	23.09
307.981	23.16
308.193	23.39
308.406	23.32
308.618	23.32
308.83	22.75
309.043	22.44
309.255	22.46
309.467	22.52
309.679	22.4
309.892	22.3
310.104	21.97
310.316	21.61
310.528	21.64
310.74	21.81
310.953	21.53
311.165	21.88
311.377	21.83
311.589	21.74
311.801	21.94
312.013	21.97
312.225	22.29
312.437	22.81
312.649	23.11
312.862	22.62
313.074	22.33
313.286	22.82
313.498	22.53
313.71	23.23
313.922	23.58
314.134	23.29
314.346	23.61
314.558	23.9
314.77	24.05
314.982	24.36
315.193	25.01
315.405	25.53
315.617	25.46
315.829	25.87
316.041	26.09
316.253	26.21
316.465	26.63
316.677	26.9
316.888	27.04
317.1	27.04
317.312	26.8
317.524	26.95
317.736	27.21
317.947	27.34
318.159	27.3
318.371	26.36
318.583	26.24
318.794	26.1
319.006	25.63
319.218	24.91
319.43	24.25
319.641	24.76
319.853	24.79
320.064	25.23
320.276	25.52
320.488	25.47
320.699	25.79
320.911	26.02
321.123	26.68
321.334	27.27
321.546	28.1
321.757	28.78
321.969	28.62
322.18	28.69
322.392	28.43
322.603	28.09
322.815	28.36
323.026	28.98
323.238	28.97
323.449	29.28
323.661	29.08
323.872	29.15
324.083	29.91
324.295	29.83
324.506	29.9
324.718	30.42
324.929	30.78
325.14	31.37
325.352	31.42
325.563	32.15
325.774	32.07
325.986	32.38
326.197	32.47
326.408	32.56
326.62	33.18
326.831	33.2
327.042	33.05
327.253	33.21
327.464	33.35
327.676	34.04
327.887	33.99
328.098	34.46
328.309	34.76
328.52	35.66
328.732	35.88
328.943	36.53
329.154	37.48
329.365	38.74
329.576	39.84
329.787	40.37
329.998	40.47
330.209	41.33
330.42	41.62
330.631	42.11
330.842	41.85
331.053	42.35
331.264	42.32
331.475	42.62
331.686	42.48
331.897	42.8
332.108	43.34
332.319	43.91
332.53	44.08
332.741	44.52
332.952	44.73
333.163	45.23
333.374	45.33
333.585	45.4
333.795	45.54
334.006	46.18
334.217	46.16
334.428	46.16
334.639	46.24
334.849	45.87
335.06	45.64
335.271	45.94
335.482	46.24
335.692	46.3
335.903	46.82
336.114	46.93
336.325	46.74
336.535	46.96
336.746	46.76
336.957	46.91
337.167	47.21
337.378	47.4
337.589	47.67
337.799	47.52
338.01	47.62
338.22	47.56
338.431	47.28
338.642	47.23
338.852	47.1
339.063	46.91
339.273	46.81
339.484	46.74
339.694	47.14
339.905	47.06
340.115	47.13
340.326	47.18
340.536	46.95
340.746	47.21
340.957	46.99
341.167	46.79
341.378	47.27
341.588	47.17
341.799	47.61
342.009	46.87
342.219	46.39
342.43	46.5
342.64	46.4
342.85	46.43
343.061	46.27
343.271	46.78
343.481	46.72
343.691	46.3
343.902	45.95
344.112	45.5
344.322	46.16
344.532	46.35
344.743	45.99
344.953	45.77
345.163	45.59
345.373	45.69
345.583	45.02
345.793	45.21
346.004	45.37
346.214	45.67
346.424	45.78
346.634	45.13
346.844	45.11
347.054	45.49
347.264	45.71
347.474	45.68
347.684	45.33
347.894	45.64
348.104	45.6
348.314	45.59
348.524	45.19
348.734	44.89
348.944	45.28
349.154	45.37
349.364	45.01
349.574	44.98
349.784	45.09
349.994	45.34
350.204	44.94
350.413	44.77
350.623	44.51
350.833	44.53
351.043	44.32
351.253	43.96
351.463	43.36
351.672	43.32
351.882	42.99
352.092	43.04
352.302	43.07
352.511	43.26
352.721	43.34
352.931	43.35
353.141	43.27
353.35	43.79
353.56	44
353.77	44.35
353.979	44.19
354.189	44.27
354.399	43.83
354.608	43.45
354.818	43.44
355.027	43.37
355.237	43.33
355.447	43.53
355.656	43.29
355.866	43.13
356.075	43.02
356.285	43.14
356.494	43.13
356.704	43.23
356.913	42.99
357.123	43.02
357.332	42.93
357.542	43.24
357.751	43.35
357.96	43.3
358.17	43.17
358.379	43.38
358.589	43.56
358.798	43.31
359.007	43.21
359.217	42.96
359.426	42.85
359.635	42.48
359.845	42.09
360.054	41.64
360.263	41.53
360.472	41.27
360.682	40.79
360.891	40.26
361.1	40.07
361.309	39.96
361.519	40.09
361.728	40.13
361.937	40.27
362.146	40.49
362.355	40.63
362.564	40.36
362.774	40.51
362.983	40.67
363.192	40.89
363.401	41.35
363.61	41.52
363.819	41.83
364.028	41.34
364.237	41.09
364.446	40.79
364.655	40.82
364.864	40.96
365.073	40.93
365.282	40.92
365.491	40.79
365.7	40.4
365.909	40.15
366.118	40.03
366.327	40.04
366.536	40.19
366.745	40.2
366.954	40.15
367.162	40.19
367.371	40.13
367.58	40
367.789	39.9
367.998	40.01
368.207	40.02
368.415	40.03
368.624	40.51
368.833	40.25
369.042	40.18
369.25	40.26
369.459	40.46
369.668	40.37
369.877	40.43
370.085	40.33
370.294	40.28
370.503	40.11
370.711	39.81
370.92	39.53
371.129	39.68
371.337	39.84
371.546	39.45
371.754	38.97
371.963	38.8
372.171	38.82
372.38	38.93
372.589	38.83
372.797	39.05
373.006	38.95
373.214	38.59
373.423	38.44
373.631	38.01
373.84	37.92
374.048	37.97
374.256	38.09
374.465	37.94
374.673	37.54
374.882	37.39
375.09	37.18
375.298	37.33
375.507	37.37
375.715	37.09
375.923	36.67
376.132	36.57
376.34	36.61
376.548	36.41
376.757	36.4
376.965	36.68
377.173	36.71
377.381	36.9
377.59	36.91
377.798	36.95
378.006	37.03
378.214	37.38
378.423	37.44
378.631	37.24
378.839	37.34
379.047	37.2
379.255	37.09
379.463	36.99
379.671	36.63
379.879	36.52
380.088	36.54
380.296	36.66
380.504	36.42
380.712	36.53
380.92	36.73
381.128	36.76
381.336	36.58
381.544	36.62
381.752	36.71
381.96	36.78
382.168	36.73
382.376	36.63
382.584	36.67
382.791	36.88
382.999	36.72
383.207	36.33
383.415	36.46
383.623	36.52
383.831	36.38
384.039	36.37
384.247	36.31
384.454	36.15
384.662	35.92
384.87	35.76
385.078	35.63
385.285	35.47
385.493	35.64
385.701	35.41
385.909	35.49
386.116	35.47
386.324	35.22
386.532	35.07
386.739	35.07
386.947	35.06
387.155	34.98
387.362	35.11
387.57	35.34
387.778	35.29
387.985	35.38
388.193	35.13
388.4	35.35
388.608	35.51
388.816	35.83
389.023	35.71
389.231	35.69
389.438	35.69
389.646	35.26
389.853	35.08
390.061	35.01
390.268	34.66
390.475	34.69
390.683	34.53
390.89	34.2
391.098	34.03
391.305	34.08
391.512	34.08
391.72	34.15
391.927	34.38
392.135	34.28
392.342	34.08
392.549	34.24
392.756	34.35
392.964	34.14
393.171	34.24
393.378	34.17
393.586	34.11
393.793	34.24
394	34.22
394.207	34.11
394.414	34.13
394.622	34.26
394.829	34.26
395.036	34.27
395.243	34.2
395.45	33.94
395.657	33.92
395.864	34.14
396.072	33.84
396.279	33.91
396.486	33.71
396.693	33.69
396.9	33.77
397.107	33.46
397.314	33.25
397.521	33.2
397.728	33.53
397.935	33.66
398.142	33.28
398.349	33.46
398.556	33.04
398.763	33.04
398.97	32.95
399.177	32.88
399.383	33.09
399.59	33.02
399.797	32.96
400.004	32.81
400.211	32.66
400.418	32.92
400.625	32.84
400.831	33.22
401.038	33.19
401.245	33.27
401.452	33.12
401.658	32.8
401.865	32.63
402.072	32.67
402.279	32.6
402.485	32.4
402.692	32.16
402.899	32.12
403.105	31.98
403.312	32.39
403.519	32.26
403.725	32.27
403.932	32.5
404.138	32.71
404.345	32.81
404.552	32.83
404.758	33.08
404.965	33.16
405.171	32.99
405.378	32.95
405.584	32.67
405.791	32.73
405.997	32.94
406.204	32.91
406.41	32.82
406.617	32.63
406.823	32.4
407.029	32.24
407.236	32.15
407.442	32.18
407.649	32.03
407.855	31.96
408.061	32.11
408.268	31.81
408.474	31.69
408.68	31.57
408.887	31.75
409.093	32.02
409.299	32
409.505	32.12
409.712	32.23
409.918	32.44
410.124	32.51
410.33	32.44
410.537	32.56
410.743	32.74
410.949	32.83
411.155	32.8
411.361	32.9
411.567	33.07
411.773	33.02
411.98	32.83
412.186	32.72
412.392	32.66
412.598	32.51
412.804	32.5
413.01	32.37
413.216	32.31
413.422	32.41
413.628	32.36
413.834	32.04
414.04	32.04
414.246	32.16
414.452	32.12
414.658	31.99
414.864	31.95
415.07	31.9
415.275	31.74
415.481	31.66
415.687	31.35
415.893	31.28
416.099	31.24
416.305	31
416.511	31.06
416.716	31.02
416.922	31.02
417.128	31.08
417.334	31.08
417.539	31.13
417.745	31.09
417.951	31.27
418.157	31.22
418.362	31.19
418.568	31.29
418.774	31.34
418.979	31.28
419.185	31.3
419.391	31.11
419.596	31.03
419.802	30.97
420.008	30.99
420.213	30.78
420.419	30.67
420.624	30.64
420.83	30.61
421.035	30.48
421.241	30.53
421.446	30.58
421.652	30.81
421.857	30.9
422.063	30.92
422.268	30.97
422.474	30.99
422.679	31.01
422.885	30.95
423.09	30.8
423.295	30.87
423.501	30.77
423.706	30.62
423.911	30.36
424.117	30.24
424.322	30.16
424.527	30.1
424.733	30.36
424.938	30.51
425.143	30.59
425.349	30.84
425.554	30.82
425.759	31.01
425.964	31.19
426.169	31.38
426.375	31.61
426.58	31.77
426.785	31.87
426.99	31.73
427.195	31.6
427.4	31.71
427.605	31.63
427.811	31.54
428.016	31.42
428.221	31.39
428.426	31.43
428.631	31.43
428.836	31.38
429.041	31.38
429.246	31.32
429.451	31.51
429.656	31.59
429.861	31.46
430.066	31.51
430.271	31.5
430.476	31.35
430.681	31.23
430.886	31.19
431.09	31.14
431.295	31.1
431.5	31
431.705	30.62
431.91	30.36
432.115	30.27
432.32	30.06
432.524	30.12
432.729	30.18
432.934	30.19
433.139	30.27
433.343	30.37
433.548	30.46
433.753	30.7
433.958	30.9
434.162	31.17
434.367	31.31
434.572	31.56
434.776	31.44
434.981	31.42
435.186	31.46
435.39	31.11
435.595	31.07
435.799	31.09
436.004	30.87
436.209	30.75
436.413	30.59
436.618	30.47
436.822	30.43
437.027	30.44
437.231	30.57
437.436	30.52
437.64	30.42
437.845	30.42
438.049	30.41
438.253	30.29
438.458	30.27
438.662	30.35
438.867	30.34
439.071	30.4
439.275	30.41
439.48	30.54
439.684	30.62
439.888	30.88
440.093	31.09
440.297	31.06
440.501	31.14
440.706	31.27
440.91	31.42
441.114	31.68
441.318	31.59
441.523	31.71
441.727	31.54
441.931	31.68
442.135	31.83
442.339	31.66
442.543	31.53
442.748	31.58
442.952	31.49
443.156	31.36
443.36	31.14
443.564	30.99
443.768	30.61
443.972	30.46
444.176	30.18
444.38	29.92
444.584	29.94
444.788	29.87
444.992	29.79
445.196	29.91
445.4	29.71
445.604	29.65
445.808	29.62
446.012	29.86
446.216	29.94
446.42	30.03
446.624	30.15
446.828	30.1
447.032	30.21
447.235	30.33
447.439	30.31
447.643	30.53
447.847	30.81
448.051	30.97
448.254	30.99
448.458	31.07
448.662	31.29
448.866	31.28
449.069	31.23
449.273	31.41
449.477	31.41
449.681	31.41
449.884	31.11
450.088	30.89
450.292	30.83
450.495	30.69
450.699	30.6
450.902	30.37
451.106	30.36
451.31	30.49
451.513	30.42
451.717	30.43
451.92	30.22
452.124	30.58
452.327	30.76
452.531	30.98
452.734	31.03
452.938	31
453.141	30.95
453.345	30.85
453.548	30.77
453.752	30.6
453.955	30.48
454.158	30.68
454.362	30.6
454.565	30.52
454.769	30.4
454.972	30.47
455.175	30.38
455.379	30.35
455.582	30.43
455.785	30.63
455.988	30.72
456.192	30.81
456.395	30.82
456.598	30.67
456.801	30.23
457.005	30.28
457.208	30.19
457.411	30.32
457.614	30.01
457.817	29.94
458.021	29.6
458.224	29.28
458.427	29.12
458.63	29.2
458.833	29.19
459.036	29.38
459.239	29.37
459.442	29.39
459.645	29.39
459.848	29.78
460.051	29.75
460.254	30.12
460.457	30.45
460.66	30.74
460.863	30.87
461.066	31.11
461.269	31.26
461.472	31.45
461.675	31.51
461.878	31.58
462.081	31.52
462.284	31.66
462.486	31.4
462.689	31.49
462.892	31.36
463.095	31.11
463.298	30.76
463.5	30.65
463.703	30.41
463.906	30.3
464.109	30.33
464.311	30.14
464.514	30.11
464.717	30.18
464.92	30.11
465.122	30.26
465.325	30.3
465.528	30.4
465.73	30.43
465.933	30.55
466.135	30.43
466.338	30.42
466.541	30.64
466.743	30.68
466.946	30.78
467.148	30.74
467.351	30.65
467.553	30.53
467.756	30.63
467.958	30.6
468.161	30.45
468.363	30.66
468.566	30.44
468.768	30.19
468.971	30.17
469.173	29.9
469.375	29.86
469.578	29.59
469.78	29.73
469.983	29.71
470.185	29.74
470.387	29.83
470.59	30.07
470.792	30.36
470.994	30.65
471.196	30.6
471.399	30.68
471.601	30.63
471.803	30.88
472.005	30.94
472.208	30.86
472.41	30.93
472.612	30.83
472.814	30.69
473.016	30.6
473.218	30.55
473.421	30.49
473.623	30.74
473.825	30.88
474.027	30.84
474.229	30.74
474.431	30.76
474.633	30.85
474.835	31.01
475.037	30.86
475.239	30.72
475.441	30.58
475.643	30.68
475.845	30.5
476.047	30.46
476.249	30.43
476.451	30.36
476.653	30.27
476.855	30.08
477.057	29.88
477.258	29.84
477.46	29.92
477.662	29.92
477.864	29.88
478.066	29.74
478.268	29.8
478.469	29.74
478.671	29.73
478.873	29.8
479.075	29.89
479.276	30.01
479.478	30.13
479.68	30.09
479.882	30.16
480.083	30.12
480.285	30.08
480.487	29.91
480.688	29.92
480.89	29.92
481.091	29.83
481.293	29.7
481.495	29.55
481.696	29.34
481.898	29.06
482.099	28.72
482.301	28.46
482.502	28.22
482.704	27.94
482.905	27.77
483.107	27.67
483.308	27.73
483.51	27.86
483.711	28.1
483.913	28.39
484.114	28.79
484.315	29.23
484.517	29.77
484.718	30.34
484.92	30.98
485.121	31.46
485.322	31.82
485.524	31.86
485.725	31.69
485.926	31.31
486.127	30.84
486.329	30.34
486.53	29.95
486.731	29.47
486.932	29.22
487.134	29.03
487.335	29
487.536	29.05
487.737	29.21
487.938	29.47
488.139	29.75
488.341	30.15
488.542	30.58
488.743	30.93
488.944	31.32
489.145	31.41
489.346	31.49
489.547	31.44
489.748	31.24
489.949	30.89
490.15	30.45
490.351	29.96
490.552	29.61
490.753	29.26
490.954	29.06
491.155	28.99
491.356	29.07
491.557	29.19
491.758	29.37
491.959	29.67
492.159	30.08
492.36	30.53
492.561	31.12
492.762	31.54
492.963	32.01
493.164	32.37
493.364	32.57
493.565	32.72
493.766	32.57
493.967	32.3
494.167	32
494.368	31.64
494.569	31.26
494.769	30.93
494.97	30.71
495.171	30.43
495.371	30.13
495.572	29.93
495.773	29.62
495.973	29.64
496.174	29.65
496.375	29.65
496.575	29.74
496.776	29.88
496.976	30
497.177	30
497.377	30.23
497.578	30.43
497.778	30.56
497.979	30.74
498.179	30.85
498.38	30.93
498.58	31.01
498.78	31.03
498.981	31.02
499.181	31.06
499.382	31.03
499.582	30.98
499.782	31.04
499.983	31.03
500.183	31.13
500.383	31.09
500.584	31.1
500.784	31.01
500.984	31.03
501.184	31
501.385	30.94
501.585	31.09
501.785	31.03
501.985	31.08
502.185	31.19
502.386	31.05
502.586	31.07
502.786	31.06
502.986	31.06
503.186	31.13
503.386	31.23
503.586	31.26
503.786	31.18
503.987	31.26
504.187	31.31
504.387	31.28
504.587	31.33
504.787	31.42
504.987	31.43
505.187	31.49
505.387	31.37
505.587	31.34
505.786	31.32
505.986	31.47
506.186	31.37
506.386	31.22
506.586	31.15
506.786	31.12
506.986	31.12
507.186	31.12
507.386	31.03
507.585	31.02
507.785	31.1
507.985	31.18
508.185	31.17
508.384	31.24
508.584	31.29
508.784	31.43
508.984	31.54
509.183	31.63
509.383	31.71
509.583	31.74
509.782	31.85
509.982	31.84
510.182	31.88
510.381	31.96
510.581	32.04
510.781	32.03
510.98	32
511.18	32.05
511.379	32.05
511.579	32.13
511.778	32.33
511.978	32.46
512.177	32.63
512.377	32.76
512.576	32.82
512.776	32.9
512.975	33.15
513.175	33.26
513.374	33.46
513.573	33.55
513.773	33.67
513.972	33.64
514.172	33.73
514.371	33.73
514.57	33.77
514.77	33.79
514.969	33.73
515.168	33.73
515.367	33.74
515.567	33.71
515.766	33.67
515.965	33.61
516.164	33.63
516.364	33.52
516.563	33.36
516.762	33.19
516.961	33.04
517.16	33.06
517.359	32.97
517.559	32.97
517.758	32.94
517.957	33.06
518.156	33.18
518.355	33.33
518.554	33.58
518.753	33.94
518.952	34.24
519.151	34.59
519.35	34.88
519.549	35.21
519.748	35.54
519.947	35.84
520.146	36.02
520.345	36.14
520.544	36.25
520.743	36.2
520.942	36.15
521.141	36.19
521.339	36.24
521.538	36.27
521.737	36.28
521.936	36.23
522.135	36.2
522.333	36.2
522.532	36.24
522.731	36.31
522.93	36.35
523.129	36.45
523.327	36.43
523.526	36.24
523.725	36.14
523.923	36.04
524.122	35.95
524.321	35.85
524.519	35.87
524.718	35.84
524.917	35.89
525.115	36.05
525.314	36.16
525.512	36.43
525.711	36.76
525.909	36.99
526.108	37.16
526.306	37.22
526.505	37.26
526.703	37.16
526.902	36.98
527.1	36.74
527.299	36.46
527.497	36.23
527.696	36.03
527.894	35.96
528.092	36.03
528.291	36.23
528.489	36.57
528.688	36.95
528.886	37.44
529.084	38.06
529.283	38.8
529.481	39.6
529.679	40.48
529.877	41.32
530.076	42.03
530.274	42.53
530.472	42.85
530.67	42.89
530.869	42.69
531.067	42.38
531.265	41.95
531.463	41.5
531.661	40.99
531.859	40.48
532.057	40.01
532.255	39.64
532.454	39.47
532.652	39.4
532.85	39.44
533.048	39.72
533.246	40.07
533.444	40.53
533.642	40.98
533.84	41.6
534.038	42.21
534.236	42.87
534.434	43.45
534.632	43.84
534.83	44.02
535.027	44.08
535.225	43.91
535.423	43.58
535.621	43.25
535.819	43
536.017	42.71
536.215	42.6
536.412	42.61
536.61	42.71
536.808	42.79
537.006	43.04
537.203	43.35
537.401	43.79
537.599	44.18
537.797	44.54
537.994	44.87
538.192	45.21
538.39	45.34
538.587	45.19
538.785	45.06
538.983	44.81
539.18	44.51
539.378	44.12
539.575	43.76
539.773	43.33
539.97	42.97
540.168	42.64
540.366	42.48
540.563	42.38
540.761	42.48
540.958	42.66
541.155	42.96
541.353	43.31
541.55	43.84
541.748	44.33
541.945	44.97
542.143	45.61
542.34	46.25
542.537	46.81
542.735	47.49
542.932	48.05
543.129	48.45
543.327	48.77
543.524	49.02
543.721	49
543.919	49
544.116	49.02
544.313	48.99
544.51	48.94
544.708	48.88
544.905	48.63
545.102	48.48
545.299	48.25
545.496	48.02
545.693	47.84
545.891	47.73
546.088	47.67
546.285	47.65
546.482	47.8
546.679	48.02
546.876	48.21
547.073	48.5
547.27	48.66
547.467	49.02
547.664	49.51
547.861	49.89
548.058	50.32
548.255	50.71
548.452	51.03
548.649	51.26
548.846	51.4
549.043	51.5
549.24	51.5
549.437	51.6
549.633	51.59
549.83	51.31
550.027	51.09
550.224	51.02
550.421	50.83
550.618	50.65
550.814	50.48
551.011	50.33
551.208	50.12
551.405	50.01
551.601	49.88
551.798	49.89
551.995	49.86
552.191	50.04
552.388	50.08
552.585	50.2
552.781	50.43
552.978	50.78
553.175	51.06
553.371	51.43
553.568	51.74
553.764	51.99
553.961	52.3
554.157	52.77
554.354	52.92
554.55	53.06
554.747	53.2
554.943	53.23
555.14	53.01
555.336	52.97
555.533	52.9
555.729	53.01
555.926	53.18
556.122	53.06
556.318	52.97
556.515	53.09
556.711	53.08
556.907	53.27
557.104	53.39
557.3	53.64
557.496	54.01
557.693	54.1
557.889	54.17
558.085	54.29
558.281	54.48
558.478	54.61
558.674	54.58
558.87	54.81
559.066	54.83
559.262	54.8
559.459	54.91
559.655	54.82
559.851	54.87
560.047	54.95
560.243	54.91
560.439	54.95
560.635	54.97
560.831	55.21
561.027	55.28
561.223	55.4
561.419	55.66
561.615	55.72
561.811	55.89
562.007	56.23
562.203	56.4
562.399	56.69
562.595	56.75
562.791	56.92
562.987	56.93
563.183	57.03
563.379	57.14
563.575	57.23
563.771	57.29
563.966	57.18
564.162	57.03
564.358	56.94
564.554	56.81
564.75	56.65
564.945	56.53
565.141	56.47
565.337	56.45
565.533	56.48
565.728	56.53
565.924	56.69
566.12	56.93
566.315	57.33
566.511	57.61
566.707	57.9
566.902	58.4
567.098	58.84
567.293	59.16
567.489	59.31
567.684	59.5
567.88	59.56
568.076	59.6
568.271	59.72
568.467	59.53
568.662	59.46
568.858	59.54
569.053	59.44
569.248	59.19
569.444	59.14
569.639	59.07
569.835	58.83
570.03	58.88
570.225	58.76
570.421	58.7
570.616	58.76
570.812	58.74
571.007	58.64
571.202	58.63
571.397	58.86
571.593	58.98
571.788	59.2
571.983	59.57
572.178	59.79
572.374	60.21
572.569	60.38
572.764	60.55
572.959	60.78
573.154	60.98
573.35	61.12
573.545	61.11
573.74	61.1
573.935	61.2
574.13	61.21
574.325	61.15
574.52	61.05
574.715	61.1
574.91	61.19
575.105	61.4
575.3	61.62
575.495	61.9
575.69	62.16
575.885	62.43
576.08	62.56
576.275	62.6
576.47	62.76
576.665	62.98
576.86	63.1
577.055	63.15
577.25	62.94
577.444	62.77
577.639	62.8
577.834	62.76
578.029	62.78
578.224	62.88
578.418	63.06
578.613	62.99
578.808	62.9
579.003	62.88
579.197	62.94
579.392	63.1
579.587	63.2
579.781	62.99
579.976	62.97
580.171	62.86
580.365	62.8
580.56	62.79
580.755	62.85
580.949	62.86
581.144	62.97
581.338	62.98
581.533	63.1
581.727	63.08
581.922	63.24
582.116	63.34
582.311	63.54
582.505	63.61
582.7	63.64
582.894	63.63
583.089	63.7
583.283	63.61
583.478	63.68
583.672	63.53
583.866	63.56
584.061	63.68
584.255	63.69
584.449	63.57
584.644	63.44
584.838	63.47
585.032	63.85
585.226	63.97
585.421	64.16
585.615	64.21
585.809	64.32
586.003	64.34
586.198	64.39
586.392	64.4
586.586	64.43
586.78	64.48
586.974	64.49
587.168	64.26
587.363	64.17
587.557	63.88
587.751	63.8
587.945	63.63
588.139	63.63
588.333	63.4
588.527	63.55
588.721	63.55
588.915	63.74
589.109	63.75
589.303	63.87
589.497	63.94
589.691	64.13
589.885	64.2
590.079	64.43
590.273	64.63
590.466	65.07
590.66	65.02
590.854	65.29
591.048	65.37
591.242	65.42
591.436	65.36
591.629	65.47
591.823	65.61
592.017	65.68
592.211	65.61
592.404	65.47
592.598	65.11
592.792	65.06
592.986	64.88
593.179	64.75
593.373	64.7
593.567	64.74
593.76	64.86
593.954	64.96
594.147	64.85
594.341	64.83
594.535	64.8
594.728	64.84
594.922	64.73
595.115	64.71
595.309	64.44
595.502	64.31
595.696	64.1
595.889	63.85
596.083	63.7
596.276	63.8
596.47	63.94
596.663	64.14
596.856	64.52
597.05	64.85
597.243	65.25
597.437	65.91
597.63	66.37
597.823	66.88
598.017	67.25
598.21	67.58
598.403	67.94
598.596	68.4
598.79	68.51
598.983	68.39
599.176	68.18
599.369	68.05
599.563	67.78
599.756	67.66
599.949	67.59
600.142	67.45
600.335	67.37
600.528	67.12
600.722	66.73
600.915	66.46
601.108	66.2
601.301	66.36
601.494	65.93
601.687	65.71
601.88	65.46
602.073	65.17
602.266	65.09
602.459	64.81
602.652	64.76
602.845	64.65
603.038	64.55
603.231	64.5
603.424	64.35
603.617	64.5
603.809	64.46
604.002	64.55
604.195	64.79
604.388	65.08
604.581	65.48
604.774	65.71
604.966	66.1
605.159	66.68
605.352	67.15
605.545	67.7
605.737	68.21
605.93	68.85
606.123	69.45
606.316	69.67
606.508	69.68
606.701	69.35
606.894	69.38
607.086	69.12
607.279	68.65
607.471	68.39
607.664	67.69
607.857	67.06
608.049	66.65
608.242	66.16
608.434	65.98
608.627	65.76
608.819	65.98
609.012	65.95
609.204	66.04
609.397	66.44
609.589	66.79
609.782	67.59
609.974	68.25
610.166	69.02
610.359	69.55
610.551	69.92
610.743	70.41
610.936	70.82
611.128	71.1
611.32	71.28
611.513	71.4
611.705	71.26
611.897	70.9
612.09	70.71
612.282	70.22
612.474	70.15
612.666	70.18
612.858	70.12
613.051	69.98
613.243	69.87
613.435	69.85
613.627	69.63
613.819	69.4
614.011	69.71
614.203	69.64
614.395	69.68
614.588	69.39
614.78	69.35
614.972	69.23
615.164	69.06
615.356	68.91
615.548	68.68
615.74	68.75
615.932	68.93
616.124	68.32
616.315	68.49
616.507	68.37
616.699	68.52
616.891	68.49
617.083	68.56
617.275	68.52
617.467	68.7
617.659	68.9
617.85	68.92
618.042	68.78
618.234	68.99
618.426	69.08
618.618	69.13
618.809	69.15
619.001	69.07
619.193	69.16
619.384	69.38
619.576	69.29
619.768	69.47
619.959	69.37
620.151	69.65
620.343	69.66
620.534	69.69
620.726	69.79
620.917	69.93
621.109	69.87
621.301	69.72
621.492	69.59
621.684	69.57
621.875	69.49
622.067	69.69
622.258	69.64
622.45	69.68
622.641	69.46
622.832	69.46
623.024	69.26
623.215	69.46
623.407	69.47
623.598	69.74
623.789	69.88
623.981	69.65
624.172	69.67
624.363	69.53
624.555	69.38
624.746	69.29
624.937	69.07
625.129	69.06
625.32	68.73
625.511	68.62
625.702	68.41
625.893	68.34
626.085	68.3
626.276	68.16
626.467	68.23
626.658	68.51
626.849	68.73
627.04	69.07
627.231	69.04
627.422	69.37
627.614	69.71
627.805	69.84
627.996	70.06
628.187	70.44
628.378	70.46
628.569	70.44
628.76	70.36
628.951	70.14
629.142	70.03
629.332	70.33
629.523	70.3
629.714	70.22
629.905	70.17
630.096	70
630.287	69.99
630.478	69.92
630.669	70.24
630.859	70.36
631.05	70.55
631.241	70.48
631.432	70.36
631.623	70.24
631.813	70.07
632.004	69.93
632.195	69.99
632.385	69.69
632.576	69.63
632.767	69.27
632.957	69.02
633.148	69.09
633.339	69.05
633.529	69.13
633.72	69.23
633.91	69.22
634.101	69.31
634.292	69.43
634.482	69.68
634.673	69.91
634.863	70.2
635.054	70.49
635.244	70.21
635.435	70.35
635.625	70.32
635.815	70.33
636.006	70.59
636.196	70.61
636.387	70.41
636.577	70.36
636.767	70.36
636.958	70.3
637.148	70.19
637.338	70.52
637.529	70.18
637.719	70.16
637.909	70.16
638.099	69.96
638.29	69.89
638.48	69.95
638.67	69.97
638.86	70.05
639.05	69.98
639.241	69.96
639.431	69.83
639.621	70.16
639.811	70.12
640.001	70.28
640.191	70.26
640.381	70.19
640.571	70.22
640.761	70.25
640.951	70.44
641.141	70.35
641.331	70.3
641.521	70.26
641.711	70.41
641.901	70.38
642.091	69.96
642.281	69.99
642.471	70
642.661	69.98
642.851	69.87
643.041	69.86
643.231	69.88
643.42	70.05
643.61	70.15
643.8	70.04
643.99	70.12
644.18	70.39
644.369	70.5
644.559	70.55
644.749	70.69
644.939	70.72
645.128	70.39
645.318	70.28
645.508	69.97
645.697	70
645.887	70.06
646.076	70.26
646.266	70.05
646.456	69.9
646.645	69.82
646.835	69.79
647.024	69.72
647.214	69.82
647.403	69.84
647.593	70.12
647.782	70.08
647.972	70.01
648.161	69.84
648.351	70.02
648.54	70.1
648.73	70.09
648.919	69.97
649.108	69.91
649.298	69.95
649.487	70.27
649.677	70.09
649.866	69.93
650.055	69.87
650.244	69.74
650.434	69.67
650.623	69.76
650.812	69.77
651.002	69.89
651.191	69.93
651.38	69.89
651.569	69.81
651.758	69.82
651.947	70.04
652.137	70.3
652.326	70.56
652.515	70.55
652.704	70.5
652.893	70.86
653.082	70.88
653.271	71.34
653.46	71.26
653.649	71.33
653.838	71.33
654.027	71.29
654.216	70.91
654.405	70.81
654.594	71.1
654.783	71.22
654.972	71.08
655.161	71.16
655.35	70.72
655.539	70.79
655.728	70.61
655.916	70.83
656.105	70.74
656.294	70.74
656.483	70.56
656.672	70.53
656.86	70.08
657.049	69.93
657.238	69.59
657.427	69.47
657.615	69.2
657.804	68.93
657.993	68.72
658.181	68.54
658.37	68.43
658.559	68.67
658.747	68.42
658.936	68.8
659.125	69.41
659.313	69.69
659.502	69.87
659.69	70.15
659.879	70.74
660.067	71
660.256	71.42
660.444	71.85
660.633	71.87
660.821	72.38
661.01	72.53
661.198	72.01
661.387	72.1
661.575	72.29
661.763	72.66
661.952	72.32
662.14	72.38
662.328	72.12
662.517	72.03
662.705	72.05
662.893	71.73
663.082	71.74
663.27	71.68
663.458	71.53
663.646	71.34
663.834	70.63
664.023	70.67
664.211	70.46
664.399	70.58
664.587	70.47
664.775	70.29
664.963	70.08
665.152	69.99
665.34	70.05
665.528	69.97
665.716	70.04
665.904	70.32
666.092	70.28
666.28	70.17
666.468	70.09
666.656	69.99
666.844	70.3
667.032	70.33
667.22	70.14
667.408	70.04
667.596	70.16
667.784	69.98
667.971	69.97
668.159	69.9
668.347	69.96
668.535	70.05
668.723	70.21
668.911	70.17
669.098	70.25
669.286	70.32
669.474	70.47
669.662	70.54
669.849	70.98
670.037	71.07
670.225	71.37
670.413	71.54
670.6	71.61
670.788	71.39
670.976	71.15
671.163	71.06
671.351	70.85
671.538	70.83
671.726	70.69
671.913	70.22
672.101	70.47
672.289	70.2
672.476	70.26
672.664	70.21
672.851	70.32
673.039	70.38
673.226	70.57
673.413	70.91
673.601	70.77
673.788	70.71
673.976	70.91
674.163	70.53
674.35	70.58
674.538	70.52
674.725	70.45
674.912	70.34
675.1	70.19
675.287	70.16
675.474	70.03
675.662	69.88
675.849	70.16
676.036	70.2
676.223	70.3
676.411	70.22
676.598	70.1
676.785	70.13
676.972	70.26
677.159	70.36
677.346	70.29
677.533	70.3
677.721	70.38
677.908	70.04
678.095	70.02
678.282	69.88
678.469	69.89
678.656	69.79
678.843	69.69
679.03	69.42
679.217	69.45
679.404	69.74
679.591	69.61
679.778	69.68
679.964	69.83
680.151	69.71
680.338	69.82
680.525	70.07
680.712	70.32
680.899	70.62
681.086	71.04
681.272	71.33
681.459	71.09
681.646	71.39
681.833	71.51
682.02	71.77
682.206	71.99
682.393	72.07
682.58	72.14
682.766	72.04
682.953	71.94
683.14	72.01
683.326	71.94
683.513	72.12
683.7	72.17
683.886	72.34
684.073	72.08
684.259	72
684.446	72.15
684.632	71.89
684.819	72.25
685.005	72.07
685.192	72.43
685.378	72.29
685.565	72.21
685.751	71.94
685.938	71.75
686.124	71.74
686.31	71.77
686.497	71.45
686.683	71.43
686.87	71.05
687.056	71.21
687.242	70.59
687.429	70.41
687.615	70.28
687.801	70.29
687.987	70.34
688.174	70.27
688.36	70.06
688.546	70.26
688.732	70.13
688.918	70.32
689.105	70.29
689.291	70.6
689.477	70.76
689.663	70.84
689.849	70.89
690.035	70.92
690.221	71.31
690.407	71.79
690.593	71.93
690.779	72.36
690.965	72.19
691.151	72.51
691.337	72.21
691.523	72.49
691.709	72.5
691.895	72.68
692.081	72.55
692.267	72.34
692.453	71.96
692.639	72
692.825	71.97
693.011	72.23
693.196	72.04
693.382	71.97
693.568	71.51
693.754	71.76
693.94	71.64
694.125	71.57
694.311	71.64
694.497	71.65
694.682	71.2
694.868	71.07
695.054	70.86
695.239	70.95
695.425	71.18
695.611	71.28
695.796	70.92
695.982	70.66
696.168	70.66
696.353	70.38
696.539	70.28
696.724	70.14
696.91	70.01
697.095	69.61
697.281	68.99
697.466	68.8
697.652	68.69
697.837	68.72
698.023	68.72
698.208	68.8
698.393	69.14
698.579	69.24
698.764	69.63
698.949	69.82
699.135	70.26
699.32	70.84
699.505	71.31
699.691	71.64
699.876	71.94
700.061	72.36
700.246	72.57
700.432	72.57
700.617	72.87
700.802	72.91
700.987	73.08
701.172	73.83
701.358	73.73
701.543	73.65
701.728	73.68
701.913	73.86
702.098	73.93
702.283	73.97
702.468	73.84
702.653	73.41
702.838	73.16
703.023	73.17
703.208	72.56
703.393	73.13
703.578	72.96
703.763	73.02
703.948	73.08
704.133	72.95
704.318	72.36
704.503	71.95
704.688	72.42
704.873	72.64
705.057	72.12
705.242	71.86
705.427	71.56
705.612	71.67
705.797	71.48
705.981	71.39
706.166	71.19
706.351	71.36
706.536	71.53
706.72	71.3
706.905	71.48
707.09	71.82
707.274	71.91
707.459	71.88
707.644	71.79
707.828	72.3
708.013	72.39
708.197	72.44
708.382	72.76
708.567	72.63
708.751	72.89
708.936	72.54
709.12	72.25
709.305	72.07
709.489	71.81
709.673	71.96
709.858	71.24
710.042	70.51
710.227	70.47
710.411	70.05
710.596	70.48
710.78	70.36
710.964	70.54
711.149	70.89
711.333	71.19
711.517	70.92
711.702	71.23
711.886	71.18
712.07	71.13
712.254	71.16
712.438	71.68
712.623	71.45
712.807	71.27
712.991	71.33
713.175	70.83
713.359	70.53
713.544	70.91
713.728	70.35
713.912	71.01
714.096	71.64
714.28	71.84
714.464	71.35
714.648	71.37
714.832	71.63
715.016	71.66
715.2	71.66
715.384	71.65
715.568	71.66
715.752	71.57
715.936	71.3
716.12	71.18
716.304	71.2
716.488	71.1
716.671	70.93
716.855	70.68
717.039	70.66
717.223	70.94
717.407	70.93
717.59	70.91
717.774	71.16
717.958	71
718.142	70.56
718.325	70.22
718.509	70.4
718.693	70.36
718.877	70.47
719.06	69.72
719.244	69.77
719.428	69.38
719.611	69.43
719.795	69.21
719.978	69.31
720.162	69.16
720.345	69.5
720.529	69.76
720.713	69.87
720.896	69.62
721.08	69.92
721.263	69.74
721.446	70.14
721.63	69.96
721.813	69.58
721.997	69.51
722.18	69.71
722.364	69.55
722.547	68.78
722.73	68.76
722.914	68.7
723.097	68.91
723.28	69.24
723.464	68.97
723.647	69.17
723.83	69.59
724.013	69.1
724.197	69.38
724.38	69.11
724.563	69.52
724.746	69.48
724.929	69.44
725.112	69.53
725.296	68.91
725.479	69.18
725.662	68.94
725.845	69.09
726.028	69.03
726.211	69.18
726.394	69.12
726.577	69.15
726.76	69.21
726.943	69.36
727.126	69.11
727.309	69.23
727.492	69.22
727.675	69.21
727.858	68.51
728.041	68.94
728.224	68.85
728.407	69.09
728.589	69.28
728.772	69.27
728.955	69.27
729.138	69.02
729.321	69.09
729.503	69.21
729.686	69.05
729.869	69.76
730.052	69.91
730.234	69.32
730.417	69.41
730.6	69.2
730.782	69.2
730.965	69.11
731.148	69.08
731.33	69.03
731.513	68.61
731.695	68.56
731.878	68.66
732.061	68.37
732.243	68.91
732.426	68.54
732.608	68.41
732.791	68.15
732.973	68.42
733.156	69.1
733.338	68.74
733.52	68.87
733.703	69.19
733.885	68.84
734.068	68.63
734.25	68.6
734.432	68.9
734.615	68.95
734.797	68.63
734.979	67.63
735.162	67.11
735.344	67.79
735.526	67.94
735.708	67.59
735.891	67.55
736.073	67.75
736.255	67.99
736.437	67.59
736.619	67
736.802	67.57
736.984	67.79
737.166	67.8
737.348	67
737.53	66.84
737.712	66.69
737.894	66.44
738.076	66.36
738.258	65.76
738.44	65.63
738.622	66.27
738.804	65.87
738.986	66.11
739.168	65.74
739.35	66.04
739.532	65.97
739.714	66.31
739.896	66.29
740.078	66.19
740.259	66.24
740.441	66.4
740.623	66.02
740.805	66.12
740.987	66.26
741.168	66.22
741.35	66.34
741.532	66.35
741.714	66.27
741.895	66.41
742.077	66.88
742.259	67.12
742.44	67.32
742.622	67.74
742.804	67.59
742.985	67.36
743.167	67.66
743.348	67.7
743.53	67.28
743.711	67.45
743.893	67.1
744.075	66.52
744.256	66.4
744.438	65.83
744.619	65.84
744.8	66.56
744.982	66.73
745.163	66.51
745.345	66.07
745.526	66.85
745.707	66.24
745.889	66.14
746.07	66.29
746.252	66.37
746.433	66.6
746.614	66.7
746.795	65.59
746.977	65.62
747.158	65.92
747.339	66.53
747.52	65.84
747.702	64.98
747.883	65.28
748.064	65.3
748.245	64.7
748.426	64.52
748.607	64.5
748.788	64.45
748.97	64.31
749.151	64.25
749.332	64.05
749.513	64.17
749.694	65.09
749.875	64.5
750.056	63.89
750.237	63.85
750.418	64.14
750.599	63.53
750.78	63.67
750.96	64.16
751.141	64.14
751.322	63.73
751.503	63.8
751.684	64.06
751.865	64.55
752.046	65.01
752.226	65.83
752.407	64.99
752.588	65.15
752.769	65.28
752.949	64.33
753.13	64.1
753.311	64.03
753.492	63.57
753.672	63.73
753.853	63.68
754.034	63.19
754.214	62.66
754.395	62.99
754.575	62.82
754.756	62.69
754.937	63.2
755.117	62.4
755.298	62.75
755.478	62.55
755.659	61.63
755.839	61.35
756.02	61.3
756.2	61.3
756.381	60.44
756.561	60.31
756.741	60.65
756.922	60.31
757.102	60.86
757.283	60.54
757.463	60.41
757.643	61.04
757.823	61.28
758.004	61
758.184	60.17
758.364	61.32
758.545	61.62
758.725	61.57
758.905	61.7
759.085	62.12
759.265	61.81
759.446	61.67
759.626	61.56
759.806	61.59
759.986	62.35
760.166	62.74
760.346	62.38
760.526	62.59
760.706	62.55
760.886	62.38
761.066	62.14
761.246	62.32
761.426	63.44
761.606	62.86
761.786	62.56
761.966	62.33
762.146	62.68
762.326	62.93
762.506	62.35
762.686	61.71
762.866	61.9
763.046	61.85
763.225	61.89
763.405	61.21
763.585	60.95
763.765	60.88
763.945	60.94
764.124	60.41
764.304	59.84
764.484	59.83
764.664	60.14
764.843	59.74
765.023	59.4
765.203	59.66
765.382	59.92
765.562	60.41
765.741	60.7
765.921	60.45
766.101	60.45
766.28	61.07
766.46	61.31
766.639	61.32
766.819	61.57
766.998	61.71
767.178	60.91
767.357	60.71
767.537	60.15
767.716	59.93
767.896	59.79
768.075	60.19
768.254	60.06
768.434	59.85
768.613	60.71
768.792	60.73
768.972	60.24
769.151	60.25
769.33	60.44
769.51	61.37
769.689	62.2
769.868	62.63
770.047	62.99
770.226	62.84
770.406	63.11
770.585	62.48
770.764	62.01
770.943	62.75
771.122	63.22
771.301	63.39
771.48	63.55
771.66	62.74
771.839	62.88
772.018	62.48
772.197	62.73
772.376	62.63
772.555	62.87
772.734	63.24
772.913	62.77
773.092	63.22
773.271	62.89
773.449	62.8
773.628	62.98
773.807	62.7
773.986	62.91
774.165	62.02
774.344	62.01
774.523	61.82
774.701	61.6
774.88	61.99
775.059	61.29
775.238	61.78
775.417	61.72
775.595	61.57
775.774	61.4
775.953	61.06
776.131	61.68
776.31	61.55
776.489	62.09
776.667	62.28
776.846	61.78
777.025	61.57
777.203	60.72
777.382	60.51
777.56	60.62
777.739	60.22
777.917	60.1
778.096	60.71
778.274	60.52
778.453	59.43
778.631	59.93
778.81	60.27
778.988	60.76
779.166	60.99
779.345	60.94
779.523	60.58
779.702	61.05
779.88	60.89
780.058	60.37
780.237	61
780.415	60.98
780.593	59.93
780.771	60.72
780.95	61.12
781.128	61.5
781.306	61.71
781.484	61.61
781.662	60.59
781.841	61
782.019	61.13
782.197	60.92
782.375	61.13
782.553	61.65
782.731	61.41
782.909	61.09
783.087	60.84
783.265	60.46
783.443	60.12
783.621	61.44
783.799	61.14
783.977	60.88
784.155	61.81
784.333	62.09
784.511	61.83
784.689	61.68
784.867	61.93
785.045	61.96
785.223	61.28
785.4	61.61
785.578	61.18
785.756	61.34
785.934	61.69
786.112	60.42
786.289	60.13
786.467	60.24
786.645	60.55
786.823	59.69
787	59.42
787.178	60.08
787.356	59.91
787.533	60.27
787.711	59.89
787.889	59.16
788.066	59.47
788.244	58.7
788.421	58.47
788.599	57.35
788.776	57.69
788.954	57.49
789.131	57.84
789.309	58.17
789.486	58.31
789.664	58.58
789.841	59.15
790.019	58.25
790.196	58.95
790.373	59.21
790.551	60.54
790.728	60.48
790.906	61.56
791.083	59.8
791.26	59.19
791.437	58.35
791.615	58.55
791.792	58.66
791.969	59.42
792.146	60.05
792.324	60.31
792.501	59.97
792.678	60.04
792.855	58.99
793.032	59.96
793.209	60.09
793.387	59.92
793.564	60.04
793.741	59.42
793.918	59.38
794.095	59.14
794.272	59.71
794.449	58.92
794.626	60.23
794.803	60.68
794.98	61.29
795.157	62.12
795.334	62.62
795.511	62.12
795.688	63.17
795.864	62.81
796.041	62.52
796.218	61.88
796.395	61.63
796.572	60.15
796.749	59.81
796.925	59.37
797.102	59.14
797.279	58.24
797.456	57.41
797.632	56.53
797.809	56.69
797.986	56.89
798.162	57.13
798.339	56.62
798.516	56.89
798.692	57.36
798.869	56.78
799.046	55.83
799.222	56.72
799.399	56.97
799.575	57.05
799.752	56.72
799.928	57.09
800.105	56.42
800.281	56.67
800.458	57.13
800.634	56.08
800.811	56.89
800.987	57.44
801.163	56.88
801.34	58.27
801.516	57.99
801.692	59.16
801.869	58.16
802.045	56.86
802.221	58.06
802.398	57.34
802.574	57.37
802.75	58.05
802.926	57.92
803.103	58.12
803.279	57.41
803.455	57.05
803.631	56.32
803.807	56.43
803.983	57.38
804.16	56.51
804.336	55.4
804.512	56.03
804.688	54.01
804.864	54.33
805.04	52.57
805.216	52.29
805.392	52.38
805.568	52.59
805.744	53.05
805.92	53.26
806.096	53.49
806.272	54.74
806.448	55.27
806.623	56.61
806.799	56.37
806.975	58.72
807.151	58.94
807.327	58.64
807.503	58.54
807.678	59.13
807.854	59.73
808.03	59.45
808.206	59.15
808.381	58.36
808.557	58.7
808.733	59.07
808.908	58.57
809.084	58.61
809.26	59.66
809.435	59.25
809.611	58.27
809.787	57.77
809.962	57.83
810.138	58.67
810.313	59.08
810.489	58.19
810.664	57.93
810.84	58.12
811.015	59.92
811.191	59.92
811.366	60.9
811.542	61.55
811.717	61.69
811.892	62.1
812.068	61.48
812.243	61.1
812.419	61.4
812.594	62.38
812.769	62.25
812.944	60.43
813.12	60.15
813.295	59.82
813.47	59.55
813.645	59.57
813.821	59.43
813.996	59.87
814.171	58.98
814.346	58.87
814.521	58.26
814.697	58.4
814.872	58.44
815.047	58.16
815.222	57.47
815.397	56.02
815.572	55.95
815.747	55.53
815.922	54.8
816.097	56.48
816.272	57.05
816.447	56.73
816.622	56.52
816.797	57.48
816.972	57.92
817.147	57.52
817.322	58.77
817.496	58.28
817.671	59.08
817.846	59.14
818.021	58.87
818.196	59.39
818.371	59.86
818.545	60.01
818.72	60.24
818.895	60.77
819.069	61.55
819.244	62.18
819.419	62.81
819.594	62.6
819.768	62.48
819.943	62.42
820.117	62.48
820.292	62.19
820.467	62.57
820.641	62
820.816	61.21
820.99	60.68
821.165	59.75
821.339	59.04
821.514	58.71
821.688	57.98
821.863	57.08
822.037	56.18
822.212	55.54
822.386	54.37
822.56	53.47
822.735	52.72
822.909	51.95
823.084	51.42
823.258	50.57
823.432	49.63
823.606	49.09
823.781	48.5
823.955	47.97
824.129	47.31
824.303	47.26
824.478	47.15
824.652	47.14
824.826	47.02
825	47.07
825.174	47.97
825.348	48.33
825.523	48.84
825.697	49.93
825.871	50.6
826.045	51.27
826.219	51.32
826.393	51.34
826.567	51.52
826.741	51.93
826.915	51.48
827.089	51.14
827.263	50.96
827.437	50.66
827.611	49.87
827.784	49.25
827.958	48.53
828.132	48.46
828.306	47.78
828.48	47.33
828.654	46.86
828.827	47
829.001	45.95
829.175	45.67
829.349	45.65
829.522	46.29
829.696	46.54
829.87	47.29
830.044	47.87
830.217	48.66
830.391	49.82
830.565	50.28
830.738	51.38
830.912	53.37
831.085	53.81
831.259	55.02
831.432	55.25
831.606	55.69
831.779	54.78
831.953	54.07
832.126	55.15
832.3	54.8
832.473	55.09
832.647	54.9
832.82	54.22
832.994	53.94
833.167	53.15
833.34	52.56
833.514	52.38
833.687	52.54
833.86	52.73
834.034	51.91
834.207	51.31
834.38	50.44
834.553	50.46
834.727	50.16
834.9	48.78
835.073	48.24
835.246	48.25
835.419	47.84
835.593	46.86
835.766	46.32
835.939	46.8
836.112	46.32
836.285	47.54
836.458	46.39
836.631	46.06
836.804	48.3
836.977	48.67
837.15	48.62
837.323	49.17
837.496	50.31
837.669	50.22
837.842	51.01
838.015	52.32
838.188	49.9
838.361	50.77
838.533	51.19
838.706	51.71
838.879	51.79
839.052	51.71
839.225	51.28
839.398	51.75
839.57	52.67
839.743	51.64
839.916	50.54
840.088	52.53
840.261	52.64
840.434	53.09
840.607	52.04
840.779	53.18
840.952	52.64
841.124	52.3
841.297	54.31
841.47	54.13
841.642	53.47
841.815	54.08
841.987	53.51
842.16	53.44
842.332	54.03
842.505	55.63
842.677	53.98
842.85	54.9
843.022	55.29
843.194	52.87
843.367	52.35
843.539	54.13
843.712	54.72
843.884	53.86
844.056	55.25
844.229	54.38
844.401	54.3
844.573	56.67
844.745	57.12
844.918	57.99
845.09	58.17
845.262	58.96
845.434	57.52
845.606	56.55
845.779	59.46
845.951	57.99
846.123	58.18
846.295	56.86
846.467	55.24
846.639	56.43
846.811	57.39
846.983	55.3
847.155	54.29
847.327	54.54
847.499	57.59
847.671	57.05
847.843	57.92
848.015	58.34
848.187	59.36
848.359	61.54
848.531	59.9
848.703	58.1
848.875	59.67
849.047	59.65
849.218	60.77
849.39	57.44
849.562	53.14
849.734	52.49
849.905	52.94
850.077	49.9
850.249	45.86
850.421	45.63
850.592	45.66
850.764	44.8
850.936	45.2
851.107	43.61
851.279	44.18
851.451	47.31
851.622	50.75
851.794	49.1
851.965	51.21
852.137	55.29
852.308	55.79
852.48	58.73
852.651	61.13
852.823	62.35
852.994	62.51
853.166	63.81
853.337	63.68
853.509	59.07
853.68	60.14
853.851	60.75
854.023	61.68
854.194	63.05
854.365	60.4
854.537	58.8
854.708	58.9
854.879	63.06
855.05	64.75
855.222	61.5
855.393	61.47
855.564	62.75
855.735	62.81
855.906	60.1
856.078	58.57
856.249	57.69
856.42	57.32
856.591	58.55
856.762	55.61
856.933	53.8
857.104	55.81
857.275	57.74
857.446	57.13
857.617	58.47
857.788	60.82
857.959	61.36
858.13	60.75
858.301	63.42
858.472	59.37
858.643	60.87
858.814	64.42
858.985	63.99
859.155	63.95
859.326	62.87
859.497	64.62
859.668	63.05
859.839	62.68
860.009	65.86
860.18	64.28
860.351	68.48
860.522	67.66
860.692	60.82
860.863	61.23
861.034	62.1
861.204	62.58
861.375	57.44
861.546	57.83
861.716	55.53
861.887	55.82
862.057	59.51
862.228	57.61
862.398	55.03
862.569	56.94
862.739	59.61
862.91	60
863.08	61.27
863.251	65.31
863.421	62.73
863.592	66.14
863.762	66.12
863.932	64.46
864.103	66.86
864.273	66.84
864.443	67.41
864.614	65.82
864.784	63.09
864.954	61.31
865.125	60.56
865.295	66.71
865.465	64.93
865.635	65.15
865.805	63.37
865.976	61.94
866.146	64.75
866.316	64.17
866.486	64.25
866.656	67.2
866.826	69
866.996	63.06
867.166	59.37
867.336	61.38
867.506	61.8
867.676	58.07
867.846	56.9
868.016	54.09
868.186	55.85
868.356	55.1
868.526	49.35
868.696	48.24
868.866	53.35
869.036	52.64
869.206	51.65
869.376	50.72
869.545	53.6
869.715	53.41
869.885	56.9
870.055	56.02
870.224	54.61
870.394	59.76
870.564	60.39
870.734	56.28
870.903	56.26
871.073	53.5
871.243	55.05
871.412	53.89
871.582	55.89
871.751	55.23
871.921	57.52
872.091	57.59
872.26	57.77
872.43	58.33
872.599	62.45
872.769	61.21
872.938	61.64
873.108	59.81
873.277	59.84
873.446	59.75
873.616	56.13
873.785	54.65
873.955	54.75
874.124	53.31
874.293	50.94
874.463	48.97
874.632	49.63
874.801	48.85
874.971	47.18
875.14	51.33
875.309	49.24
875.478	48.81
875.647	44.88
875.817	44.24
875.986	43.9
876.155	47.81
876.324	46.37
876.493	47.11
876.662	46.69
876.831	48.67
877	46.6
877.17	47.95
877.339	51.01
877.508	55.36
877.677	57.2
877.846	55.98
878.015	54
878.184	55.6
878.352	54.61
878.521	57.66
878.69	55.56
878.859	53.86
879.028	52.79
879.197	52
879.366	50.13
879.534	50.35
879.703	50
879.872	51.12
880.041	50.83
880.21	50.37
880.378	48.92
880.547	48.25
880.716	47.73
880.884	46.48
881.053	45.79
881.222	46.2
881.39	45.33
881.559	44.69
881.727	43.56
881.896	42.63
882.065	41.75
882.233	41.64
882.402	41.22
882.57	40.78
882.739	40.04
882.907	39.12
883.076	37.94
883.244	36.98
883.412	36.54
883.581	35.57
883.749	35.48
883.918	35.15
884.086	34.61
884.254	34.26
884.423	34.45
884.591	35.31
884.759	35.54
884.927	34.67
885.096	35.75
885.264	36.46
885.432	38.48
885.6	38.16
885.769	39.21
885.937	39.43
886.105	40.56
886.273	41.4
886.441	40.31
886.609	42.06
886.777	44.17
886.945	45.24
887.113	45.17
887.281	43.79
887.449	45.04
887.617	47.28
887.785	47.75
887.953	47.98
888.121	46.01
888.289	48.21
888.457	48.33
888.625	49.01
888.793	47.67
888.961	47.91
889.129	49.45
889.296	48.67
889.464	46.04
889.632	45.86
889.8	44.99
889.967	45.79
890.135	45.84
