Data from JASIL_2926_Reflection_2.txt Node
Date: Sat Nov 07 20:39:54 EST 2015
User: Geneva
Spectrometer: USB4E03002
Autoset integration time: false
Trigger mode: 4
Integration Time (sec): 1.000000E-1
Scans to average: 10
Electric dark correction enabled: true
Nonlinearity correction enabled: false
Boxcar width: 5
Stray light correction enabled: false
XAxis mode: Wavelengths
Stop averaging: false
Number of Pixels in Spectrum: 3648
>>>>>Begin Spectral Data<<<<<
177.575	-2552.4
177.794	-937.23
178.014	-787.73
178.233	-124.18
178.452	-147.57
178.672	-10.21
178.891	82.88
179.11	0
179.33	1529.85
179.549	-2256.41
179.768	921.95
179.987	-1245.73
180.207	-235.58
180.426	-18.91
180.645	10.49
180.864	17.02
181.084	26.95
181.303	18.09
181.522	17.41
181.741	24.51
181.96	11.36
182.179	17.06
182.398	10.65
182.618	7.2
182.837	-7.18
183.056	-29.06
183.275	-27.69
183.494	-35.71
183.713	-3.38
183.932	6.48
184.151	4.41
184.37	16.5
184.589	20.44
184.808	18.09
185.027	12.96
185.246	14.5
185.465	17.39
185.684	10.12
185.903	12.77
186.122	9.73
186.341	1.66
186.56	-6.37
186.779	-21.86
186.998	-34.84
187.216	-23.56
187.435	-40.64
187.654	-74.83
187.873	-80.45
188.092	-109.29
188.311	-82.24
188.53	-62.06
188.748	-49.1
188.967	-63.76
189.186	-37.03
189.405	-35.94
189.623	-66.79
189.842	-17.55
190.061	-21.71
190.28	-24.11
190.498	-23.83
190.717	-33.23
190.936	-39.72
191.154	-64.79
191.373	-66.37
191.592	-75.99
191.81	-102.66
192.029	-59
192.248	-57.83
192.466	-11.72
192.685	-6.26
192.904	5.67
193.122	16.73
193.341	13.13
193.559	25.34
193.778	23.55
193.996	27.59
194.215	32.52
194.433	21.89
194.652	9.69
194.87	-2.71
195.089	15.27
195.307	14.83
195.526	8.21
195.744	23.53
195.963	5.45
196.181	12.05
196.399	-10.35
196.618	-5.05
196.836	6.76
197.055	-1.72
197.273	-5.53
197.491	-13.17
197.71	-13.46
197.928	-44.03
198.146	-58.09
198.365	-44.73
198.583	-39.53
198.801	-14.62
199.019	-18.65
199.238	-13.05
199.456	-14.66
199.674	-16.5
199.892	-43
200.111	-58.05
200.329	-29.98
200.547	-29.21
200.765	-20.93
200.983	-43.67
201.202	-35.59
201.42	-9.72
201.638	-22.2
201.856	-16.13
202.074	15.72
202.292	26.64
202.51	22.17
202.728	21.68
202.946	12.2
203.165	1.07
203.383	7.82
203.601	4.1
203.819	1.37
204.037	17.5
204.255	28.73
204.473	13.08
204.691	7.28
204.909	14.11
205.127	23.4
205.345	29.85
205.562	32.83
205.78	27.69
205.998	22.87
206.216	25.68
206.434	17.44
206.652	9.37
206.87	22.54
207.088	26.38
207.306	27.62
207.523	20.45
207.741	14.59
207.959	15.77
208.177	15.25
208.395	11.55
208.612	-40.09
208.83	-31.09
209.048	-19.02
209.266	-73.21
209.483	-83.84
209.701	-91.47
209.919	-81.05
210.136	-80.33
210.354	-44.52
210.572	-24.3
210.79	-21.77
211.007	0.61
211.225	6.21
211.442	6.15
211.66	20.64
211.878	25.02
212.095	33.74
212.313	29.97
212.53	26.73
212.748	25.91
212.966	19.47
213.183	20.79
213.401	24.8
213.618	30.9
213.836	28.04
214.053	17.83
214.271	15
214.488	8.47
214.705	6.92
214.923	8.47
215.14	3.29
215.358	11.81
215.575	16.03
215.793	14.23
216.01	3.13
216.227	5.86
216.445	6.2
216.662	9.21
216.879	17.77
217.097	20.76
217.314	22.81
217.531	24.77
217.749	13.54
217.966	12.39
218.183	12.14
218.4	8.89
218.618	7.41
218.835	8.65
219.052	5.12
219.269	1.54
219.487	6.91
219.704	9.01
219.921	2.98
220.138	10.09
220.355	9.62
220.572	7.64
220.79	8.97
221.007	12.52
221.224	15.94
221.441	18.24
221.658	13.25
221.875	11.36
222.092	8.62
222.309	12.43
222.526	6.76
222.743	3.59
222.96	-0.2
223.177	0.9
223.394	-0.27
223.611	-1.02
223.828	-4.48
224.045	-1.15
224.262	-1.36
224.479	-3.46
224.696	-1.81
224.913	2.92
225.13	7.28
225.347	8.96
225.564	8.76
225.781	7.64
225.997	8.53
226.214	9.21
226.431	9.02
226.648	9.24
226.865	9.57
227.082	8.75
227.298	7.17
227.515	6.03
227.732	5.89
227.949	5.91
228.165	5.85
228.382	5.08
228.599	5.38
228.816	5.1
229.032	4.41
229.249	4.25
229.466	4.33
229.682	4.56
229.899	5.56
230.116	5.97
230.332	7.57
230.549	8.33
230.765	9.57
230.982	9.37
231.199	9.22
231.415	10.88
231.632	11.03
231.848	11.44
232.065	12.53
232.281	11.69
232.498	11.86
232.714	10.76
232.931	9.85
233.147	9.52
233.364	8.88
233.58	9.96
233.797	8.6
234.013	8.79
234.23	8.84
234.446	8.6
234.662	9.31
234.879	9.09
235.095	8.26
235.312	9.56
235.528	9.66
235.744	9.24
235.961	9.11
236.177	8.88
236.393	8.78
236.61	8.41
236.826	8.78
237.042	8.64
237.258	8.27
237.475	8.66
237.691	6.81
237.907	6.67
238.123	7.44
238.339	6.59
238.556	6.79
238.772	6.08
238.988	6.05
239.204	5.96
239.42	5.83
239.636	6.45
239.853	6.21
240.069	6.63
240.285	7.01
240.501	6.92
240.717	6.93
240.933	7.21
241.149	7.66
241.365	7.75
241.581	7.74
241.797	7.39
242.013	7.32
242.229	7.79
242.445	7.78
242.661	7.22
242.877	7.44
243.093	7.66
243.309	7.76
243.525	7.62
243.741	7.47
243.957	7.51
244.173	8.13
244.388	7.68
244.604	7.14
244.82	7.23
245.036	7.26
245.252	7.01
245.468	6.86
245.683	6.53
245.899	6.75
246.115	6.57
246.331	6.52
246.547	6.46
246.762	6.5
246.978	6.42
247.194	6.16
247.409	6.27
247.625	6.07
247.841	5.92
248.057	6.08
248.272	5.69
248.488	5.78
248.703	5.65
248.919	5.52
249.135	5.37
249.35	5.2
249.566	5.71
249.782	5.34
249.997	5.98
250.213	6.36
250.428	6.42
250.644	6.57
250.859	6.69
251.075	6.44
251.29	6.2
251.506	6.26
251.721	6.17
251.937	6.04
252.152	6.12
252.368	5.98
252.583	5.81
252.798	5.3
253.014	5.11
253.229	5.16
253.445	5.35
253.66	5
253.875	4.44
254.091	4.35
254.306	4.23
254.521	4.58
254.737	4.52
254.952	4.61
255.167	4.97
255.383	5.24
255.598	5.33
255.813	5.29
256.028	5.22
256.244	5.58
256.459	5.69
256.674	5.66
256.889	5.23
257.104	5.04
257.32	4.8
257.535	4.67
257.75	4.53
257.965	4.38
258.18	4.34
258.395	4.56
258.61	4.39
258.826	4.49
259.041	4.42
259.256	4.47
259.471	4.5
259.686	4.55
259.901	4.63
260.116	4.65
260.331	4.61
260.546	4.56
260.761	4.52
260.976	4.79
261.191	4.53
261.406	4.25
261.621	4.17
261.836	3.88
262.05	3.7
262.265	3.24
262.48	2.95
262.695	2.95
262.91	3.11
263.125	2.92
263.34	2.88
263.555	3.24
263.769	3.29
263.984	3.43
264.199	3.77
264.414	3.91
264.629	4.05
264.843	4.08
265.058	4.31
265.273	4.49
265.488	4.52
265.702	4.47
265.917	4.89
266.132	5.04
266.346	4.91
266.561	4.76
266.776	4.81
266.99	5.03
267.205	4.9
267.42	4.59
267.634	4.25
267.849	4.42
268.063	4.13
268.278	3.77
268.492	3.93
268.707	3.99
268.922	4.19
269.136	4.07
269.351	4.08
269.565	4.43
269.78	4.66
269.994	4.64
270.209	4.47
270.423	4.99
270.637	4.89
270.852	4.97
271.066	4.91
271.281	4.73
271.495	4.88
271.709	4.93
271.924	4.86
272.138	4.54
272.353	4.68
272.567	4.69
272.781	4.43
272.996	4.3
273.21	4.09
273.424	4.19
273.638	4.16
273.853	3.99
274.067	3.64
274.281	3.78
274.495	4.08
274.71	3.92
274.924	3.94
275.138	4.03
275.352	4.17
275.566	4.27
275.781	4.24
275.995	4.4
276.209	4.66
276.423	4.65
276.637	4.31
276.851	4.28
277.065	4.25
277.279	4.22
277.493	3.91
277.707	3.68
277.921	3.99
278.135	3.99
278.349	3.91
278.563	3.59
278.777	3.44
278.991	3.76
279.205	3.95
279.419	3.99
279.633	4.05
279.847	4.02
280.061	4.18
280.275	3.92
280.489	3.87
280.703	3.79
280.917	3.68
281.131	4.04
281.344	3.83
281.558	3.5
281.772	3.58
281.986	3.58
282.2	3.75
282.414	3.75
282.627	3.82
282.841	3.84
283.055	3.98
283.269	4.07
283.482	3.83
283.696	3.97
283.91	4.26
284.123	4.16
284.337	4.04
284.551	4.13
284.764	4.01
284.978	4.15
285.192	4
285.405	3.96
285.619	4.04
285.833	3.99
286.046	3.97
286.26	3.87
286.473	3.7
286.687	3.72
286.9	3.6
287.114	3.62
287.327	3.59
287.541	3.79
287.754	3.59
287.968	3.4
288.181	3.51
288.395	3.42
288.608	3.39
288.822	3.57
289.035	3.57
289.248	3.43
289.462	3.75
289.675	3.64
289.889	3.59
290.102	3.76
290.315	3.94
290.529	4
290.742	3.94
290.955	4
291.169	4.03
291.382	3.94
291.595	3.93
291.808	3.57
292.022	3.56
292.235	3.57
292.448	3.7
292.661	3.84
292.875	4
293.088	3.92
293.301	3.91
293.514	3.86
293.727	3.88
293.94	4.04
294.153	4.11
294.367	3.97
294.58	3.85
294.793	3.7
295.006	3.53
295.219	3.48
295.432	3.71
295.645	3.81
295.858	3.78
296.071	3.9
296.284	3.86
296.497	3.85
296.71	3.91
296.923	3.96
297.136	4.04
297.349	4.13
297.562	3.93
297.775	3.91
297.988	3.84
298.201	3.93
298.414	3.87
298.626	3.81
298.839	3.91
299.052	4.01
299.265	3.81
299.478	3.8
299.691	3.47
299.903	3.63
300.116	3.57
300.329	3.46
300.542	3.56
300.755	3.49
300.967	3.55
301.18	3.44
301.393	3.23
301.605	3.39
301.818	3.21
302.031	3.48
302.243	3.43
302.456	3.66
302.669	3.63
302.881	3.66
303.094	3.69
303.307	3.88
303.519	4.03
303.732	4.06
303.944	4.06
304.157	4.01
304.37	4.18
304.582	4.36
304.795	4.24
305.007	4.3
305.22	4.37
305.432	4.41
305.645	4.3
305.857	4.34
306.069	4.51
306.282	4.46
306.494	4.68
306.707	4.46
306.919	4.33
307.132	4.16
307.344	4.13
307.556	4.08
307.769	4.12
307.981	4.16
308.193	4.1
308.406	3.93
308.618	4.04
308.83	3.9
309.043	3.99
309.255	4.1
309.467	4.21
309.679	4.26
309.892	4.19
310.104	4.13
310.316	4.02
310.528	3.95
310.74	4.14
310.953	4.2
311.165	4.3
311.377	4.16
311.589	4.1
311.801	4.14
312.013	4.23
312.225	4.31
312.437	4.53
312.649	4.49
312.862	4.5
313.074	4.36
313.286	4.32
313.498	4.24
313.71	4.63
313.922	4.61
314.134	4.72
314.346	4.61
314.558	4.6
314.77	4.35
314.982	4.34
315.193	4.44
315.405	4.45
315.617	4.23
315.829	4.28
316.041	4.05
316.253	3.96
316.465	3.79
316.677	3.83
316.888	3.92
317.1	3.94
317.312	4.42
317.524	4.45
317.736	4.55
317.947	4.85
318.159	4.92
318.371	5.04
318.583	5.28
318.794	5.39
319.006	5.5
319.218	5.27
319.43	5.21
319.641	4.93
319.853	4.94
320.064	4.99
320.276	5.13
320.488	5.34
320.699	5.29
320.911	5.41
321.123	5.49
321.334	5.53
321.546	5.88
321.757	6.02
321.969	5.97
322.18	6.04
322.392	5.94
322.603	5.85
322.815	5.58
323.026	5.76
323.238	5.71
323.449	5.56
323.661	5.51
323.872	5.44
324.083	5.45
324.295	5.52
324.506	5.36
324.718	5.48
324.929	5.57
325.14	5.83
325.352	5.83
325.563	5.98
325.774	6.25
325.986	6.29
326.197	6.28
326.408	6.36
326.62	6.49
326.831	6.7
327.042	6.85
327.253	7.05
327.464	7.03
327.676	7
327.887	7.01
328.098	6.76
328.309	6.87
328.52	6.97
328.732	7.57
328.943	7.72
329.154	8.03
329.365	7.97
329.576	8.04
329.787	8.04
329.998	8.24
330.209	8.43
330.42	8.67
330.631	8.73
330.842	8.99
331.053	8.81
331.264	8.83
331.475	8.66
331.686	8.83
331.897	8.8
332.108	8.91
332.319	8.68
332.53	8.81
332.741	8.78
332.952	8.88
333.163	9.03
333.374	9.01
333.585	9.22
333.795	9.26
334.006	9.48
334.217	9.46
334.428	9.65
334.639	9.83
334.849	9.73
335.06	9.94
335.271	9.86
335.482	9.75
335.692	9.7
335.903	9.59
336.114	9.63
336.325	9.53
336.535	9.65
336.746	9.41
336.957	9.59
337.167	9.52
337.378	9.45
337.589	9.57
337.799	9.58
338.01	9.76
338.22	9.94
338.431	9.89
338.642	9.87
338.852	9.69
339.063	9.76
339.273	9.64
339.484	9.71
339.694	9.66
339.905	9.71
340.115	9.54
340.326	9.32
340.536	9.31
340.746	9.35
340.957	9.33
341.167	9.55
341.378	9.58
341.588	9.68
341.799	9.71
342.009	9.73
342.219	9.71
342.43	9.88
342.64	9.98
342.85	9.83
343.061	9.87
343.271	9.98
343.481	9.93
343.691	9.97
343.902	9.81
344.112	9.64
344.322	9.76
344.532	9.79
344.743	9.75
344.953	9.56
345.163	9.63
345.373	9.61
345.583	9.45
345.793	9.33
346.004	9.35
346.214	9.56
346.424	9.76
346.634	9.67
346.844	9.69
347.054	9.87
347.264	10.16
347.474	10.16
347.684	10.07
347.894	10.16
348.104	10.21
348.314	10.12
348.524	10
348.734	9.97
348.944	9.99
349.154	9.94
349.364	9.77
349.574	9.53
349.784	9.42
349.994	9.56
350.204	9.46
350.413	9.53
350.623	9.65
350.833	9.58
351.043	9.51
351.253	9.58
351.463	9.54
351.672	9.43
351.882	9.63
352.092	9.62
352.302	9.59
352.511	9.63
352.721	9.64
352.931	9.65
353.141	9.61
353.35	9.43
353.56	9.34
353.77	9.21
353.979	9.49
354.189	9.36
354.399	9.46
354.608	9.44
354.818	9.41
355.027	9.39
355.237	9.28
355.447	9.37
355.656	9.55
355.866	9.59
356.075	9.64
356.285	9.46
356.494	9.43
356.704	9.3
356.913	9.23
357.123	9.21
357.332	9.2
357.542	9.29
357.751	9.26
357.96	9.22
358.17	9.2
358.379	9.22
358.589	9.18
358.798	9.22
359.007	9.13
359.217	9.16
359.426	9.23
359.635	9.2
359.845	9.07
360.054	8.92
360.263	8.83
360.472	8.8
360.682	8.83
360.891	8.94
361.1	8.92
361.309	8.95
361.519	8.94
361.728	8.93
361.937	8.94
362.146	8.97
362.355	9.09
362.564	9.13
362.774	9.11
362.983	9.01
363.192	8.98
363.401	9
363.61	9.07
363.819	9.12
364.028	9.13
364.237	9.03
364.446	9.06
364.655	9.06
364.864	9.02
365.073	9.06
365.282	9.15
365.491	9.02
365.7	9.02
365.909	8.97
366.118	8.97
366.327	8.88
366.536	8.86
366.745	8.79
366.954	8.66
367.162	8.61
367.371	8.53
367.58	8.53
367.789	8.47
367.998	8.33
368.207	8.49
368.415	8.46
368.624	8.41
368.833	8.54
369.042	8.62
369.25	8.85
369.459	8.83
369.668	8.88
369.877	8.74
370.085	8.86
370.294	8.85
370.503	8.7
370.711	8.64
370.92	8.56
371.129	8.42
371.337	8.39
371.546	8.23
371.754	8.31
371.963	8.25
372.171	8.3
372.38	8.19
372.589	8.25
372.797	8.21
373.006	8.17
373.214	8.24
373.423	8.3
373.631	8.35
373.84	8.39
374.048	8.39
374.256	8.35
374.465	8.24
374.673	8.24
374.882	8.13
375.09	8.13
375.298	8.1
375.507	8.11
375.715	8.03
375.923	7.89
376.132	7.87
376.34	7.79
376.548	7.81
376.757	7.94
376.965	8.01
377.173	8.16
377.381	8.17
377.59	8.2
377.798	8.22
378.006	8.19
378.214	8.23
378.423	8.19
378.631	8.21
378.839	8.16
379.047	8.12
379.255	8.06
379.463	7.93
379.671	7.93
379.879	7.91
380.088	7.85
380.296	7.96
380.504	7.97
380.712	8.04
380.92	8.03
381.128	7.97
381.336	7.93
381.544	7.87
381.752	7.84
381.96	7.76
382.168	7.76
382.376	7.73
382.584	7.6
382.791	7.48
382.999	7.42
383.207	7.43
383.415	7.53
383.623	7.58
383.831	7.53
384.039	7.61
384.247	7.63
384.454	7.72
384.662	7.85
384.87	7.92
385.078	7.91
385.285	8.01
385.493	7.96
385.701	7.82
385.909	7.82
386.116	7.89
386.324	7.91
386.532	7.91
386.739	7.83
386.947	7.71
387.155	7.63
387.362	7.63
387.57	7.55
387.778	7.64
387.985	7.85
388.193	7.84
388.4	7.86
388.608	7.71
388.816	7.7
389.023	7.66
389.231	7.65
389.438	7.78
389.646	7.78
389.853	7.67
390.061	7.6
390.268	7.54
390.475	7.52
390.683	7.43
390.89	7.41
391.098	7.43
391.305	7.49
391.512	7.39
391.72	7.28
391.927	7.26
392.135	7.43
392.342	7.47
392.549	7.36
392.756	7.28
392.964	7.34
393.171	7.45
393.378	7.41
393.586	7.36
393.793	7.47
394	7.42
394.207	7.49
394.414	7.42
394.622	7.44
394.829	7.46
395.036	7.51
395.243	7.47
395.45	7.46
395.657	7.47
395.864	7.44
396.072	7.42
396.279	7.52
396.486	7.36
396.693	7.33
396.9	7.37
397.107	7.26
397.314	7.25
397.521	7.21
397.728	7.15
397.935	7.15
398.142	7.18
398.349	7.14
398.556	7.17
398.763	7.22
398.97	7.2
399.177	7.15
399.383	7.32
399.59	7.34
399.797	7.37
400.004	7.45
400.211	7.41
400.418	7.28
400.625	7.34
400.831	7.24
401.038	7.28
401.245	7.19
401.452	7.05
401.658	6.97
401.865	7.06
402.072	7.06
402.279	6.96
402.485	6.95
402.692	7
402.899	6.98
403.105	7.07
403.312	7.03
403.519	7.11
403.725	7.2
403.932	7.28
404.138	7.18
404.345	7.16
404.552	7.19
404.758	7.15
404.965	7.14
405.171	7.1
405.378	6.97
405.584	7.02
405.791	7.01
405.997	6.95
406.204	6.94
406.41	6.92
406.617	6.94
406.823	6.93
407.029	7.03
407.236	7.13
407.442	7.16
407.649	7.33
407.855	7.34
408.061	7.28
408.268	7.28
408.474	7.14
408.68	7.16
408.887	7.06
409.093	7.01
409.299	7.01
409.505	7
409.712	6.99
409.918	6.88
410.124	6.84
410.33	6.8
410.537	6.84
410.743	6.9
410.949	6.88
411.155	7
411.361	7.05
411.567	6.97
411.773	6.81
411.98	6.82
412.186	6.81
412.392	6.81
412.598	6.88
412.804	6.89
413.01	6.83
413.216	6.78
413.422	6.84
413.628	6.86
413.834	6.88
414.04	6.92
414.246	6.93
414.452	6.85
414.658	6.8
414.864	6.86
415.07	6.85
415.275	6.84
415.481	6.87
415.687	6.69
415.893	6.62
416.099	6.65
416.305	6.66
416.511	6.65
416.716	6.63
416.922	6.65
417.128	6.6
417.334	6.58
417.539	6.56
417.745	6.52
417.951	6.61
418.157	6.63
418.362	6.64
418.568	6.64
418.774	6.58
418.979	6.63
419.185	6.58
419.391	6.59
419.596	6.6
419.802	6.57
420.008	6.58
420.213	6.92
420.419	6.9
420.624	6.85
420.83	6.83
421.035	6.9
421.241	6.87
421.446	6.93
421.652	6.91
421.857	6.88
422.063	6.88
422.268	6.86
422.474	6.5
422.679	6.51
422.885	6.45
423.09	6.45
423.295	6.4
423.501	6.4
423.706	6.34
423.911	6.32
424.117	6.32
424.322	6.34
424.527	6.38
424.733	6.35
424.938	6.35
425.143	6.42
425.349	6.39
425.554	6.4
425.759	6.41
425.964	6.44
426.169	6.43
426.375	6.45
426.58	6.41
426.785	6.41
426.99	6.41
427.195	6.38
427.4	6.4
427.605	6.42
427.811	6.41
428.016	6.4
428.221	6.46
428.426	6.47
428.631	6.44
428.836	6.5
429.041	6.49
429.246	6.48
429.451	6.53
429.656	6.49
429.861	6.47
430.066	6.47
430.271	6.47
430.476	6.37
430.681	6.35
430.886	6.38
431.09	6.38
431.295	6.38
431.5	6.37
431.705	6.33
431.91	6.31
432.115	6.36
432.32	6.42
432.524	6.4
432.729	6.39
432.934	6.44
433.139	6.42
433.343	6.47
433.548	6.45
433.753	6.49
433.958	6.49
434.162	6.5
434.367	6.47
434.572	6.4
434.776	6.44
434.981	6.47
435.186	6.38
435.39	6.39
435.595	6.37
435.799	6.36
436.004	6.32
436.209	6.34
436.413	6.35
436.618	6.36
436.822	6.35
437.027	6.27
437.231	6.27
437.436	6.3
437.64	6.33
437.845	6.25
438.049	6.25
438.253	6.23
438.458	6.21
438.662	6.19
438.867	6.19
439.071	6.23
439.275	6.23
439.48	6.23
439.684	6.22
439.888	6.15
440.093	6.17
440.297	6.18
440.501	6.2
440.706	6.18
440.91	6.24
441.114	6.2
441.318	6.21
441.523	6.23
441.727	6.25
441.931	6.3
442.135	6.33
442.339	6.31
442.543	6.31
442.748	6.28
442.952	6.28
443.156	6.2
443.36	6.26
443.564	6.23
443.768	6.23
443.972	6.23
444.176	6.18
444.38	6.17
444.584	6.17
444.788	6.12
444.992	6.14
445.196	6.08
445.4	6.13
445.604	6.11
445.808	6.12
446.012	6.14
446.216	6.11
446.42	6.09
446.624	6.11
446.828	6.12
447.032	6.18
447.235	6.18
447.439	6.25
447.643	6.26
447.847	6.26
448.051	6.24
448.254	6.23
448.458	6.25
448.662	6.35
448.866	6.35
449.069	6.36
449.273	6.37
449.477	6.38
449.681	6.4
449.884	6.39
450.088	6.37
450.292	6.43
450.495	6.47
450.699	6.48
450.902	6.39
451.106	6.38
451.31	6.34
451.513	6.3
451.717	6.23
451.92	6.21
452.124	6.12
452.327	6.15
452.531	6.1
452.734	6.08
452.938	6.02
453.141	6.02
453.345	6.04
453.548	6.06
453.752	6.06
453.955	6.1
454.158	6.09
454.362	6.11
454.565	6.07
454.769	6.06
454.972	6.05
455.175	6.05
455.379	6.07
455.582	6
455.785	6.01
455.988	5.98
456.192	5.91
456.395	5.82
456.598	5.86
456.801	5.89
457.005	5.92
457.208	5.92
457.411	5.88
457.614	5.9
457.817	5.93
458.021	5.88
458.224	5.9
458.427	5.95
458.63	6.01
458.833	5.99
459.036	6.01
459.239	5.98
459.442	5.97
459.645	6.03
459.848	6.02
460.051	6.04
460.254	6.06
460.457	6.11
460.66	6.13
460.863	6.12
461.066	6.15
461.269	6.18
461.472	6.22
461.675	6.25
461.878	6.26
462.081	6.26
462.284	6.27
462.486	6.31
462.689	6.26
462.892	6.27
463.095	6.3
463.298	6.29
463.5	6.26
463.703	6.25
463.906	6.23
464.109	6.22
464.311	6.27
464.514	6.27
464.717	6.23
464.92	6.24
465.122	6.24
465.325	6.25
465.528	6.23
465.73	6.22
465.933	6.21
466.135	6.25
466.338	6.24
466.541	6.21
466.743	6.18
466.946	6.22
467.148	6.25
467.351	6.24
467.553	6.25
467.756	6.31
467.958	6.32
468.161	6.34
468.363	6.28
468.566	6.27
468.768	6.26
468.971	6.28
469.173	6.24
469.375	6.18
469.578	6.24
469.78	6.16
469.983	6.15
470.185	6.14
470.387	6.17
470.59	6.16
470.792	6.13
470.994	6.16
471.196	6.15
471.399	6.16
471.601	6.21
471.803	6.12
472.005	6.18
472.208	6.17
472.41	6.16
472.612	6.12
472.814	6.18
473.016	6.23
473.218	6.28
473.421	6.25
473.623	6.26
473.825	6.27
474.027	6.32
474.229	6.31
474.431	6.31
474.633	6.31
474.835	6.32
475.037	6.29
475.239	6.29
475.441	6.25
475.643	6.23
475.845	6.25
476.047	6.25
476.249	6.21
476.451	6.23
476.653	6.27
476.855	6.25
477.057	6.25
477.258	6.26
477.46	6.26
477.662	6.26
477.864	6.3
478.066	6.29
478.268	6.3
478.469	6.3
478.671	6.3
478.873	6.23
479.075	6.26
479.276	6.23
479.478	6.21
479.68	6.19
479.882	6.18
480.083	6.17
480.285	6.16
480.487	6.14
480.688	6.12
480.89	6.13
481.091	6.13
481.293	6.11
481.495	6.09
481.696	6.08
481.898	6.09
482.099	6.07
482.301	6.03
482.502	6.02
482.704	6.01
482.905	6.03
483.107	6
483.308	6.01
483.51	6.02
483.711	6.03
483.913	6.03
484.114	6.03
484.315	6.04
484.517	6.07
484.718	6.08
484.92	6.07
485.121	6.05
485.322	6.07
485.524	6.06
485.725	6.07
485.926	6.07
486.127	6.07
486.329	6.06
486.53	6.06
486.731	6.06
486.932	6.05
487.134	6.05
487.335	6.07
487.536	6.07
487.737	6.09
487.938	6.08
488.139	6.07
488.341	6.08
488.542	6.09
488.743	6.08
488.944	6.09
489.145	6.12
489.346	6.13
489.547	6.13
489.748	6.13
489.949	6.12
490.15	6.12
490.351	6.14
490.552	6.13
490.753	6.12
490.954	6.13
491.155	6.11
491.356	6.09
491.557	6.09
491.758	6.11
491.959	6.13
492.159	6.11
492.36	6.14
492.561	6.11
492.762	6.15
492.963	6.18
493.164	6.19
493.364	6.2
493.565	6.26
493.766	6.28
493.967	6.28
494.167	6.27
494.368	6.31
494.569	6.31
494.769	6.33
494.97	6.28
495.171	6.29
495.371	6.27
495.572	6.31
495.773	6.33
495.973	6.3
496.174	6.3
496.375	6.31
496.575	6.3
496.776	6.31
496.976	6.36
497.177	6.39
497.377	6.4
497.578	6.46
497.778	6.41
497.979	6.39
498.179	6.43
498.38	6.44
498.58	6.43
498.78	6.47
498.981	6.5
499.181	6.49
499.382	6.49
499.582	6.51
499.782	6.49
499.983	6.55
500.183	6.57
500.383	6.58
500.584	6.58
500.784	6.59
500.984	6.56
501.184	6.56
501.385	6.56
501.585	6.58
501.785	6.59
501.985	6.59
502.185	6.58
502.386	6.59
502.586	6.61
502.786	6.67
502.986	6.67
503.186	6.71
503.386	6.72
503.586	6.71
503.786	6.71
503.987	6.74
504.187	6.76
504.387	6.8
504.587	6.85
504.787	6.84
504.987	6.83
505.187	6.85
505.387	6.85
505.587	6.89
505.786	6.97
505.986	6.96
506.186	6.91
506.386	6.93
506.586	6.94
506.786	6.95
506.986	6.97
507.186	6.94
507.386	6.98
507.585	7.01
507.785	7
507.985	7.03
508.185	7.08
508.384	7.1
508.584	7.13
508.784	7.14
508.984	7.14
509.183	7.15
509.383	7.23
509.583	7.22
509.782	7.25
509.982	7.26
510.182	7.25
510.381	7.27
510.581	7.31
510.781	7.29
510.98	7.32
511.18	7.31
511.379	7.32
511.579	7.33
511.778	7.36
511.978	7.37
512.177	7.35
512.377	7.37
512.576	7.37
512.776	7.41
512.975	7.4
513.175	7.42
513.374	7.47
513.573	7.5
513.773	7.52
513.972	7.54
514.172	7.58
514.371	7.67
514.57	7.65
514.77	7.7
514.969	7.71
515.168	7.74
515.367	7.8
515.567	7.82
515.766	7.82
515.965	7.82
516.164	7.84
516.364	7.82
516.563	7.83
516.762	7.85
516.961	7.85
517.16	7.85
517.359	7.89
517.559	7.87
517.758	7.87
517.957	7.9
518.156	7.93
518.355	7.94
518.554	7.97
518.753	7.98
518.952	8
519.151	8.04
519.35	8.1
519.549	8.11
519.748	8.15
519.947	8.2
520.146	8.23
520.345	8.22
520.544	8.27
520.743	8.31
520.942	8.31
521.141	8.37
521.339	8.36
521.538	8.37
521.737	8.38
521.936	8.38
522.135	8.4
522.333	8.42
522.532	8.46
522.731	8.43
522.93	8.44
523.129	8.45
523.327	8.41
523.526	8.41
523.725	8.45
523.923	8.48
524.122	8.48
524.321	8.51
524.519	8.5
524.718	8.49
524.917	8.52
525.115	8.52
525.314	8.54
525.512	8.59
525.711	8.65
525.909	8.64
526.108	8.63
526.306	8.64
526.505	8.63
526.703	8.62
526.902	8.63
527.1	8.62
527.299	8.63
527.497	8.66
527.696	8.67
527.894	8.67
528.092	8.68
528.291	8.69
528.489	8.73
528.688	8.74
528.886	8.78
529.084	8.82
529.283	8.85
529.481	8.87
529.679	8.88
529.877	8.9
530.076	8.92
530.274	8.97
530.472	9.01
530.67	9.02
530.869	9.05
531.067	9.07
531.265	9.09
531.463	9.13
531.661	9.12
531.859	9.16
532.057	9.16
532.255	9.17
532.454	9.14
532.652	9.16
532.85	9.18
533.048	9.21
533.246	9.22
533.444	9.23
533.642	9.24
533.84	9.26
534.038	9.28
534.236	9.33
534.434	9.34
534.632	9.37
534.83	9.37
535.027	9.39
535.225	9.41
535.423	9.43
535.621	9.43
535.819	9.46
536.017	9.49
536.215	9.51
536.412	9.51
536.61	9.52
536.808	9.53
537.006	9.53
537.203	9.56
537.401	9.57
537.599	9.58
537.797	9.6
537.994	9.58
538.192	9.62
538.39	9.65
538.587	9.64
538.785	9.68
538.983	9.72
539.18	9.75
539.378	9.72
539.575	9.73
539.773	9.74
539.97	9.71
540.168	9.73
540.366	9.74
540.563	9.73
540.761	9.75
540.958	9.79
541.155	9.81
541.353	9.84
541.55	9.89
541.748	9.9
541.945	9.92
542.143	9.96
542.34	10.02
542.537	10.04
542.735	10.09
542.932	10.11
543.129	10.11
543.327	10.17
543.524	10.19
543.721	10.21
543.919	10.27
544.116	10.31
544.313	10.38
544.51	10.39
544.708	10.43
544.905	10.41
545.102	10.39
545.299	10.39
545.496	10.36
545.693	10.37
545.891	10.38
546.088	10.4
546.285	10.42
546.482	10.4
546.679	10.4
546.876	10.42
547.073	10.44
547.27	10.56
547.467	10.61
547.664	10.62
547.861	10.68
548.058	10.67
548.255	10.67
548.452	10.7
548.649	10.71
548.846	10.74
549.043	10.74
549.24	10.83
549.437	10.76
549.633	10.76
549.83	10.76
550.027	10.74
550.224	10.84
550.421	10.91
550.618	10.89
550.814	10.96
551.011	10.98
551.208	11.06
551.405	11.04
551.601	11.08
551.798	11.13
551.995	11.19
552.191	11.27
552.388	11.2
552.585	11.22
552.781	11.28
552.978	11.31
553.175	11.32
553.371	11.27
553.568	11.29
553.764	11.3
553.961	11.33
554.157	11.35
554.354	11.29
554.55	11.43
554.747	11.4
554.943	11.44
555.14	11.41
555.336	11.44
555.533	11.5
555.729	11.6
555.926	11.7
556.122	11.65
556.318	11.68
556.515	11.73
556.711	11.67
556.907	11.72
557.104	11.77
557.3	11.82
557.496	11.84
557.693	11.89
557.889	11.88
558.085	11.88
558.281	11.98
558.478	11.96
558.674	12.02
558.87	12.07
559.066	12.05
559.262	12
559.459	12.05
559.655	12.09
559.851	12.05
560.047	12.05
560.243	12.06
560.439	12.06
560.635	12.08
560.831	12.05
561.027	12.1
561.223	12.13
561.419	12.2
561.615	12.2
561.811	12.21
562.007	12.26
562.203	12.28
562.399	12.32
562.595	12.33
562.791	12.32
562.987	12.35
563.183	12.36
563.379	12.39
563.575	12.38
563.771	12.43
563.966	12.47
564.162	12.54
564.358	12.59
564.554	12.58
564.75	12.64
564.945	12.74
565.141	12.77
565.337	12.78
565.533	12.76
565.728	12.8
565.924	12.8
566.12	12.84
566.315	12.84
566.511	12.79
566.707	12.84
566.902	12.81
567.098	12.84
567.293	12.85
567.489	12.9
567.684	12.96
567.88	12.95
568.076	13
568.271	12.97
568.467	13.01
568.662	13.06
568.858	13.07
569.053	13.14
569.248	13.15
569.444	13.22
569.639	13.24
569.835	13.33
570.03	13.39
570.225	13.36
570.421	13.43
570.616	13.42
570.812	13.44
571.007	13.45
571.202	13.42
571.397	13.4
571.593	13.39
571.788	13.42
571.983	13.43
572.178	13.48
572.374	13.53
572.569	13.57
572.764	13.56
572.959	13.55
573.154	13.54
573.35	13.63
573.545	13.67
573.74	13.69
573.935	13.7
574.13	13.68
574.325	13.67
574.52	13.67
574.715	13.66
574.91	13.7
575.105	13.75
575.3	13.81
575.495	13.81
575.69	13.85
575.885	13.89
576.08	13.91
576.275	13.92
576.47	13.9
576.665	13.93
576.86	13.99
577.055	14.09
577.25	14.12
577.444	14.16
577.639	14.16
577.834	14.14
578.029	14.18
578.224	14.17
578.418	14.22
578.613	14.26
578.808	14.31
579.003	14.32
579.197	14.28
579.392	14.3
579.587	14.3
579.781	14.3
579.976	14.35
580.171	14.34
580.365	14.44
580.56	14.47
580.755	14.51
580.949	14.55
581.144	14.55
581.338	14.55
581.533	14.53
581.727	14.56
581.922	14.58
582.116	14.63
582.311	14.64
582.505	14.6
582.7	14.62
582.894	14.63
583.089	14.65
583.283	14.64
583.478	14.66
583.672	14.69
583.866	14.69
584.061	14.71
584.255	14.68
584.449	14.69
584.644	14.74
584.838	14.72
585.032	14.8
585.226	14.77
585.421	14.79
585.615	14.85
585.809	14.88
586.003	14.89
586.198	14.93
586.392	14.95
586.586	14.98
586.78	15.03
586.974	15.05
587.168	15.06
587.363	15.07
587.557	15.08
587.751	15.1
587.945	15.13
588.139	15.13
588.333	15.16
588.527	15.18
588.721	15.23
588.915	15.18
589.109	15.12
589.303	15.06
589.497	15.09
589.691	15.15
589.885	15.17
590.079	15.19
590.273	15.22
590.466	15.23
590.66	15.18
590.854	15.14
591.048	15.17
591.242	15.24
591.436	15.27
591.629	15.22
591.823	15.19
592.017	15.16
592.211	15.16
592.404	15.19
592.598	15.15
592.792	15.24
592.986	15.22
593.179	15.23
593.373	15.22
593.567	15.2
593.76	15.29
593.954	15.23
594.147	15.24
594.341	15.25
594.535	15.26
594.728	15.28
594.922	15.24
595.115	15.23
595.309	15.26
595.502	15.29
595.696	15.28
595.889	15.24
596.083	15.26
596.276	15.21
596.47	15.17
596.663	15.17
596.856	15.16
597.05	15.21
597.243	15.22
597.437	15.24
597.63	15.23
597.823	15.26
598.017	15.29
598.21	15.28
598.403	15.35
598.596	15.46
598.79	15.5
598.983	15.52
599.176	15.53
599.369	15.59
599.563	15.53
599.756	15.61
599.949	15.6
600.142	15.56
600.335	15.65
600.528	15.61
600.722	15.61
600.915	15.62
601.108	15.68
601.301	15.65
601.494	15.61
601.687	15.58
601.88	15.55
602.073	15.57
602.266	15.59
602.459	15.56
602.652	15.62
602.845	15.63
603.038	15.65
603.231	15.6
603.424	15.61
603.617	15.6
603.809	15.61
604.002	15.64
604.195	15.69
604.388	15.69
604.581	15.68
604.774	15.72
604.966	15.75
605.159	15.72
605.352	15.8
605.545	15.84
605.737	15.88
605.93	15.91
606.123	15.85
606.316	15.89
606.508	15.86
606.701	15.96
606.894	15.95
607.086	15.92
607.279	15.89
607.471	15.85
607.664	15.85
607.857	15.88
608.049	15.94
608.242	15.99
608.434	15.93
608.627	16.04
608.819	15.98
609.012	15.97
609.204	15.92
609.397	15.97
609.589	15.99
609.782	15.97
609.974	16.04
610.166	16.08
610.359	16.06
610.551	16.12
610.743	16.08
610.936	16.11
611.128	16.17
611.32	16.23
611.513	16.24
611.705	16.23
611.897	16.26
612.09	16.14
612.282	16.1
612.474	16.09
612.666	16.15
612.858	16.07
613.051	16.12
613.243	16.03
613.435	16.03
613.627	15.99
613.819	16.02
614.011	16.04
614.203	16.04
614.395	16
614.588	16.05
614.78	15.94
614.972	15.96
615.164	15.89
615.356	15.9
615.548	15.92
615.74	16
615.932	15.91
616.124	15.9
616.315	15.94
616.507	15.92
616.699	15.99
616.891	16.08
617.083	16.26
617.275	16.38
617.467	16.33
617.659	16.24
617.85	16.23
618.042	16.35
618.234	16.35
618.426	16.35
618.618	16.46
618.809	16.41
619.001	16.38
619.193	16.32
619.384	16.24
619.576	16.35
619.768	16.43
619.959	16.38
620.151	16.39
620.343	16.45
620.534	16.5
620.726	16.44
620.917	16.44
621.109	16.35
621.301	16.26
621.492	16.23
621.684	16.17
621.875	16.15
622.067	16.17
622.258	16.11
622.45	16.08
622.641	16.19
622.832	16.19
623.024	16.23
623.215	16.35
623.407	16.39
623.598	16.47
623.789	16.48
623.981	16.47
624.172	16.51
624.363	16.45
624.555	16.44
624.746	16.34
624.937	16.41
625.129	16.31
625.32	16.25
625.511	16.25
625.702	16.22
625.893	16.26
626.085	16.3
626.276	16.27
626.467	16.29
626.658	16.31
626.849	16.27
627.04	16.19
627.231	16.25
627.422	16.31
627.614	16.34
627.805	16.44
627.996	16.44
628.187	16.45
628.378	16.4
628.569	16.42
628.76	16.45
628.951	16.5
629.142	16.58
629.332	16.67
629.523	16.71
629.714	16.7
629.905	16.61
630.096	16.59
630.287	16.64
630.478	16.76
630.669	16.85
630.859	16.8
631.05	16.75
631.241	16.82
631.432	16.78
631.623	16.79
631.813	16.74
632.004	16.74
632.195	16.83
632.385	16.75
632.576	16.76
632.767	16.69
632.957	16.76
633.148	16.83
633.339	16.77
633.529	16.78
633.72	16.74
633.91	16.67
634.101	16.73
634.292	16.65
634.482	16.64
634.673	16.6
634.863	16.62
635.054	16.6
635.244	16.56
635.435	16.52
635.625	16.49
635.815	16.51
636.006	16.57
636.196	16.54
636.387	16.55
636.577	16.54
636.767	16.53
636.958	16.52
637.148	16.48
637.338	16.44
637.529	16.51
637.719	16.52
637.909	16.6
638.099	16.65
638.29	16.62
638.48	16.76
638.67	16.83
638.86	16.91
639.05	16.93
639.241	17.03
639.431	17.11
639.621	17.09
639.811	17.13
640.001	16.96
640.191	17.01
640.381	16.98
640.571	16.85
640.761	16.82
640.951	16.77
641.141	16.74
641.331	16.66
641.521	16.59
641.711	16.6
641.901	16.52
642.091	16.69
642.281	16.69
642.471	16.7
642.661	16.72
642.851	16.75
643.041	16.77
643.231	16.78
643.42	16.8
643.61	16.76
643.8	16.78
643.99	16.89
644.18	16.86
644.369	16.83
644.559	16.95
644.749	16.98
644.939	16.89
645.128	16.78
645.318	16.83
645.508	16.92
645.697	17.07
645.887	17.11
646.076	17.11
646.266	17.12
646.456	17.19
646.645	17.13
646.835	17.09
647.024	17.15
647.214	17.29
647.403	17.21
647.593	17.22
647.782	17.17
647.972	17.08
648.161	16.97
648.351	16.95
648.54	16.88
648.73	16.83
648.919	16.94
649.108	16.97
649.298	16.91
649.487	17
649.677	16.94
649.866	16.91
650.055	16.97
650.244	17.03
650.434	17.01
650.623	17.04
650.812	17.09
651.002	16.96
651.191	16.95
651.38	16.93
651.569	16.95
651.758	16.92
651.947	16.88
652.137	16.8
652.326	16.77
652.515	16.72
652.704	16.79
652.893	16.85
653.082	16.96
653.271	16.91
653.46	16.98
653.649	16.93
653.838	16.96
654.027	17.12
654.216	17.08
654.405	17.12
654.594	17.19
654.783	17.1
654.972	17.12
655.161	17.11
655.35	17.19
655.539	17.05
655.728	17.12
655.916	17.05
656.105	17.02
656.294	17.15
656.483	17.12
656.672	17.12
656.86	17.09
657.049	17.05
657.238	17.05
657.427	17.04
657.615	17.17
657.804	17.11
657.993	17.16
658.181	17.1
658.37	17.05
658.559	17.04
658.747	17.06
658.936	17.07
659.125	16.94
659.313	16.93
659.502	16.88
659.69	16.81
659.879	16.79
660.067	16.88
660.256	16.88
660.444	16.93
660.633	16.97
660.821	16.83
661.01	16.88
661.198	17.05
661.387	17.07
661.575	17.18
661.763	17.28
661.952	17.28
662.14	17.22
662.328	17.23
662.517	17.26
662.705	17.29
662.893	17.47
663.082	17.56
663.27	17.49
663.458	17.46
663.646	17.47
663.834	17.44
664.023	17.51
664.211	17.6
664.399	17.58
664.587	17.6
664.775	17.46
664.963	17.4
665.152	17.29
665.34	17.33
665.528	17.32
665.716	17.29
665.904	17.26
666.092	17.25
666.28	17.31
666.468	17.35
666.656	17.36
666.844	17.45
667.032	17.44
667.22	17.6
667.408	17.57
667.596	17.58
667.784	17.53
667.971	17.6
668.159	17.59
668.347	17.49
668.535	17.43
668.723	17.35
668.911	17.4
669.098	17.44
669.286	17.25
669.474	17.33
669.662	17.3
669.849	17.43
670.037	17.29
670.225	17.24
670.413	17.26
670.6	17.4
670.788	17.52
670.976	17.54
671.163	17.55
671.351	17.62
671.538	17.65
671.726	17.78
671.913	17.73
672.101	17.78
672.289	17.88
672.476	17.96
672.664	18.01
672.851	17.91
673.039	17.85
673.226	17.83
673.413	17.79
673.601	17.79
673.788	17.69
673.976	17.69
674.163	17.72
674.35	17.65
674.538	17.57
674.725	17.42
674.912	17.51
675.1	17.62
675.287	17.6
675.474	17.65
675.662	17.67
675.849	17.76
676.036	17.84
676.223	17.93
676.411	17.88
676.598	17.86
676.785	17.93
676.972	17.87
677.159	17.82
677.346	17.89
677.533	17.89
677.721	17.85
677.908	17.77
678.095	17.66
678.282	17.65
678.469	17.7
678.656	17.71
678.843	17.75
679.03	17.69
679.217	17.63
679.404	17.65
679.591	17.62
679.778	17.6
679.964	17.57
680.151	17.7
680.338	17.68
680.525	17.79
680.712	17.79
680.899	17.72
681.086	17.86
681.272	17.85
681.459	17.84
681.646	17.96
681.833	18.06
682.02	18.12
682.206	18.02
682.393	18.01
682.58	17.87
682.766	17.97
682.953	17.88
683.14	17.92
683.326	18.05
683.513	18.08
683.7	17.97
683.886	17.92
684.073	17.87
684.259	17.94
684.446	18.03
684.632	18.01
684.819	17.91
685.005	18.03
685.192	17.89
685.378	17.84
685.565	17.76
685.751	17.78
685.938	17.67
686.124	17.56
686.31	17.54
686.497	17.48
686.683	17.69
686.87	17.71
687.056	17.68
687.242	17.7
687.429	17.69
687.615	17.69
687.801	17.72
687.987	17.68
688.174	17.75
688.36	17.75
688.546	17.72
688.732	17.55
688.918	17.65
689.105	17.75
689.291	17.74
689.477	17.82
689.663	17.86
689.849	17.82
690.035	18.07
690.221	18.09
690.407	18.04
690.593	18.02
690.779	18.2
690.965	18.18
691.151	18.09
691.337	18.09
691.523	18.03
691.709	18
691.895	18.05
692.081	17.92
692.267	18.11
692.453	18.07
692.639	18.07
692.825	17.9
693.011	17.78
693.196	17.78
693.382	17.9
693.568	17.93
693.754	17.93
693.94	17.82
694.125	17.73
694.311	17.64
694.497	17.77
694.682	17.79
694.868	17.99
695.054	18.01
695.239	18.03
695.425	18
695.611	17.97
695.796	18.08
695.982	18.22
696.168	18.31
696.353	18.36
696.539	18.26
696.724	18.25
696.91	18.2
697.095	18.14
697.281	18.2
697.466	18.16
697.652	18.12
697.837	18.04
698.023	18.02
698.208	18.05
698.393	18.03
698.579	18.02
698.764	18
698.949	17.98
699.135	18.02
699.32	18.03
699.505	18.04
699.691	18.13
699.876	18.23
700.061	18.2
700.246	18.12
700.432	18.02
700.617	18.15
700.802	18.25
700.987	18.25
701.172	18.41
701.358	18.27
701.543	18.32
701.728	18.33
701.913	18.22
702.098	18.35
702.283	18.3
702.468	18.35
702.653	18.26
702.838	18.19
703.023	18.12
703.208	18.06
703.393	18.13
703.578	18.07
703.763	17.91
703.948	17.82
704.133	17.74
704.318	17.71
704.503	17.94
704.688	18.07
704.873	18.16
705.057	18.3
705.242	18.19
705.427	18.17
705.612	18.2
705.797	18.32
705.981	18.36
706.166	18.45
706.351	18.47
706.536	18.36
706.72	18.15
706.905	18.1
707.09	18.03
707.274	18.07
707.459	18.06
707.644	18.11
707.828	18.14
708.013	18.36
708.197	18.25
708.382	18.24
708.567	18.19
708.751	18.33
708.936	18.44
709.12	18.51
709.305	18.62
709.489	18.67
709.673	18.6
709.858	18.49
710.042	18.43
710.227	18.4
710.411	18.53
710.596	18.64
710.78	18.52
710.964	18.41
711.149	18.36
711.333	18.37
711.517	18.42
711.702	18.53
711.886	18.57
712.07	18.59
712.254	18.67
712.438	18.76
712.623	18.67
712.807	18.85
712.991	18.88
713.175	18.89
713.359	18.84
713.544	18.84
713.728	18.82
713.912	18.75
714.096	18.73
714.28	18.66
714.464	18.6
714.648	18.7
714.832	18.6
715.016	18.49
715.2	18.4
715.384	18.36
715.568	18.4
715.752	18.35
715.936	18.45
716.12	18.51
716.304	18.49
716.488	18.43
716.671	18.29
716.855	18.25
717.039	18.48
717.223	18.69
717.407	18.69
717.59	18.59
717.774	18.55
717.958	18.47
718.142	18.33
718.325	18.34
718.509	18.19
718.693	18.28
718.877	18.22
719.06	18.22
719.244	17.96
719.428	17.95
719.611	18.08
719.795	18.14
719.978	18.15
720.162	18.11
720.345	18.04
720.529	18.16
720.713	18.12
720.896	18.27
721.08	18.2
721.263	18.21
721.446	18.03
721.63	17.78
721.813	17.87
721.997	17.95
722.18	18.17
722.364	18.52
722.547	18.62
722.73	18.64
722.914	18.42
723.097	18.26
723.28	18.64
723.464	18.99
723.647	19.21
723.83	19.2
724.013	19.04
724.197	19.02
724.38	18.89
724.563	18.87
724.746	18.96
724.929	19.2
725.112	19.25
725.296	19.03
725.479	18.77
725.662	18.66
725.845	18.57
726.028	18.54
726.211	18.55
726.394	18.43
726.577	18.43
726.76	18.36
726.943	18.25
727.126	18.34
727.309	18.23
727.492	18.32
727.675	18.26
727.858	18.14
728.041	18.33
728.224	18.19
728.407	18.28
728.589	18.22
728.772	18.28
728.955	18.39
729.138	18.29
729.321	18.43
729.503	18.59
729.686	18.81
729.869	18.94
730.052	19.13
730.234	19.28
730.417	19.17
730.6	19.37
730.782	19.2
730.965	19.26
731.148	19.25
731.33	19.24
731.513	19.18
731.695	19
731.878	19
732.061	18.71
732.243	18.56
732.426	18.65
732.608	18.64
732.791	18.8
732.973	18.65
733.156	18.88
733.338	18.84
733.52	18.51
733.703	18.39
733.885	18.4
734.068	18.28
734.25	18.35
734.432	18.39
734.615	18.46
734.797	18.25
734.979	18.11
735.162	17.98
735.344	17.92
735.526	18.13
735.708	18.26
735.891	18.43
736.073	18.83
736.255	18.8
736.437	18.79
736.619	18.54
736.802	18.65
736.984	18.81
737.166	18.9
737.348	18.96
737.53	18.93
737.712	18.94
737.894	18.81
738.076	18.52
738.258	18.51
738.44	18.34
738.622	18.42
738.804	18.38
738.986	18.42
739.168	18.28
739.35	18.29
739.532	18.45
739.714	18.07
739.896	18.03
740.078	18.19
740.259	18.28
740.441	18.3
740.623	18.37
740.805	18.35
740.987	18.43
741.168	18.46
741.35	18.47
741.532	18.39
741.714	18.81
741.895	18.99
742.077	18.93
742.259	18.85
742.44	18.93
742.622	18.69
742.804	18.84
742.985	18.81
743.167	18.67
743.348	18.66
743.53	18.87
743.711	18.66
743.893	18.35
744.075	18.63
744.256	18.61
744.438	18.42
744.619	18.59
744.8	18.47
744.982	18.59
745.163	18.81
745.345	18.87
745.526	18.83
745.707	19.07
745.889	18.89
746.07	18.77
746.252	18.93
746.433	19.2
746.614	19.28
746.795	19.64
746.977	19.66
747.158	19.48
747.339	19.23
747.52	19.14
747.702	19.19
747.883	19.38
748.064	19.24
748.245	19.16
748.426	18.94
748.607	18.73
748.788	18.34
748.97	18.07
749.151	18.34
749.332	18.49
749.513	18.65
749.694	18.65
749.875	18.44
750.056	18.66
750.237	18.66
750.418	18.88
750.599	18.99
750.78	19.11
750.96	19.24
751.141	19.47
751.322	19.75
751.503	19.57
751.684	19.72
751.865	20.13
752.046	19.92
752.226	20.11
752.407	20.18
752.588	20.03
752.769	20.36
752.949	20.6
753.13	20.29
753.311	20.07
753.492	20.07
753.672	19.83
753.853	19.67
754.034	19.78
754.214	19.83
754.395	19.51
754.575	19.44
754.756	19.2
754.937	18.86
755.117	19.1
755.298	19.23
755.478	19.38
755.659	19.83
755.839	19.78
756.02	19.68
756.2	19.35
756.381	19.39
756.561	19.35
756.741	19.53
756.922	19.73
757.102	19.49
757.283	19.43
757.463	19.37
757.643	19.44
757.823	19.68
758.004	19.77
758.184	19.82
758.364	20.24
758.545	20.4
758.725	19.94
758.905	20.01
759.085	20.07
759.265	20.05
759.446	19.79
759.626	19.56
759.806	19.62
759.986	19.51
760.166	19.52
760.346	19.09
760.526	19.15
760.706	19.37
760.886	19.28
761.066	19.21
761.246	19.16
761.426	19.38
761.606	19.17
761.786	19.05
761.966	19.21
762.146	19.25
762.326	19.35
762.506	19.53
762.686	19.71
762.866	19.49
763.046	19.52
763.225	19.6
763.405	19.46
763.585	19.66
763.765	19.78
763.945	19.78
764.124	19.73
764.304	19.9
764.484	19.78
764.664	19.51
764.843	19.78
765.023	19.86
765.203	19.95
765.382	20.25
765.562	19.99
765.741	20.12
765.921	20.05
766.101	20.27
766.28	19.92
766.46	19.92
766.639	20.09
766.819	19.89
766.998	19.75
767.178	19.8
767.357	19.67
767.537	19.54
767.716	19.47
767.896	19.43
768.075	19.26
768.254	19.66
768.434	19.72
768.613	19.48
768.792	19.6
768.972	19.75
769.151	19.64
769.33	19.8
769.51	20.21
769.689	20.12
769.868	20.18
770.047	20.41
770.226	20.64
770.406	20.74
770.585	20.92
770.764	21.08
770.943	20.96
771.122	20.85
771.301	20.55
771.48	20.94
771.66	20.84
771.839	20.82
772.018	20.95
772.197	20.93
772.376	21.05
772.555	21.15
772.734	21.1
772.913	21.34
773.092	21.53
773.271	21.95
773.449	21.66
773.628	21.62
773.807	21.69
773.986	21.13
774.165	20.93
774.344	20.67
774.523	20.75
774.701	20.75
774.88	20.31
775.059	20.31
775.238	20.15
775.417	19.95
775.595	20.19
775.774	20.41
775.953	20.88
776.131	20.47
776.31	20.46
776.489	20.18
776.667	19.96
776.846	20.18
777.025	20.04
777.203	19.87
777.382	19.66
777.56	19.5
777.739	19.15
777.917	18.65
778.096	18.58
778.274	18.93
778.453	19.36
778.631	19.35
778.81	19.22
778.988	19.16
779.166	19.28
779.345	19.51
779.523	19.69
779.702	20.12
779.88	20.41
780.058	20.93
780.237	20.49
780.415	20.54
780.593	20.69
780.771	20.93
780.95	20.92
781.128	21.01
781.306	20.97
781.484	21.01
781.662	20.54
781.841	20.4
782.019	20.48
782.197	21.17
782.375	21.01
782.553	21.03
782.731	21.62
782.909	21.8
783.087	21.97
783.265	22.22
783.443	22.07
783.621	22.03
783.799	22.24
783.977	22.08
784.155	21.69
784.333	21.16
784.511	21.3
784.689	20.73
784.867	20.8
785.045	20.06
785.223	19.93
785.4	19.4
785.578	20.01
785.756	20.27
785.934	20.25
786.112	19.85
786.289	20.23
786.467	19.79
786.645	19.96
786.823	19.7
787	19.78
787.178	19.86
787.356	20.18
787.533	20.03
787.711	19.68
787.889	19.89
788.066	20.18
788.244	20.38
788.421	20.52
788.599	20.49
788.776	20.32
788.954	20.66
789.131	20.58
789.309	20.54
789.486	20.51
789.664	21.2
789.841	21.1
790.019	21.14
790.196	20.94
790.373	21.08
790.551	20.52
790.728	20.93
790.906	21.22
791.083	20.36
791.26	19.92
791.437	19.44
791.615	18.57
791.792	18.51
791.969	18.11
792.146	18.22
792.324	18.38
792.501	18.84
792.678	18.63
792.855	18.06
793.032	19.06
793.209	19.62
793.387	20.08
793.564	20.27
793.741	20.24
793.918	20.47
794.095	21.1
794.272	21.45
794.449	21.39
794.626	21.64
794.803	21.38
794.98	20.94
795.157	21.22
795.334	21.14
795.511	20.57
795.688	20.23
795.864	20.57
796.041	20.42
796.218	19.74
796.395	20.05
796.572	19.85
796.749	19.98
796.925	20.56
797.102	20.65
797.279	20.79
797.456	21.57
797.632	21.69
797.809	21.71
797.986	21.45
798.162	21.7
798.339	21.34
798.516	21.37
798.692	21.72
798.869	21.87
799.046	21.25
799.222	20.99
799.399	21.05
799.575	21.56
799.752	20.9
799.928	21.03
800.105	21.03
800.281	21.06
800.458	22.02
800.634	22.49
800.811	21.93
800.987	22.45
801.163	22.46
801.34	21.62
801.516	21.64
801.692	21.98
801.869	21.71
802.045	21.79
802.221	21.97
802.398	20.8
802.574	20.21
802.75	20.35
802.926	20.05
803.103	19.72
803.279	20.81
803.455	20.67
803.631	21.33
803.807	20.73
803.983	20.87
804.16	20.74
804.336	21.26
804.512	21.27
804.688	21.75
804.864	21.89
805.04	22.85
805.216	22.31
805.392	21.85
805.568	21.83
805.744	22.82
805.92	22.81
806.096	22.69
806.272	22.28
806.448	22.15
806.623	21.63
806.799	21.66
806.975	21.13
807.151	21.85
807.327	22
807.503	21.1
807.678	20.42
807.854	20.24
808.03	20.07
808.206	20.14
808.381	20.55
808.557	19.94
808.733	20
808.908	20.12
809.084	19.46
809.26	20.23
809.435	20.71
809.611	20.94
809.787	20.94
809.962	20.33
810.138	20.59
810.313	20.85
810.489	21.56
810.664	21.65
810.84	21.12
811.015	21.49
811.191	20.65
811.366	20.4
811.542	20.46
811.717	21.08
811.892	22.64
812.068	22.48
812.243	22.37
812.419	22.69
812.594	23.03
812.769	24.07
812.944	23.74
813.12	23.57
813.295	23.66
813.47	23.53
813.645	23.06
813.821	22.77
813.996	22.72
814.171	22.85
814.346	22.6
814.521	22.77
814.697	22.11
814.872	22.17
815.047	22.31
815.222	22.51
815.397	22.34
815.572	22.12
815.747	22.42
815.922	21.85
816.097	22.07
816.272	21.97
816.447	21.09
816.622	21.86
816.797	21.57
816.972	21.88
817.147	22.34
817.322	22.26
817.496	22.14
817.671	22.17
817.846	22.35
818.021	21.91
818.196	22.12
818.371	22.12
818.545	21.91
818.72	21.87
818.895	21.92
819.069	21.91
819.244	22.03
819.419	22.53
819.594	21.85
819.768	21.86
819.943	21.68
820.117	21.59
820.292	21.93
820.467	21.79
820.641	22.02
820.816	21.89
820.99	21.82
821.165	21.93
821.339	21.98
821.514	22.05
821.688	22.15
821.863	22.29
822.037	22.39
822.212	22.33
822.386	22.44
822.56	22.49
822.735	22.6
822.909	22.66
823.084	22.57
823.258	22.58
823.432	22.77
823.606	22.71
823.781	22.84
823.955	22.79
824.129	22.77
824.303	22.64
824.478	22.55
824.652	22.51
824.826	22.54
825	22.85
825.174	22.5
825.348	22.1
825.523	22.19
825.697	21.8
825.871	21.98
826.045	22.18
826.219	22.18
826.393	22.23
826.567	22.45
826.741	22.37
826.915	22.46
827.089	22.61
827.263	22.95
827.437	22.99
827.611	23.49
827.784	23.14
827.958	22.84
828.132	23.11
828.306	23.07
828.48	22.87
828.654	22.96
828.827	22.41
829.001	22.35
829.175	22.17
829.349	22.49
829.522	21.98
829.696	22.39
829.87	23.04
830.044	22.79
830.217	22.51
830.391	22.38
830.565	22.55
830.738	22.7
830.912	22.57
831.085	22.32
831.259	22.28
831.432	22
831.606	21.7
831.779	21.63
831.953	21.45
832.126	21.83
832.3	21.9
832.473	21.51
832.647	21.7
832.82	22.35
832.994	22.51
833.167	22.18
833.34	22.22
833.514	22.38
833.687	22.37
833.86	22.42
834.034	22.43
834.207	22.24
834.38	22.03
834.553	22.05
834.727	22
834.9	22.2
835.073	22.18
835.246	22.13
835.419	22.28
835.593	22.55
835.766	22.8
835.939	22.55
836.112	22.74
836.285	23.13
836.458	23.32
836.631	22.37
836.804	21.81
836.977	21.95
837.15	21.91
837.323	21.57
837.496	20.63
837.669	21.19
837.842	21.14
838.015	21.15
838.188	21.12
838.361	21.12
838.533	21.09
838.706	20.15
838.879	19.98
839.052	19.66
839.225	20.01
839.398	21.09
839.57	18.97
839.743	18.65
839.916	19.69
840.088	19.64
840.261	19.27
840.434	20.45
840.607	21.41
840.779	22.25
840.952	23
841.124	23.33
841.297	22.9
841.47	24.07
841.642	25.07
841.815	23.23
841.987	23.15
842.16	23.83
842.332	22.47
842.505	22.02
842.677	22
842.85	22.35
843.022	21.97
843.194	22.34
843.367	22.7
843.539	23.19
843.712	25.92
843.884	26.59
844.056	26.38
844.229	26.82
844.401	27.65
844.573	27.85
844.745	27.55
844.918	26.69
845.09	26.77
845.262	28.51
845.434	29.49
845.606	27.34
845.779	27.75
845.951	29.04
846.123	28.89
846.295	28.5
846.467	27.42
846.639	28.01
846.811	28.55
846.983	27.22
847.155	26.2
847.327	24.77
847.499	24.3
847.671	22.07
847.843	20.48
848.015	20.87
848.187	21.67
848.359	21.45
848.531	20.21
848.703	20.49
848.875	21.93
849.047	22.41
849.218	22.53
849.39	23.02
849.562	24.89
849.734	23
849.905	22.41
850.077	23.33
850.249	23.03
850.421	22.44
850.592	21.54
850.764	20.72
850.936	19.61
851.107	18.21
851.279	19.86
851.451	19.57
851.622	20.97
851.794	21.6
851.965	20.2
852.137	22.44
852.308	21.88
852.48	22.74
852.651	22.54
852.823	21.88
852.994	22.45
853.166	21.52
853.337	23.43
853.509	24.04
853.68	25.25
853.851	27.35
854.023	25.86
854.194	26.86
854.365	25.91
854.537	26.01
854.708	26.28
854.879	25.85
855.05	26.18
855.222	24.54
855.393	23.09
855.564	22.9
855.735	20.39
855.906	19.85
856.078	18.79
856.249	19.88
856.42	16.97
856.591	17.4
856.762	19.95
856.933	20.42
857.104	19.67
857.275	22.07
857.446	21.46
857.617	19.81
857.788	20.54
857.959	21.11
858.13	20.27
858.301	22.03
858.472	23.47
858.643	21.95
858.814	22.94
858.985	24.44
859.155	23.03
859.326	23.19
859.497	26.87
859.668	25.42
859.839	25.82
860.009	28.85
860.18	29.78
860.351	30.8
860.522	29.73
860.692	29.72
860.863	29.65
861.034	28.27
861.204	26.88
861.375	24.66
861.546	24.49
861.716	23.01
861.887	18.28
862.057	18.2
862.228	14
862.398	13.34
862.569	13.1
862.739	12.91
862.91	14.74
863.08	17.46
863.251	16.93
863.421	18.46
863.592	18.15
863.762	20.2
863.932	18.51
864.103	18.48
864.273	17.71
864.443	17.96
864.614	18.57
864.784	19.3
864.954	17.75
865.125	20.45
865.295	19.97
865.465	22.06
865.635	20.24
865.805	23.96
865.976	24.37
866.146	25.61
866.316	23.09
866.486	21.47
866.656	19.88
866.826	19.35
866.996	16.9
867.166	17.71
867.336	18.45
867.506	20.33
867.676	19.1
867.846	19.42
868.016	18.25
868.186	17.96
868.356	17.61
868.526	18.69
868.696	19.24
868.866	20.69
869.036	18.63
869.206	18.22
869.376	15.41
869.545	12.75
869.715	14.96
869.885	16.64
870.055	18.74
870.224	19.82
870.394	18.85
870.564	22.62
870.734	19.68
870.903	20.87
871.073	20.89
871.243	24.15
871.412	24.64
871.582	23.53
871.751	26.12
871.921	25.3
872.091	23.42
872.26	24.22
872.43	18.42
872.599	20.33
872.769	20.1
872.938	18.83
873.108	19
873.277	20.26
873.446	22.6
873.616	20.93
873.785	21.03
873.955	24.44
874.124	25.29
874.293	28.33
874.463	26.9
874.632	26.02
874.801	26.88
874.971	27.7
875.14	29.48
875.309	26.57
875.478	27.06
875.647	27.35
875.817	25.53
875.986	24.74
876.155	23.78
876.324	25.52
876.493	26.95
876.662	28.37
876.831	25.2
877	23.47
877.17	24.63
877.339	25.44
877.508	27.57
877.677	26.87
877.846	28.59
878.015	27.38
878.184	26.65
878.352	28.59
878.521	26.85
878.69	28.15
878.859	28.03
879.028	28.78
879.197	27.72
879.366	26.8
879.534	27.67
879.703	26.04
879.872	26.51
880.041	27.42
880.21	26.35
880.378	26.17
880.547	26.48
880.716	26.41
880.884	25.9
881.053	26.27
881.222	25.57
881.39	25.37
881.559	25.95
881.727	25.95
881.896	25.51
882.065	25.49
882.233	25.68
882.402	25.3
882.57	25.29
882.739	25.22
882.907	25.03
883.076	25.54
883.244	25.84
883.412	25.25
883.581	25.16
883.749	25.5
883.918	26.38
884.086	26.99
884.254	27.02
884.423	26.8
884.591	27.3
884.759	26.85
884.927	27.46
885.096	27.04
885.264	28.04
885.432	28.35
885.6	27.45
885.769	26.67
885.937	26.12
886.105	26.55
886.273	26.88
886.441	27.05
886.609	27.65
886.777	26.64
886.945	26.92
887.113	27.29
887.281	27.13
887.449	28.2
887.617	26.78
887.785	25.13
887.953	24.74
888.121	24.73
888.289	23.34
888.457	24.16
888.625	23.46
888.793	22.48
888.961	18.61
889.129	17.82
889.296	18.36
889.464	17.8
889.632	18.28
889.8	18.76
889.967	18.33
890.135	20.33
