Data from JASIL_3047_Reflection_01.txt Node
Date: Mon Nov 09 11:15:00 EST 2015
User: Geneva
Spectrometer: USB4E03002
Autoset integration time: false
Trigger mode: 4
Integration Time (sec): 1.000000E-1
Scans to average: 10
Electric dark correction enabled: false
Nonlinearity correction enabled: false
Boxcar width: 5
Stray light correction enabled: false
XAxis mode: Wavelengths
Stop averaging: false
Number of Pixels in Spectrum: 3648
>>>>>Begin Spectral Data<<<<<
177.575	167.42
177.794	2633.33
178.014	-32100
178.233	-501.89
178.452	-412.99
178.672	-1605.88
178.891	927.78
179.11	580.82
179.33	689.06
179.549	-2784.62
179.768	-1965.62
179.987	-289.02
180.207	-6900
180.426	1455.88
180.645	347.13
180.864	398.62
181.084	395.59
181.303	-47100
181.522	-366.35
181.741	-346.05
181.96	-127.16
182.179	22.26
182.398	-11.79
182.618	-6.68
182.837	-8.14
183.056	-20.17
183.275	-3.35
183.494	-29.24
183.713	-54.06
183.932	-24.38
184.151	-38.57
184.37	-94.44
184.589	511.86
184.808	238.18
185.027	262.92
185.246	259.55
185.465	57.94
185.684	148.53
185.903	121.21
186.122	97.86
186.341	49.24
186.56	34.53
186.779	33.06
186.998	60.86
187.216	72.83
187.435	102.27
187.654	112.43
187.873	91.42
188.092	96.51
188.311	103.33
188.53	161.37
188.748	150.27
188.967	119.4
189.186	98.49
189.405	49.87
189.623	-13.26
189.842	10.91
190.061	30.06
190.28	-5.33
190.498	-20.08
190.717	-48.76
190.936	-47.33
191.154	-91.48
191.373	66.67
191.592	-23000
191.81	522.5
192.029	292.31
192.248	-25.27
192.466	17.07
192.685	281.82
192.904	-68.42
193.122	-283.64
193.341	-120.34
193.559	705.26
193.778	139.47
193.996	-160
194.215	-40.69
194.433	-957.14
194.652	-1438.1
194.87	-203.61
195.089	-221.84
195.307	-443.55
195.526	-1728.57
195.744	-98.86
195.963	450
196.181	11.39
196.399	8.97
196.618	25.76
196.836	-49.72
197.055	-27.92
197.273	-44.06
197.491	-2.75
197.71	-30.81
197.928	-4.46
198.146	31.84
198.365	85.9
198.583	135.77
198.801	353.45
199.019	112.25
199.238	181.01
199.456	208.4
199.674	181.95
199.892	128.76
200.111	494.64
200.329	203.19
200.547	861.7
200.765	585
200.983	-294.81
201.202	266.67
201.42	-173.58
201.638	-62.5
201.856	-2.91
202.074	14.95
202.292	-41.89
202.51	-152.31
202.728	-19.48
202.946	-44.44
203.165	-32.48
203.383	-76.67
203.601	-193.75
203.819	-77.14
204.037	42.01
204.255	9.29
204.473	-278.31
204.691	117.07
204.909	-415.63
205.127	-74.14
205.345	-58.82
205.562	142.54
205.78	566.67
205.998	-147.37
206.216	-175.61
206.434	-148.41
206.652	-370.59
206.87	-387.5
207.088	-304.17
207.306	-1920.83
207.523	-151.06
207.741	-77.58
207.959	-124.16
208.177	-187.27
208.395	-5130.77
208.612	356.8
208.83	363.38
209.048	-2.59
209.266	-135.71
209.483	-301.64
209.701	383.82
209.919	-109.4
210.136	-100.51
210.354	-388.61
210.572	-412.38
210.79	-400
211.007	282.93
211.225	-267.03
211.442	-118.01
211.66	-7.82
211.878	-57.04
212.095	-92.79
212.313	-409.59
212.53	-109.62
212.748	-46.32
212.966	-45.28
213.183	25.2
213.401	156.76
213.618	33.09
213.836	21.1
214.053	8.99
214.271	-4.11
214.488	-107.55
214.705	-240
214.923	-205.7
215.14	-29.63
215.358	3.55
215.575	25.38
215.793	38.61
216.01	40.17
216.227	58.09
216.445	58.99
216.662	-16.26
216.879	18.55
217.097	-4.12
217.314	94.25
217.531	-272
217.749	-23.46
217.966	45.49
218.183	130
218.4	190.14
218.618	-5766.67
218.835	7.59
219.052	31.25
219.269	180.33
219.487	91.79
219.704	59.22
219.921	-26.79
220.138	-186.75
220.355	3712.5
220.572	6983.33
220.79	424.1
221.007	-598.51
221.224	-230.66
221.441	-474.67
221.658	-418.84
221.875	-111.43
222.092	-198.73
222.309	-112.5
222.526	-2566.67
222.743	-187.88
222.96	64.13
223.177	250
223.394	450
223.611	20.93
223.828	32.58
224.045	26.32
224.262	-185
224.479	367.92
224.696	-1289.47
224.913	104.79
225.13	76.62
225.347	64.56
225.564	61.25
225.781	46.08
225.997	73.39
226.214	61.17
226.431	34.29
226.648	21.04
226.865	9.2
227.082	-6.74
227.298	4.73
227.515	6.33
227.732	-3.43
227.949	-3.19
228.165	2.98
228.382	-0.62
228.599	2.63
228.816	8.89
229.032	13.13
229.249	23.73
229.466	28.65
229.682	18.11
229.899	21.89
230.116	32.88
230.332	40.11
230.549	35.7
230.765	30.52
230.982	18.77
231.199	21.52
231.415	33.55
231.632	7.8
231.848	30.8
232.065	44.67
232.281	26.85
232.498	10.6
232.714	11.61
232.931	24.39
233.147	25.24
233.364	22.23
233.58	16.33
233.797	13.5
234.013	10.41
234.23	3.55
234.446	11.04
234.662	13.42
234.879	6.9
235.095	6.56
235.312	10.69
235.528	16.01
235.744	16.81
235.961	17.02
236.177	0.7
236.393	23.16
236.61	20.92
236.826	8.34
237.042	3.49
237.258	20.33
237.475	9.51
237.691	1.36
237.907	-6.85
238.123	1.11
238.339	6.37
238.556	14.97
238.772	7.76
238.988	5.7
239.204	3.24
239.42	17.84
239.636	5.56
239.853	10.26
240.069	13.34
240.285	14.06
240.501	10.42
240.717	6.87
240.933	0.25
241.149	0.24
241.365	-0.52
241.581	2.94
241.797	-0.48
242.013	1.74
242.229	3.73
242.445	6
242.661	2.66
242.877	10.79
243.093	14.03
243.309	16.85
243.525	17.62
243.741	23.85
243.957	22.24
244.173	19.35
244.388	16.11
244.604	11.69
244.82	7.93
245.036	7.1
245.252	-0.79
245.468	-0.58
245.683	0.98
245.899	0.56
246.115	-0.87
246.331	-2.89
246.547	0.05
246.762	0.28
246.978	1.09
247.194	1.08
247.409	1.07
247.625	4.28
247.841	2.57
248.057	1.43
248.272	-1.98
248.488	-5.88
248.703	-12.32
248.919	-25.9
249.135	-33.45
249.35	-35.5
249.566	-27.84
249.782	-36.06
249.997	-26.11
250.213	-23.81
250.428	-21.35
250.644	-13.14
250.859	-10.26
251.075	-7.69
251.29	-2.4
251.506	0.97
251.721	-2.18
251.937	-7.32
252.152	-4.36
252.368	-11.3
252.583	-8.54
252.798	-8.51
253.014	-2.83
253.229	4.75
253.445	14.59
253.66	15.39
253.875	16.08
254.091	5.09
254.306	-3.73
254.521	-3.92
254.737	1.39
254.952	-1.68
255.167	-2.77
255.383	-14.63
255.598	-15.71
255.813	-22.37
256.028	-21.46
256.244	-18.65
256.459	-13.26
256.674	-1.34
256.889	3.97
257.104	1.71
257.32	2.41
257.535	1.85
257.75	4.21
257.965	3.6
258.18	6.25
258.395	8.43
258.61	9.81
258.826	12
259.041	11.21
259.256	8.86
259.471	9.87
259.686	9.51
259.901	11.67
260.116	12.66
260.331	11.26
260.546	7.02
260.761	4.12
260.976	0
261.191	-1.54
261.406	-0.77
261.621	1.93
261.836	0.44
262.05	3.03
262.265	0.55
262.48	-1.79
262.695	2.3
262.91	4.29
263.125	7.06
263.34	9.34
263.555	13.09
263.769	4.54
263.984	4.12
264.199	3.17
264.414	0.95
264.629	-1.16
264.843	1.05
265.058	3.63
265.273	6.44
265.488	3.9
265.702	4.04
265.917	1.69
266.132	6.53
266.346	8.02
266.561	10.15
266.776	13.18
266.99	12.59
267.205	10.25
267.42	5.33
267.634	5.08
267.849	2.19
268.063	-1.23
268.278	-2.87
268.492	-2.49
268.707	-2
268.922	-4.78
269.136	-7.46
269.351	-8.56
269.565	-4.02
269.78	-1.14
269.994	-1.51
270.209	2.65
270.423	4.69
270.637	7.17
270.852	4.81
271.066	1.56
271.281	4.47
271.495	4.15
271.709	3.97
271.924	2.2
272.138	1.25
272.353	-0.35
272.567	-2.22
272.781	0.22
272.996	-0.59
273.21	0.69
273.424	10.36
273.638	9.19
273.853	8.13
274.067	12.29
274.281	13.79
274.495	13.84
274.71	16.15
274.924	19.03
275.138	13.32
275.352	10.57
275.566	13.97
275.781	3.89
275.995	3.28
276.209	2.95
276.423	-0.82
276.637	-2.47
276.851	-4.04
277.065	-3.83
277.279	-6.78
277.493	0.69
277.707	4.18
277.921	-1.3
278.135	-0.75
278.349	0.6
278.563	1.98
278.777	7.41
278.991	8.25
279.205	6.05
279.419	4.84
279.633	4.85
279.847	1.15
280.061	0.78
280.275	1.4
280.489	5.34
280.703	5.37
280.917	4.32
281.131	5.61
281.344	4.05
281.558	7.16
281.772	8.41
281.986	7.8
282.2	7.19
282.414	4.7
282.627	3.83
282.841	-0.07
283.055	-1.59
283.269	-0.42
283.482	-4.19
283.696	-2.46
283.91	-2.74
284.123	-5.56
284.337	-5.97
284.551	-2.84
284.764	-4.13
284.978	-2.27
285.192	1
285.405	0.56
285.619	2.49
285.833	1.26
286.046	0.03
286.26	0.97
286.473	2.17
286.687	1.99
286.9	-1.61
287.114	1.45
287.327	-1.23
287.541	-1.66
287.754	-1.8
287.968	-3.01
288.181	0.46
288.395	0.19
288.608	0.25
288.822	2.22
289.035	5.04
289.248	2.85
289.462	3.47
289.675	3.99
289.889	4.38
290.102	3.6
290.315	4.13
290.529	3.85
290.742	3.12
290.955	3.46
291.169	0.51
291.382	0.68
291.595	6.07
291.808	7.93
292.022	7.57
292.235	3.37
292.448	4.83
292.661	5.05
292.875	0.98
293.088	3.35
293.301	1.64
293.514	4.81
293.727	3.37
293.94	2.28
294.153	-1.12
294.367	2.87
294.58	4.01
294.793	4.31
295.006	2.65
295.219	3.55
295.432	2.71
295.645	2.89
295.858	1.75
296.071	0.89
296.284	1.28
296.497	1.01
296.71	-1.17
296.923	-0.28
297.136	-1.32
297.349	-0.01
297.562	0.17
297.775	-1.97
297.988	-1.97
298.201	-1.59
298.414	-2.44
298.626	-7.21
298.839	-6.11
299.052	-7.19
299.265	-8.98
299.478	-7.67
299.691	-7.96
299.903	-10.21
300.116	-5.89
300.329	-7.35
300.542	-5.94
300.755	-6.72
300.967	-2.63
301.18	-0.29
301.393	2.44
301.605	0.78
301.818	0.07
302.031	-2.81
302.243	1.25
302.456	0.78
302.669	6.41
302.881	6.31
303.094	9.12
303.307	10.99
303.519	7.34
303.732	8.16
303.944	9.72
304.157	9.76
304.37	12.16
304.582	11.08
304.795	10.09
305.007	8.17
305.22	5.88
305.432	5.13
305.645	4.57
305.857	4.41
306.069	1.97
306.282	3.55
306.494	4.52
306.707	4.46
306.919	5.59
307.132	3.52
307.344	3.78
307.556	3.76
307.769	3.33
307.981	0.87
308.193	2.42
308.406	3.06
308.618	2.02
308.83	2.43
309.043	-0.16
309.255	0.72
309.467	3.51
309.679	-0.07
309.892	2.1
310.104	0.59
310.316	0.06
310.528	2.54
310.74	4.27
310.953	5.53
311.165	4.23
311.377	6.64
311.589	7.05
311.801	6.78
312.013	5.9
312.225	3.62
312.437	6.18
312.649	7.96
312.862	5.72
313.074	3.16
313.286	4.65
313.498	8.84
313.71	11.05
313.922	8.41
314.134	6.69
314.346	8.23
314.558	8.53
314.77	7.61
314.982	8.49
315.193	8.94
315.405	9.05
315.617	7.87
315.829	7.57
316.041	5.45
316.253	8.51
316.465	8.02
316.677	10.03
316.888	12.13
317.1	11.61
317.312	10.43
317.524	10.63
317.736	11.47
317.947	9.48
318.159	6.38
318.371	4.5
318.583	1.51
318.794	3.35
319.006	1.83
319.218	3.64
319.43	2.87
319.641	-0.08
319.853	-1.65
320.064	-6.54
320.276	-7.25
320.488	-9.81
320.699	-8.47
320.911	-7.23
321.123	-3.77
321.334	-6.99
321.546	-9.74
321.757	-8.23
321.969	-6.22
322.18	-7.94
322.392	-4.85
322.603	-3.4
322.815	-1.32
323.026	-0.47
323.238	-1.09
323.449	-3.3
323.661	1.08
323.872	1.98
324.083	1.56
324.295	2.02
324.506	5.67
324.718	7.76
324.929	8.51
325.14	8.98
325.352	10.1
325.563	10
325.774	9.91
325.986	9.49
326.197	8.46
326.408	8.08
326.62	8.43
326.831	7.17
327.042	6.41
327.253	4.82
327.464	5.56
327.676	5.86
327.887	9.79
328.098	9.08
328.309	8.41
328.52	10.19
328.732	11.15
328.943	12.59
329.154	12.64
329.365	9.23
329.576	12.31
329.787	10.05
329.998	9.79
330.209	6.82
330.42	2.07
330.631	1.46
330.842	-1.61
331.053	-3.23
331.264	-3.86
331.475	-7.12
331.686	-1.85
331.897	2.96
332.108	4.05
332.319	4.33
332.53	2.16
332.741	6.99
332.952	6.77
333.163	7.9
333.374	9.4
333.585	9.16
333.795	10.81
334.006	7.98
334.217	1.5
334.428	3.93
334.639	1.7
334.849	3.9
335.06	5.41
335.271	0.88
335.482	0.47
335.692	0.59
335.903	-0.84
336.114	-4.76
336.325	-1.8
336.535	0.6
336.746	-0.18
336.957	2.65
337.167	-0.04
337.378	-0.53
337.589	2.92
337.799	4.77
338.01	4.77
338.22	3.46
338.431	4.98
338.642	4.99
338.852	4.31
339.063	5
339.273	2.28
339.484	3.79
339.694	5.61
339.905	5.82
340.115	6.41
340.326	6.02
340.536	9.59
340.746	11.07
340.957	9.55
341.167	11.08
341.378	7.81
341.588	8.03
341.799	8.82
342.009	5.68
342.219	6.02
342.43	5.03
342.64	3.9
342.85	0.97
343.061	0
343.271	2.05
343.481	0.84
343.691	3.89
343.902	4.75
344.112	7.36
344.322	8.39
344.532	7.78
344.743	8.08
344.953	11.26
345.163	9.65
345.373	10.33
345.583	8.53
345.793	7.54
346.004	2.36
346.214	1.42
346.424	-5.27
346.634	-4.82
346.844	-1.7
347.054	-3.52
347.264	-5.73
347.474	-1.14
347.684	-0.05
347.894	0.11
348.104	0.03
348.314	1.59
348.524	0.08
348.734	4.1
348.944	4.48
349.154	4.95
349.364	2.22
349.574	2.89
349.784	2.93
349.994	2.2
350.204	0.53
350.413	-0.1
350.623	1.73
350.833	2.61
351.043	3.13
351.253	3.84
351.463	2.79
351.672	6.83
351.882	7.24
352.092	5.05
352.302	4.11
352.511	4.64
352.721	4.59
352.931	3.96
353.141	5.59
353.35	1.66
353.56	-1.3
353.77	-3.44
353.979	-3.32
354.189	-4.86
354.399	-4.69
354.608	-3.17
354.818	-3.22
355.027	-2.4
355.237	-2.84
355.447	-5.3
355.656	-3.07
355.866	-1.96
356.075	0.36
356.285	0.95
356.494	2.13
356.704	3.24
356.913	2.88
357.123	5.17
357.332	3.6
357.542	4.38
357.751	6.55
357.96	7.86
358.17	6.4
358.379	7.18
358.589	3.96
358.798	3.06
359.007	2.55
359.217	2.94
359.426	2.59
359.635	5.74
359.845	5.96
360.054	5.35
360.263	4.78
360.472	6.88
360.682	6.87
360.891	7.32
361.1	8.47
361.309	9.54
361.519	8.58
361.728	8.73
361.937	6.77
362.146	7.62
362.355	6.83
362.564	7.76
362.774	7.38
362.983	6.68
363.192	7.19
363.401	5.75
363.61	4.13
363.819	4.28
364.028	3.6
364.237	4.15
364.446	2.28
364.655	3.29
364.864	2.24
365.073	1.26
365.282	0.33
365.491	-0.45
365.7	-0.49
365.909	0.14
366.118	0.42
366.327	-2.27
366.536	-2.75
366.745	-1.04
366.954	-0.34
367.162	-0.32
367.371	0.08
367.58	1.01
367.789	2.78
367.998	3.7
368.207	4.04
368.415	4.6
368.624	5.52
368.833	6.46
369.042	7.09
369.25	7.23
369.459	6.27
369.668	7.05
369.877	6.14
370.085	6.01
370.294	5.01
370.503	5
370.711	4.43
370.92	4.62
371.129	4.8
371.337	4.32
371.546	2.35
371.754	4.79
371.963	4.22
372.171	4.09
372.38	3.33
372.589	4.25
372.797	5.64
373.006	7.66
373.214	8.39
373.423	7.71
373.631	7.45
373.84	8.3
374.048	5.78
374.256	5.55
374.465	5.78
374.673	6.25
374.882	6.4
375.09	5.48
375.298	5.13
375.507	5.53
375.715	5.82
375.923	5.03
376.132	6.68
376.34	6.57
376.548	6.88
376.757	7.75
376.965	8.59
377.173	7.93
377.381	7.3
377.59	6.6
377.798	6.69
378.006	5.55
378.214	5.89
378.423	4.18
378.631	2.81
378.839	2.21
379.047	1.02
379.255	1.59
379.463	2.45
379.671	2.59
379.879	2.8
380.088	3.05
380.296	4.09
380.504	5.32
380.712	6.75
380.92	8.71
381.128	9.36
381.336	9.79
381.544	8.69
381.752	9.85
381.96	11.03
382.168	10.03
382.376	10.48
382.584	9.54
382.791	8.33
382.999	5.76
383.207	6.09
383.415	5.13
383.623	4.89
383.831	4.05
384.039	3.48
384.247	2.15
384.454	1.75
384.662	1.01
384.87	1.43
385.078	1.46
385.285	3.33
385.493	3.6
385.701	4.33
385.909	4.17
386.116	4.15
386.324	3.17
386.532	2.16
386.739	2.86
386.947	2.04
387.155	1.56
387.362	1.91
387.57	2.65
387.778	3.06
387.985	2.99
388.193	3.35
388.4	3.72
388.608	3.85
388.816	4.23
389.023	3.74
389.231	4.21
389.438	4.8
389.646	5.29
389.853	3.36
390.061	3.25
390.268	2.87
390.475	2.89
390.683	4.4
390.89	5.12
391.098	5.14
391.305	4.83
391.512	4.48
391.72	4.77
391.927	2.71
392.135	3.47
392.342	3
392.549	3.64
392.756	2.6
392.964	0.8
393.171	-0.51
393.378	-0.52
393.586	-0.5
393.793	0.53
394	0.62
394.207	1.29
394.414	0.23
394.622	1.34
394.829	1.91
395.036	2.81
395.243	2.88
395.45	3.44
395.657	3.04
395.864	3.27
396.072	2.27
396.279	1.38
396.486	1.78
396.693	3.31
396.9	1.77
397.107	1.04
397.314	0.83
397.521	2.53
397.728	2.12
397.935	2.87
398.142	3.73
398.349	4.31
398.556	5.41
398.763	6.1
398.97	5.61
399.177	5.31
399.383	3.21
399.59	2.66
399.797	1.16
400.004	2.16
400.211	2.18
400.418	2.78
400.625	3.65
400.831	3.19
401.038	3
401.245	3.08
401.452	3.7
401.658	4.95
401.865	6.15
402.072	6.86
402.279	6.88
402.485	6.95
402.692	6.02
402.899	4.54
403.105	4.41
403.312	4.47
403.519	5.09
403.725	4.89
403.932	5.93
404.138	5.41
404.345	5.35
404.552	4.56
404.758	3.81
404.965	5.47
405.171	5.94
405.378	5.06
405.584	5.18
405.791	3.57
405.997	4.13
406.204	3.82
406.41	5.09
406.617	3.4
406.823	4.91
407.029	4.75
407.236	3.57
407.442	4.03
407.649	5.04
407.855	4.2
408.061	5.3
408.268	4.34
408.474	4.61
408.68	4.19
408.887	5.81
409.093	4.13
409.299	4.75
409.505	4.89
409.712	5.07
409.918	5.11
410.124	5.15
410.33	4.72
410.537	5.11
410.743	5.35
410.949	4.17
411.155	3.75
411.361	4.13
411.567	4.18
411.773	3.71
411.98	2.77
412.186	2.82
412.392	3.32
412.598	3.58
412.804	3.61
413.01	2.4
413.216	3.42
413.422	3.37
413.628	3.88
413.834	4.56
414.04	4.29
414.246	3.96
414.452	4.31
414.658	4.49
414.864	4.29
415.07	4.79
415.275	6.16
415.481	6.32
415.687	6.61
415.893	5.65
416.099	6.33
416.305	6.47
416.511	6.43
416.716	5.78
416.922	6.19
417.128	6.27
417.334	6.47
417.539	5.58
417.745	4.96
417.951	4.55
418.157	4.68
418.362	4.18
418.568	5.08
418.774	5.13
418.979	5.73
419.185	4.98
419.391	4.71
419.596	4.75
419.802	4.9
420.008	5.02
420.213	5.53
420.419	6.3
420.624	6.44
420.83	5.69
421.035	6.66
421.241	6.35
421.446	6.6
421.652	6.98
421.857	6.78
422.063	6.61
422.268	6.93
422.474	6.33
422.679	5.77
422.885	5.46
423.09	5.55
423.295	5.11
423.501	4.64
423.706	4.66
423.911	4.83
424.117	4.8
424.322	4.93
424.527	4.96
424.733	5.18
424.938	5
425.143	5.24
425.349	5.38
425.554	5.21
425.759	5.88
425.964	6.16
426.169	6.2
426.375	7.01
426.58	7.68
426.785	7.26
426.99	7.33
427.195	7.57
427.4	5.97
427.605	5.54
427.811	5.59
428.016	5.31
428.221	5.01
428.426	5.36
428.631	4
428.836	3.43
429.041	3.66
429.246	4.1
429.451	3.79
429.656	5.26
429.861	5.85
430.066	6.41
430.271	7.67
430.476	7.95
430.681	6.94
430.886	6.99
431.09	7.55
431.295	8.06
431.5	7.99
431.705	8
431.91	8.14
432.115	7.8
432.32	7.51
432.524	6.44
432.729	6.02
432.934	6.78
433.139	7.05
433.343	6.18
433.548	5.27
433.753	5.11
433.958	5.25
434.162	4.61
434.367	4.77
434.572	5.34
434.776	5.32
434.981	5.12
435.186	5.32
435.39	5.62
435.595	6.23
435.799	7.04
436.004	6.49
436.209	6.31
436.413	6.99
436.618	7.25
436.822	6.88
437.027	6.99
437.231	6.67
437.436	6.14
437.64	6.16
437.845	5.64
438.049	5.3
438.253	5.42
438.458	5.93
438.662	5.48
438.867	5.23
439.071	4.94
439.275	5.08
439.48	5.62
439.684	5.5
439.888	5.12
440.093	5.77
440.297	5.95
440.501	6.31
440.706	5.97
440.91	5.5
441.114	5.11
441.318	5.27
441.523	5.04
441.727	4.94
441.931	4.59
442.135	4.57
442.339	4.18
442.543	3.74
442.748	3.47
442.952	3.4
443.156	4.29
443.36	4.34
443.564	4.27
443.768	4.37
443.972	4.67
444.176	4.94
444.38	4.67
444.584	4.71
444.788	4.65
444.992	5.31
445.196	5.72
445.4	5.55
445.604	5.89
445.808	5.63
446.012	5.6
446.216	5.49
446.42	5.62
446.624	5.95
446.828	5.7
447.032	6.08
447.235	5.57
447.439	4.99
447.643	5.23
447.847	5.27
448.051	5.01
448.254	5.4
448.458	5.67
448.662	5.46
448.866	5.39
449.069	5.57
449.273	5.75
449.477	6.01
449.681	7.34
449.884	6.92
450.088	6.37
450.292	7.05
450.495	6.31
450.699	5.36
450.902	5.83
451.106	6.04
451.31	5.94
451.513	5.97
451.717	5.74
451.92	4.78
452.124	5.07
452.327	5.22
452.531	5.13
452.734	5.68
452.938	6.71
453.141	6.04
453.345	5.78
453.548	5.78
453.752	5.12
453.955	5.1
454.158	4.93
454.362	5.04
454.565	5.38
454.769	5.53
454.972	5.01
455.175	4.38
455.379	4.81
455.582	4.95
455.785	5.12
455.988	5.31
456.192	5.54
456.395	5.57
456.598	5.87
456.801	6.28
457.005	6.89
457.208	7.69
457.411	7.37
457.614	7.07
457.817	6.94
458.021	6.93
458.224	7.15
458.427	6.76
458.63	6.78
458.833	6.32
459.036	6.32
459.239	6.21
459.442	5.53
459.645	5.61
459.848	5.68
460.051	5.69
460.254	5.6
460.457	5.31
460.66	5.52
460.863	5.21
461.066	5.79
461.269	5.54
461.472	5.15
461.675	5.27
461.878	5.71
462.081	5.53
462.284	6.1
462.486	5.59
462.689	5.98
462.892	6.11
463.095	5.88
463.298	5.68
463.5	5.72
463.703	6.21
463.906	7.05
464.109	6.76
464.311	7.21
464.514	6.48
464.717	6.58
464.92	6.29
465.122	6.08
465.325	6.48
465.528	5.81
465.73	5.54
465.933	5.1
466.135	4.74
466.338	4.78
466.541	4.25
466.743	4.52
466.946	5.11
467.148	5.22
467.351	5.93
467.553	5.82
467.756	5.74
467.958	5.63
468.161	5.59
468.363	5.52
468.566	5.45
468.768	6.44
468.971	6.21
469.173	6.37
469.375	6.2
469.578	5.15
469.78	6
469.983	7.29
470.185	6.38
470.387	6.24
470.59	6.21
470.792	5.58
470.994	4.47
471.196	5.01
471.399	5.04
471.601	5.11
471.803	5.57
472.005	5.28
472.208	4.76
472.41	5.27
472.612	5.7
472.814	5.34
473.016	6.02
473.218	6.21
473.421	5.29
473.623	4.71
473.825	4.59
474.027	4.81
474.229	4.6
474.431	4.08
474.633	5
474.835	4.03
475.037	5.22
475.239	5.04
475.441	4.9
475.643	4.86
475.845	5.26
476.047	5.75
476.249	5.88
476.451	6.4
476.653	6.7
476.855	5.77
477.057	6.47
477.258	5.62
477.46	6.63
477.662	7.28
477.864	7.75
478.066	7.97
478.268	7.47
478.469	7.73
478.671	7.44
478.873	7.72
479.075	8.93
479.276	8.62
479.478	8.48
479.68	7.92
479.882	7.58
480.083	7.49
480.285	7.24
480.487	7.21
480.688	6.88
480.89	6.61
481.091	6.21
481.293	5.81
481.495	5.72
481.696	5.83
481.898	5.95
482.099	5.92
482.301	5.91
482.502	6.09
482.704	6.18
482.905	6.02
483.107	6.08
483.308	6.37
483.51	6.44
483.711	6.45
483.913	6.55
484.114	6.34
484.315	6.35
484.517	6.5
484.718	6.39
484.92	6.41
485.121	6.58
485.322	6.67
485.524	6.34
485.725	6.07
485.926	6.42
486.127	6.28
486.329	6.33
486.53	6.48
486.731	6.61
486.932	6.48
487.134	6.53
487.335	6.41
487.536	6.34
487.737	6.36
487.938	6.45
488.139	6.16
488.341	6.32
488.542	6.53
488.743	6.43
488.944	6.24
489.145	6.48
489.346	6.26
489.547	6.46
489.748	6.5
489.949	6.69
490.15	6.84
490.351	6.94
490.552	6.69
490.753	6.71
490.954	6.79
491.155	6.67
491.356	6.38
491.557	6.67
491.758	6.5
491.959	6.57
492.159	6.28
492.36	6.12
492.561	6.13
492.762	6.3
492.963	5.76
493.164	5.82
493.364	5.71
493.565	5.62
493.766	5.2
493.967	5.23
494.167	5.06
494.368	5.71
494.569	5.78
494.769	5.8
494.97	5.47
495.171	5.77
495.371	6.08
495.572	5.7
495.773	5.77
495.973	5.56
496.174	6.02
496.375	5.73
496.575	5.3
496.776	5.37
496.976	4.98
497.177	5.32
497.377	5.88
497.578	5.7
497.778	6.09
497.979	6.63
498.179	6.97
498.38	6.7
498.58	7.3
498.78	7.18
498.981	6.88
499.181	7.06
499.382	7.49
499.582	6.84
499.782	6.55
499.983	6.82
500.183	6.44
500.383	6.38
500.584	6.14
500.784	5.72
500.984	5.93
501.184	6.38
501.385	6.24
501.585	6.04
501.785	6.18
501.985	6.03
502.185	6.05
502.386	6.22
502.586	6.33
502.786	6.51
502.986	6.69
503.186	6.45
503.386	5.84
503.586	5.69
503.786	5.43
503.987	5.36
504.187	5.11
504.387	5.17
504.587	5.31
504.787	4.92
504.987	5.06
505.187	5.22
505.387	5.44
505.587	5.87
505.786	6.35
505.986	6.19
506.186	5.92
506.386	6.31
506.586	6.7
506.786	6.62
506.986	6.45
507.186	6.12
507.386	5.73
507.585	5.36
507.785	5.65
507.985	5.68
508.185	6.22
508.384	6.7
508.584	6.6
508.784	6.31
508.984	6.33
509.183	6.84
509.383	6.85
509.583	7.03
509.782	7.81
509.982	7.57
510.182	7.59
510.381	7.07
510.581	7.35
510.781	7.54
510.98	7.17
511.18	7.19
511.379	7.33
511.579	7.41
511.778	7.47
511.978	7.74
512.177	7.89
512.377	7.97
512.576	8.27
512.776	7.72
512.975	7.71
513.175	7.89
513.374	8.2
513.573	8.08
513.773	8.23
513.972	8.44
514.172	8.27
514.371	8.31
514.57	8.16
514.77	8.01
514.969	8.22
515.168	8.41
515.367	8.76
515.567	8.6
515.766	8.53
515.965	8.35
516.164	8.31
516.364	7.8
516.563	8.24
516.762	8.41
516.961	8.67
517.16	8.59
517.359	8.73
517.559	8.87
517.758	9.13
517.957	9.13
518.156	9.47
518.355	9.43
518.554	9.85
518.753	9.61
518.952	9.83
519.151	10.01
519.35	10.25
519.549	10.01
519.748	9.85
519.947	9.27
520.146	9.46
520.345	9.27
520.544	9.68
520.743	9.42
520.942	9.45
521.141	9.19
521.339	9.11
521.538	9.29
521.737	9.39
521.936	9.03
522.135	9.14
522.333	9.18
522.532	9.17
522.731	9.17
522.93	8.91
523.129	8.84
523.327	9.03
523.526	9.35
523.725	9.13
523.923	9.27
524.122	9.82
524.321	10.18
524.519	10.34
524.718	10.28
524.917	10.03
525.115	10.32
525.314	10.6
525.512	10.71
525.711	10.36
525.909	10.38
526.108	10.48
526.306	10.5
526.505	10.47
526.703	10.53
526.902	10.73
527.1	10.8
527.299	10.92
527.497	10.81
527.696	10.85
527.894	11.14
528.092	11.25
528.291	11.18
528.489	11.34
528.688	11.45
528.886	11.48
529.084	11.46
529.283	11.45
529.481	11.48
529.679	11.63
529.877	11.57
530.076	11.48
530.274	11.54
530.472	11.95
530.67	11.54
530.869	11.43
531.067	10.98
531.265	11.12
531.463	11.36
531.661	11.45
531.859	11.42
532.057	11.49
532.255	11.54
532.454	11.36
532.652	11.22
532.85	11.43
533.048	11.62
533.246	11.81
533.444	11.89
533.642	11.75
533.84	12
534.038	11.96
534.236	12
534.434	11.98
534.632	12.09
534.83	12.11
535.027	12.12
535.225	12.01
535.423	12.23
535.621	12.36
535.819	12.07
536.017	11.64
536.215	11.29
536.412	11.31
536.61	10.84
536.808	10.84
537.006	10.84
537.203	10.58
537.401	10.38
537.599	10.66
537.797	10.32
537.994	10.61
538.192	10.82
538.39	11.25
538.587	11.16
538.785	11.32
538.983	11.45
539.18	11.61
539.378	11.92
539.575	12.39
539.773	12.45
539.97	12.57
540.168	12.44
540.366	12.29
540.563	12.34
540.761	12.37
540.958	12.61
541.155	12.69
541.353	12.48
541.55	12.75
541.748	12.44
541.945	12.3
542.143	12.45
542.34	12.92
542.537	13.41
542.735	13.62
542.932	13.63
543.129	13.79
543.327	13.56
543.524	14.06
543.721	13.72
543.919	13.39
544.116	13.23
544.313	13.18
544.51	13.15
544.708	13.05
544.905	13
545.102	13.35
545.299	12.75
545.496	13.33
545.693	13.12
545.891	13.01
546.088	13.67
546.285	13.92
546.482	14.08
546.679	14
546.876	14.53
547.073	14.73
547.27	14.2
547.467	14.69
547.664	14.27
547.861	13.92
548.058	14.17
548.255	13.88
548.452	13.53
548.649	13.63
548.846	13.45
549.043	12.27
549.24	12.17
549.437	13
549.633	13.5
549.83	13.88
550.027	14.09
550.224	13.77
550.421	13.94
550.618	13.9
550.814	13.37
551.011	13.01
551.208	13.24
551.405	13.02
551.601	12.78
551.798	12.3
551.995	12.01
552.191	12.22
552.388	12.24
552.585	12.61
552.781	12.8
552.978	12.88
553.175	13.41
553.371	13.51
553.568	13.21
553.764	12.77
553.961	13.02
554.157	13.75
554.354	13.76
554.55	14.02
554.747	13.93
554.943	14.13
555.14	13.64
555.336	13.48
555.533	13.51
555.729	14
555.926	14.8
556.122	14.66
556.318	14.31
556.515	14.3
556.711	15.19
556.907	14.53
557.104	14.44
557.3	15.24
557.496	15.24
557.693	14.65
557.889	14.39
558.085	13.77
558.281	14.06
558.478	13.44
558.674	13.42
558.87	12.29
559.066	12.46
559.262	12.85
559.459	12.81
559.655	13.26
559.851	13.71
560.047	14.22
560.243	14.76
560.439	14.6
560.635	14.46
560.831	14.01
561.027	14.63
561.223	14.67
561.419	14.03
561.615	13.78
561.811	14.02
562.007	14.2
562.203	14.14
562.399	14.29
562.595	14.36
562.791	15.67
562.987	16.77
563.183	16.69
563.379	17.01
563.575	17.18
563.771	17.07
563.966	16.99
564.162	17.01
564.358	17.23
564.554	16.6
564.75	16.26
564.945	15.7
565.141	14.61
565.337	14.56
565.533	14.28
565.728	14.56
565.924	14.82
566.12	14.27
566.315	14.54
566.511	14.06
566.707	13.96
566.902	13.94
567.098	13.94
567.293	14
567.489	13.76
567.684	13.87
567.88	14.07
568.076	13.92
568.271	14.23
568.467	13.41
568.662	14.04
568.858	14.09
569.053	13.82
569.248	14.11
569.444	14.56
569.639	14.87
569.835	14.34
570.03	14.37
570.225	14.4
570.421	14.76
570.616	15.5
570.812	15.39
571.007	16.16
571.202	16.37
571.397	15.99
571.593	16.07
571.788	15.6
571.983	16.06
572.178	15.39
572.374	15.72
572.569	15.4
572.764	14.73
572.959	14.09
573.154	14.23
573.35	14.68
573.545	14.64
573.74	15.19
573.935	15.36
574.13	15.4
574.325	15.74
574.52	15.92
574.715	16.03
574.91	16.78
575.105	17.11
575.3	16.86
575.495	17.01
575.69	17.32
575.885	16.55
576.08	16.6
576.275	16.86
576.47	16.4
576.665	16.44
576.86	16.88
577.055	16.95
577.25	16.97
577.444	16.97
577.639	17.24
577.834	17.5
578.029	17.81
578.224	18.43
578.418	18.21
578.613	19.13
578.808	18.89
579.003	18.33
579.197	17.52
579.392	17.86
579.587	17.66
579.781	17.11
579.976	16.76
580.171	16.75
580.365	16.52
580.56	16.33
580.755	16.4
580.949	16.11
581.144	16.53
581.338	17.09
581.533	17.1
581.727	16.78
581.922	17.28
582.116	17.96
582.311	17.58
582.505	17.19
582.7	17.83
582.894	17.17
583.089	17.38
583.283	17.43
583.478	17.91
583.672	17.13
583.866	17.62
584.061	16.61
584.255	15.19
584.449	15.93
584.644	16.44
584.838	16.25
585.032	16.81
585.226	16.49
585.421	16.49
585.615	15.52
585.809	16.03
586.003	15.05
586.198	15.51
586.392	15.96
586.586	15.76
586.78	14.77
586.974	14.95
587.168	15.29
587.363	15.91
587.557	15.35
587.751	14.87
587.945	14.15
588.139	15.1
588.333	14.99
588.527	15.5
588.721	15.52
588.915	16.18
589.109	15.37
589.303	15.37
589.497	15.3
589.691	15.39
589.885	16.34
590.079	17.45
590.273	17.71
590.466	18.06
590.66	17.53
590.854	17.77
591.048	17.65
591.242	18.64
591.436	17.94
591.629	17.01
591.823	17.42
592.017	17.79
592.211	17.37
592.404	16.7
592.598	17.37
592.792	17.81
592.986	18.33
593.179	19.13
593.373	18.61
593.567	18.34
593.76	18.87
593.954	18.56
594.147	17.98
594.341	18.05
594.535	18.42
594.728	17.66
594.922	17.75
595.115	17.37
595.309	16.95
595.502	17.37
595.696	17.89
595.889	17.46
596.083	17.25
596.276	17.39
596.47	17.95
596.663	16.98
596.856	17.03
597.05	16.78
597.243	17.28
597.437	17.12
597.63	17.48
597.823	17.53
598.017	17.65
598.21	18.83
598.403	18.65
598.596	18.16
598.79	19.72
598.983	20.44
599.176	20.93
599.369	20
599.563	19.22
599.756	18.76
599.949	18.48
600.142	18.9
600.335	18.58
600.528	18.06
600.722	18.39
600.915	17.42
601.108	16.4
601.301	16.3
601.494	16.65
601.687	17.17
601.88	16.66
602.073	16.85
602.266	17.44
602.459	17.67
602.652	17.63
602.845	17.67
603.038	17.71
603.231	18.43
603.424	18.73
603.617	18.68
603.809	19.01
604.002	19.19
604.195	19.05
604.388	18.99
604.581	18.52
604.774	18.9
604.966	19.06
605.159	19.18
605.352	18.7
605.545	18.58
605.737	17.85
605.93	18.02
606.123	17.8
606.316	18.1
606.508	17.87
606.701	17.78
606.894	18.48
607.086	17.73
607.279	17.91
607.471	18.1
607.664	18.07
607.857	18.66
608.049	18.49
608.242	18.85
608.434	18.59
608.627	18.51
608.819	18.89
609.012	18.45
609.204	18.44
609.397	18.66
609.589	18.74
609.782	18.98
609.974	18.62
610.166	18.49
610.359	17.9
610.551	18.21
610.743	17.99
610.936	17.98
611.128	17.26
611.32	17.58
611.513	17.17
611.705	16.99
611.897	16.18
612.09	16.96
612.282	17.62
612.474	18.02
612.666	18.21
612.858	18.02
613.051	17.26
613.243	18.19
613.435	17.76
613.627	18.03
613.819	19.68
614.011	19.53
614.203	18.94
614.395	18.35
614.588	19.43
614.78	18.83
614.972	18.91
615.164	18.53
615.356	19.62
615.548	19.46
615.74	19.39
615.932	18.62
616.124	17.94
616.315	18.44
616.507	17.88
616.699	16.88
616.891	16.36
617.083	17.22
617.275	17.43
617.467	16.55
617.659	17.56
617.85	18.26
618.042	18.48
618.234	19.45
618.426	20.24
618.618	20.69
618.809	21.38
619.001	21.77
619.193	20.92
619.384	21.19
619.576	21.78
619.768	20.78
619.959	20.39
620.151	20.34
620.343	19.59
620.534	18.24
620.726	18.36
620.917	18.17
621.109	17.98
621.301	17.97
621.492	18.83
621.684	18.21
621.875	19.7
622.067	19.03
622.258	18.66
622.45	19.78
622.641	19.94
622.832	20.02
623.024	20.06
623.215	21.27
623.407	20.97
623.598	19.9
623.789	21.04
623.981	19.19
624.172	19.72
624.363	19.54
624.555	18.78
624.746	19.9
624.937	20.06
625.129	20.38
625.32	20.23
625.511	20.99
625.702	20.89
625.893	18.96
626.085	19.97
626.276	19.64
626.467	18.87
626.658	19.23
626.849	18.31
627.04	18.39
627.231	17.08
627.422	17.79
627.614	17.58
627.805	17.45
627.996	18.76
628.187	19.03
628.378	19.26
628.569	19.97
628.76	20.63
628.951	19.93
629.142	20.97
629.332	22.24
629.523	20.93
629.714	21.01
629.905	21.64
630.096	21.43
630.287	20.71
630.478	21.07
630.669	21.99
630.859	21.78
631.05	22.26
631.241	20.05
631.432	19.51
631.623	19.99
631.813	19.79
632.004	20.39
632.195	19.59
632.385	20.16
632.576	20.04
632.767	19.92
632.957	19.98
633.148	20.44
633.339	21.34
633.529	21.73
633.72	21.36
633.91	21.75
634.101	20.76
634.292	21.19
634.482	20.83
634.673	21.24
634.863	20.11
635.054	20.64
635.244	20.24
635.435	20.61
635.625	20.12
635.815	19.4
636.006	18.56
636.196	19.31
636.387	18.5
636.577	18.66
636.767	18.3
636.958	17.95
637.148	17.73
637.338	17.14
637.529	16.82
637.719	16.6
637.909	17.7
638.099	18.84
638.29	17.3
638.48	18.63
638.67	19.26
638.86	19.14
639.05	20.26
639.241	20.55
639.431	21.52
639.621	21.15
639.811	21.7
640.001	21.33
640.191	21.25
640.381	22.75
640.571	21.28
640.761	20.72
640.951	20.16
641.141	18.24
641.331	16.69
641.521	17.14
641.711	18.81
641.901	19.28
642.091	19.33
642.281	17.71
642.471	16.71
642.661	18.82
642.851	19.14
643.041	18.62
643.231	19.44
643.42	19.35
643.61	18.26
643.8	16.9
643.99	17.04
644.18	15.87
644.369	16.61
644.559	17.39
644.749	15.85
644.939	15.51
645.128	16.63
645.318	18.03
645.508	18.7
645.697	17.81
645.887	17.77
646.076	17.41
646.266	18.27
646.456	18.74
646.645	19.19
646.835	21.16
647.024	19.7
647.214	19.88
647.403	18.86
647.593	18.3
647.782	21.12
647.972	19.89
648.161	19.75
648.351	19.34
648.54	19.79
648.73	19.82
648.919	19.35
649.108	21.31
649.298	19.73
649.487	21.11
649.677	21.37
649.866	21
650.055	22.34
650.244	21.61
650.434	22.36
650.623	22.61
650.812	22.46
651.002	20.81
651.191	19.02
651.38	19.32
651.569	17.97
651.758	17.76
651.947	16.99
652.137	17.18
652.326	18.21
652.515	17.78
652.704	16.06
652.893	15.39
653.082	17.68
653.271	19.66
653.46	20.81
653.649	20.69
653.838	20.11
654.027	18.97
654.216	18.14
654.405	17.37
654.594	17.24
654.783	17.05
654.972	18.79
655.161	16.78
655.35	15.27
655.539	15.5
655.728	17.34
655.916	19.75
656.105	19.62
656.294	19.53
656.483	20.46
656.672	20.19
656.86	21.09
657.049	20.03
657.238	21.23
657.427	21.37
657.615	21.57
657.804	20.43
657.993	19.27
658.181	20.48
658.37	21.5
658.559	21.6
658.747	22.35
658.936	23.26
659.125	23.49
659.313	22.44
659.502	22.54
659.69	21.99
659.879	22.62
660.067	23.11
660.256	23.39
660.444	22.58
660.633	21.85
660.821	21.87
661.01	21.15
661.198	21.53
661.387	22.17
661.575	22.66
661.763	23.03
661.952	22.29
662.14	19.89
662.328	18.91
662.517	19.38
662.705	20.09
662.893	21.23
663.082	21.96
663.27	20.66
663.458	19.6
663.646	18.73
663.834	17.63
664.023	18.89
664.211	21.08
664.399	22.84
664.587	22.15
664.775	21.83
664.963	19.9
665.152	20.97
665.34	21.2
665.528	23.25
665.716	25.62
665.904	25.96
666.092	24.53
666.28	23.9
666.468	23.02
666.656	24.42
666.844	25.41
667.032	25.99
667.22	23.98
667.408	23.77
667.596	24.42
667.784	22.07
667.971	21.81
668.159	22.7
668.347	23.43
668.535	22.49
668.723	20.9
668.911	18.82
669.098	19
669.286	18.8
669.474	19.47
669.662	16.52
669.849	17.36
670.037	17.57
670.225	16.25
670.413	15.82
670.6	16.69
670.788	16.09
670.976	18.6
671.163	17.77
671.351	18.52
671.538	18.55
671.726	19.83
671.913	18.82
672.101	18.92
672.289	19.92
672.476	20.78
672.664	21.29
672.851	22.34
673.039	20.32
673.226	21.57
673.413	20.05
673.601	20.16
673.788	21.19
673.976	20.71
674.163	21.23
674.35	20.43
674.538	19.49
674.725	19.26
674.912	20.04
675.1	19.56
675.287	19.96
675.474	19.85
675.662	18.61
675.849	17.79
676.036	19.81
676.223	19.95
676.411	20.51
676.598	20.99
676.785	20.79
676.972	19.38
677.159	19.72
677.346	18.67
677.533	19.53
677.721	20.24
677.908	21.47
678.095	20.35
678.282	20.32
678.469	19.58
678.656	18.18
678.843	17.56
679.03	19.05
679.217	19.64
679.404	20.14
679.591	19.63
679.778	19.85
679.964	18.3
680.151	18.57
680.338	18.55
680.525	18.97
680.712	21.02
680.899	21.4
681.086	20.98
681.272	21.4
681.459	20.69
681.646	21.17
681.833	21.17
682.02	20.7
682.206	22.49
682.393	23.23
682.58	23.11
682.766	22.15
682.953	23.36
683.14	24.02
683.326	23.18
683.513	24.6
683.7	25.47
683.886	25.73
684.073	25.35
684.259	23.22
684.446	20.59
684.632	22.47
684.819	23.14
685.005	22.74
685.192	22.51
685.378	23.3
685.565	23.33
685.751	21.92
685.938	21.47
686.124	21.18
686.31	21.6
686.497	22.51
686.683	21.4
686.87	20.23
687.056	18.97
687.242	18.25
687.429	17.67
687.615	16.46
687.801	16.89
687.987	16.36
688.174	17.58
688.36	18.86
688.546	18.52
688.732	19.34
688.918	20.9
689.105	22.84
689.291	22.67
689.477	21.29
689.663	21.95
689.849	21.45
690.035	22.02
690.221	23.35
690.407	21.13
690.593	22.94
690.779	22.31
690.965	21.15
691.151	20.16
691.337	20.85
691.523	23.05
691.709	21.55
691.895	22.89
692.081	23.41
692.267	23.4
692.453	24.26
692.639	23.3
692.825	23.28
693.011	23.69
693.196	21.39
693.382	20.65
693.568	20.81
693.754	20.75
693.94	21.99
694.125	20.81
694.311	20.11
694.497	21.54
694.682	22.03
694.868	21.79
695.054	20.09
695.239	22.34
695.425	22.51
695.611	21.44
695.796	21.68
695.982	22.45
696.168	22.92
696.353	21.95
696.539	21.36
696.724	20.9
696.91	21.48
697.095	22.44
697.281	22.72
697.466	22.65
697.652	22.34
697.837	22.66
698.023	20.68
698.208	20.92
698.393	21.55
698.579	21.29
698.764	20.55
698.949	20.72
699.135	20.47
699.32	18.92
699.505	19.48
699.691	19.36
699.876	19.27
700.061	19.25
700.246	18.95
700.432	17.75
700.617	17.79
700.802	19.07
700.987	18.54
701.172	19.9
701.358	20.03
701.543	18.73
701.728	20.76
701.913	20.26
702.098	21.74
702.283	19.01
702.468	17.95
702.653	19.02
702.838	20.23
703.023	21.53
703.208	18.62
703.393	19.86
703.578	22.85
703.763	25.02
703.948	26.43
704.133	23.33
704.318	26.34
704.503	29.08
704.688	27.16
704.873	24.25
705.057	22.19
705.242	22.8
705.427	22.56
705.612	22.05
705.797	18.71
705.981	19.63
706.166	19.94
706.351	20.13
706.536	21.67
706.72	23.14
706.905	27.58
707.09	26.65
707.274	27.8
707.459	28.98
707.644	28.65
707.828	28.6
708.013	27.84
708.197	28.65
708.382	27.95
708.567	26.88
708.751	25.99
708.936	23.02
709.12	24.71
709.305	23.38
709.489	20.73
709.673	20.05
709.858	20.09
710.042	19.41
710.227	21.5
710.411	21.83
710.596	21.79
710.78	22.24
710.964	22.79
711.149	23
711.333	23.72
711.517	25.7
711.702	24.94
711.886	26.44
712.07	26.88
712.254	24
712.438	23.11
712.623	22.88
712.807	21.89
712.991	18.97
713.175	17.23
713.359	17.5
713.544	16.4
713.728	16.13
713.912	13.58
714.096	12.7
714.28	13.36
714.464	16.11
714.648	16.47
714.832	15.19
715.016	18.91
715.2	18.95
715.384	18.52
715.568	20.39
715.752	20.06
715.936	19.93
716.12	20.27
716.304	21.8
716.488	21.46
716.671	20.26
716.855	23.94
717.039	21.86
717.223	21.54
717.407	20.41
717.59	18.65
717.774	18.14
717.958	18.19
718.142	15.6
718.325	13.16
718.509	8.44
718.693	4.06
718.877	2.8
719.06	3.44
719.244	1.27
719.428	4.79
719.611	6.98
719.795	6.14
719.978	10.26
720.162	14.49
720.345	16.6
720.529	18.96
720.713	22.6
720.896	20.93
721.08	22.31
721.263	22.8
721.446	20.73
721.63	19.64
721.813	21.45
721.997	17.84
722.18	19.29
722.364	22.13
722.547	20.41
722.73	21.28
722.914	21.33
723.097	22.07
723.28	23.2
723.464	25.53
723.647	25.05
723.83	25.76
724.013	26.59
724.197	25.5
724.38	22.24
724.563	23.68
724.746	22.46
724.929	24.45
725.112	23.96
725.296	26.01
725.479	25.17
725.662	24.25
725.845	24.17
726.028	24
726.211	21.89
726.394	21.04
726.577	21.6
726.76	22.6
726.943	22.1
727.126	17.83
727.309	18.53
727.492	19.59
727.675	19.64
727.858	19.63
728.041	20.55
728.224	20.72
728.407	21.07
728.589	23.91
728.772	22.24
728.955	22.33
729.138	24.01
729.321	22.71
729.503	19.55
729.686	21.29
729.869	24.62
730.052	24.7
730.234	24.22
730.417	23.26
730.6	17.2
730.782	20.2
730.965	21.25
731.148	23.96
731.33	24.77
731.513	25.13
731.695	23.89
731.878	21.23
732.061	20.68
732.243	22.01
732.426	23.8
732.608	26.95
732.791	25.86
732.973	24.97
733.156	22.79
733.338	23.47
733.52	26.78
733.703	27.31
733.885	28.16
734.068	29.21
734.25	28.12
734.432	27.57
734.615	29.54
734.797	30.79
734.979	33.98
735.162	34.71
735.344	31.78
735.526	32.3
735.708	35.5
735.891	34.78
736.073	33.58
736.255	35.57
736.437	40.16
736.619	40.28
736.802	37.4
736.984	33.96
737.166	34.93
737.348	34.98
737.53	33.81
737.712	29.93
737.894	28.89
738.076	26.78
738.258	26.92
738.44	22.92
738.622	22.83
738.804	24.75
738.986	24.89
739.168	24.04
739.35	23.26
739.532	21.66
739.714	22.02
739.896	20.85
740.078	27.41
740.259	28.16
740.441	32.84
740.623	32.97
740.805	34.14
740.987	33.42
741.168	35.62
741.35	36.69
741.532	37.74
741.714	35.74
741.895	36.83
742.077	35.02
742.259	34.08
742.44	33.28
742.622	28.37
742.804	24.08
742.985	20.26
743.167	17.07
743.348	18.96
743.53	16.82
743.711	20.83
743.893	23.41
744.075	19.75
744.256	20.42
744.438	18.42
744.619	22.29
744.8	25.89
744.982	33.44
745.163	34.08
745.345	31.89
745.526	29.59
745.707	28.62
745.889	26.39
746.07	27.17
746.252	23.99
746.433	18.9
746.614	18.79
746.795	17.95
746.977	13.65
747.158	16.75
747.339	16.44
747.52	22.25
747.702	20.63
747.883	24.62
748.064	23.55
748.245	26.86
748.426	28.03
748.607	21.06
748.788	16.94
748.97	15.32
749.151	7.89
749.332	4.66
749.513	5.95
749.694	9.43
749.875	7.75
750.056	13.23
750.237	12.72
750.418	17.11
750.599	26.23
750.78	35.03
750.96	37.41
751.141	41.4
751.322	47.3
751.503	46.08
751.684	42.99
751.865	46.02
752.046	40.89
752.226	36.68
752.407	38.99
752.588	39.97
752.769	33.41
752.949	33.43
753.13	36.66
753.311	32.39
753.492	28.23
753.672	24.82
753.853	19.83
754.034	19.22
754.214	21.58
754.395	18.74
754.575	14.46
754.756	12.17
754.937	16.47
755.117	15.35
755.298	20.99
755.478	21.29
755.659	25.86
755.839	26.21
756.02	28.32
756.2	28.19
756.381	24.86
756.561	21.57
756.741	26.09
756.922	21.33
757.102	20.62
757.283	17.89
757.463	15.51
757.643	19.16
757.823	17.15
758.004	15.11
758.184	16.46
758.364	17.28
758.545	21.56
758.725	21.2
758.905	22.21
759.085	19.26
759.265	17.68
759.446	23.2
759.626	19.88
759.806	23.18
759.986	23.35
760.166	25.79
760.346	27.54
760.526	26.66
760.706	24.86
760.886	22.76
761.066	24.1
761.246	25.5
761.426	24
761.606	24.76
761.786	23.84
761.966	24.84
762.146	24.84
762.326	23.65
762.506	23.72
762.686	24.08
762.866	24.56
763.046	23.36
763.225	22.45
763.405	23.78
763.585	22.59
763.765	21.91
763.945	23.83
764.124	22.52
764.304	25.77
764.484	25.18
764.664	26.01
764.843	25
765.023	26.55
765.203	27.39
765.382	29.59
765.562	28.17
765.741	30.43
765.921	30.88
766.101	31.08
766.28	25.95
766.46	27.89
766.639	28.65
766.819	31.4
766.998	38.03
767.178	40.33
767.357	34.28
767.537	38.14
767.716	37.19
767.896	30.27
768.075	27.92
768.254	30.21
768.434	37.35
768.613	32.85
768.792	30.84
768.972	26.46
769.151	25.17
769.33	25.71
769.51	22.74
769.689	23.8
769.868	20.62
770.047	25.46
770.226	25.29
770.406	21.86
770.585	27.91
770.764	31.74
770.943	29.4
771.122	33.14
771.301	34.87
771.48	42.15
771.66	44.33
771.839	59.77
772.018	61.27
772.197	64.68
772.376	59.98
772.555	52.79
772.734	55.95
772.913	50.41
773.092	55.03
773.271	55.97
773.449	53.73
773.628	50.75
773.807	46.57
773.986	46.97
774.165	44.15
774.344	52
774.523	56.66
774.701	51.8
774.88	52.86
775.059	48.03
775.238	54.44
775.417	42.09
775.595	47.37
775.774	44.5
775.953	40.94
776.131	37.19
776.31	28.38
776.489	26.44
776.667	24.54
776.846	26.17
777.025	21.21
777.203	17.84
777.382	26.72
777.56	22.26
777.739	20.52
777.917	23.56
778.096	33.07
778.274	36.21
778.453	35.02
778.631	31.09
778.81	39.08
778.988	45.71
779.166	45.19
779.345	38.05
779.523	38.76
779.702	39.95
779.88	40.6
780.058	37.69
780.237	33.11
780.415	31.83
780.593	37.66
780.771	30.11
780.95	25.88
781.128	24.01
781.306	31.88
781.484	32.22
781.662	27.8
781.841	30.31
782.019	28.3
782.197	37.34
782.375	42.69
782.553	40.01
782.731	40.74
782.909	47.03
783.087	49.07
783.265	38.23
783.443	36.3
783.621	32.28
783.799	32.46
783.977	36.01
784.155	26.66
784.333	25.41
784.511	28.34
784.689	19.38
784.867	21.61
785.045	15.21
785.223	22.26
785.4	28.33
785.578	35.31
785.756	30.64
785.934	17.33
786.112	10.93
786.289	14.44
786.467	7.43
786.645	13.41
786.823	7.97
787	11.47
787.178	13.68
787.356	10.39
787.533	2
787.711	-3.18
787.889	8.56
788.066	18.47
788.244	9.43
788.421	23.5
788.599	23.35
788.776	16.55
788.954	21.29
789.131	22.98
789.309	18.33
789.486	20.71
789.664	21.25
789.841	16.92
790.019	11.68
790.196	19.37
790.373	0.11
790.551	-0.93
790.728	0.06
790.906	-18.87
791.083	-26.28
791.26	-22.65
791.437	-17.61
791.615	-19.46
791.792	-27.07
791.969	-26.19
792.146	-23.57
792.324	-6.31
792.501	-2.32
792.678	3.24
792.855	18.73
793.032	26.48
793.209	38.11
793.387	47.71
793.564	63.35
793.741	74.81
793.918	73.7
794.095	62.2
794.272	60.02
794.449	50.82
794.626	55.21
794.803	48.84
794.98	53.83
795.157	53.38
795.334	52.78
795.511	44.33
795.688	40.02
795.864	37.02
796.041	39.75
796.218	44.31
796.395	46.31
796.572	38.6
796.749	41.59
796.925	37.59
797.102	35.02
797.279	35.8
797.456	31.86
797.632	37.68
797.809	42.44
797.986	43.65
798.162	41.38
798.339	44.83
798.516	53.82
798.692	51.97
798.869	56.88
799.046	58.93
799.222	62.98
799.399	72.95
799.575	64.92
799.752	75.01
799.928	71.09
800.105	63.94
800.281	64.35
800.458	47.53
800.634	47.82
800.811	42.58
800.987	27.86
801.163	20.74
801.34	14.72
801.516	8.46
801.692	-9.24
801.869	-11.98
802.045	17.28
802.221	14.37
802.398	30.12
802.574	24.67
802.75	33.85
802.926	59.6
803.103	59.31
803.279	65.46
803.455	75
803.631	63.66
803.807	65.92
803.983	68.14
804.16	73.76
804.336	100.24
804.512	93.19
804.688	76.34
804.864	79.35
805.04	67.63
805.216	65.08
805.392	44.51
805.568	35.32
805.744	13.14
805.92	-11.33
806.096	-15.84
806.272	-25.91
806.448	-30.48
806.623	1.57
806.799	7.68
806.975	24.89
807.151	21.85
807.327	39.3
807.503	51.52
807.678	61.79
807.854	66.72
808.03	71.38
808.206	55.04
808.381	58.51
808.557	52.64
808.733	48.27
808.908	40.95
809.084	31.41
809.26	23.19
809.435	16.32
809.611	-1.36
809.787	5.78
809.962	-10.24
810.138	-5.22
810.313	-5.08
810.489	-15.11
810.664	-11.41
810.84	11.74
811.015	15.14
811.191	10.69
811.366	13.12
811.542	33.81
811.717	16.56
811.892	23.47
812.068	31.02
812.243	7.11
812.419	15.6
812.594	17.56
812.769	-15.89
812.944	-6.2
813.12	0.32
813.295	-3.92
813.47	-27.98
813.645	-14.48
813.821	-11.51
813.996	-57.48
814.171	22.51
814.346	-6.27
814.521	27.75
814.697	36.82
814.872	47.22
815.047	33.72
815.222	18.84
815.397	9.38
815.572	-5.47
815.747	-15.92
815.922	-8.09
816.097	-27.46
816.272	-6.17
816.447	-3.01
816.622	13.01
816.797	1.59
816.972	13.26
817.147	25.84
817.322	36.75
817.496	43.67
817.671	43.36
817.846	34.29
818.021	33.74
818.196	30.46
818.371	32.48
818.545	4.41
818.72	13.81
818.895	14.77
819.069	7.3
819.244	3.58
819.419	-7.89
819.594	-2.68
819.768	5.49
819.943	11.17
820.117	15.66
820.292	16.89
820.467	21.48
820.641	18.58
820.816	15.28
820.99	16.83
821.165	17.59
821.339	18.92
821.514	18.5
821.688	18.05
821.863	16.62
822.037	15.94
822.212	14.28
822.386	12.61
822.56	13.66
822.735	15.08
822.909	12.8
823.084	13.56
823.258	15.94
823.432	16.32
823.606	16.26
823.781	19.49
823.955	19.69
824.129	16.27
824.303	14.69
824.478	14.17
824.652	16.24
824.826	15.11
825	14.09
825.174	9.36
825.348	1.41
825.523	5.17
825.697	1.07
825.871	2.95
826.045	6.8
826.219	10.46
826.393	11.85
826.567	11.01
826.741	18.19
826.915	20.9
827.089	26.57
827.263	38.64
827.437	36.24
827.611	43.67
827.784	45.6
827.958	39.08
828.132	40.35
828.306	42.35
828.48	42.21
828.654	36.31
828.827	31.94
829.001	33.4
829.175	22.78
829.349	9.18
829.522	5.31
829.696	-13.3
829.87	5.24
830.044	1.56
830.217	9.6
830.391	18.37
830.565	40.49
830.738	54.15
830.912	45.91
831.085	44.96
831.259	46.49
831.432	46.63
831.606	55.95
831.779	52.58
831.953	46.53
832.126	44.2
832.3	34.32
832.473	22.45
832.647	14.29
832.82	15.45
832.994	16.86
833.167	26.64
833.34	22.76
833.514	12.5
833.687	13.91
833.86	18.2
834.034	12.92
834.207	5.97
834.38	15.73
834.553	13.95
834.727	11.72
834.9	10.39
835.073	4.26
835.246	7.35
835.419	17.54
835.593	13.87
835.766	22.38
835.939	27.13
836.112	35.74
836.285	18.57
836.458	15.16
836.631	12.05
836.804	12.58
836.977	15.09
837.15	23.68
837.323	14.08
837.496	31.04
837.669	28.38
837.842	21.92
838.015	31.73
838.188	42.63
838.361	41.75
838.533	52.12
838.706	61.78
838.879	69.37
839.052	57.87
839.225	73.7
839.398	43.5
839.57	29.82
839.743	37.2
839.916	22.73
840.088	14.68
840.261	22.55
840.434	17.18
840.607	9.34
840.779	-7.98
840.952	-10.96
841.124	-47.73
841.297	-15.5
841.47	-20.77
841.642	-36.96
841.815	-27.7
841.987	-34.7
842.16	-40.04
842.332	-142.2
842.505	23.94
842.677	41.18
842.85	433.33
843.022	-1462.5
843.194	477.27
843.367	-364.52
843.539	-188.24
843.712	-273.68
843.884	-170.37
844.056	-338.18
844.229	119.71
844.401	75.65
844.573	117.47
844.745	98.84
844.918	50.44
845.09	77.41
845.262	67.75
845.434	65.35
845.606	92.23
845.779	145.55
845.951	200.74
846.123	210.13
846.295	214.87
846.467	221.49
846.639	173.88
846.811	167.71
846.983	313.57
847.155	-150.76
847.327	-139.66
847.499	2246.67
847.671	-216
847.843	-940.91
848.015	-180.61
848.187	-94.93
848.359	-290
848.531	-66.67
848.703	10.22
848.875	40.7
849.047	37.43
849.218	43.82
849.39	80.42
849.562	85.78
849.734	130.92
849.905	112.36
850.077	74.37
850.249	226
850.421	-238.71
850.592	31.79
850.764	44.16
850.936	53.24
851.107	80.55
851.279	84.31
851.451	80.47
851.622	79.55
851.794	77.55
851.965	73.56
852.137	64.18
852.308	64.84
852.48	73
852.651	42.39
852.823	73.95
852.994	95.49
853.166	76.3
853.337	77.47
853.509	100.7
853.68	64.15
853.851	254.05
854.023	37.02
854.194	81.76
854.365	56.43
854.537	112.2
854.708	83.71
854.879	57.53
855.05	108.12
855.222	-700
855.393	-166.04
855.564	19.42
855.735	-191.3
855.906	29.85
856.078	22.65
856.249	40.43
856.42	93.8
856.591	292.68
856.762	240.26
856.933	120.49
857.104	55.61
857.275	-54.1
857.446	66.77
857.617	-1.17
857.788	32.89
857.959	97.54
858.13	150
858.301	412.5
858.472	165.79
858.643	308.64
858.814	168.85
858.985	246.15
859.155	346
859.326	128.85
859.497	89.24
859.668	51.28
859.839	67.15
860.009	-50
860.18	114.16
860.351	-193.33
860.522	-816.67
860.692	405.71
860.863	-11800
861.034	-360.26
861.204	54.55
861.375	59.79
861.546	-202.38
861.716	-2458.33
861.887	-431.25
862.057	1875
862.228	-688.89
862.398	-1037.5
862.569	410.13
862.739	357.6
862.91	1739.39
863.08	207.41
863.251	-528.57
863.421	-137
863.592	490.32
863.762	1504
863.932	449.51
864.103	229.79
864.273	289.74
864.443	607.59
864.614	221.03
864.784	214.6
864.954	950
865.125	239.61
865.295	117.12
865.465	163.89
865.635	134.85
865.805	275
865.976	-796.43
866.146	-36.82
866.316	-15.22
866.486	-53.97
866.656	-73.23
866.826	25.22
866.996	11.3
867.166	1.29
867.336	34.71
867.506	-14.56
867.676	-41.26
867.846	7.14
868.016	-617.07
868.186	-122.5
868.356	-1007.5
868.526	-376.25
868.696	2200
868.866	-42.41
869.036	-54.87
869.206	-90.41
869.376	-44.19
869.545	-65.41
869.715	-137.84
869.885	27.78
870.055	0
870.224	2800
870.394	-51.13
870.564	-80.56
870.734	17.86
870.903	23.31
871.073	24.21
871.243	44.79
871.412	64.02
871.582	100.59
871.751	332.65
871.921	72.96
872.091	77.21
872.26	43.18
872.43	41.44
872.599	35.35
872.769	27.79
872.938	7.14
873.108	42.19
873.277	43.28
873.446	36.78
873.616	46.91
873.785	-3.62
873.955	21.11
874.124	35.66
874.293	64.29
874.463	66.17
874.632	77.98
874.801	72.9
874.971	63.4
875.14	81.45
875.309	102.18
875.478	100.44
875.647	100.7
875.817	55
875.986	34.66
876.155	6.4
876.324	2.74
876.493	15.22
876.662	59.09
876.831	65
877	24.18
877.17	34.45
877.339	47.8
877.508	61.49
877.677	108.19
877.846	110.63
878.015	106.95
878.184	118.77
878.352	290.11
878.521	115.38
878.69	148.19
878.859	119.29
879.028	195.29
879.197	141.72
879.366	88.69
879.534	49.16
879.703	9.48
879.872	11.51
880.041	23.42
880.21	26.19
880.378	23.46
880.547	17.59
880.716	12.98
880.884	19.49
881.053	14.23
881.222	11.39
881.39	11.51
881.559	17.29
881.727	14.91
881.896	12.14
882.065	13.78
882.233	10.06
882.402	10.84
882.57	18.78
882.739	12.73
882.907	19.92
883.076	22.49
883.244	30.97
883.412	27.3
883.581	37.58
883.749	50.61
883.918	59.07
884.086	55.09
884.254	44.43
884.423	26.63
884.591	39.12
884.759	16.09
884.927	9.11
885.096	4.71
885.264	26.56
885.432	-4.18
885.6	-25.5
885.769	-14.52
885.937	0.39
886.105	59.42
886.273	56.52
886.441	55.39
886.609	127.05
886.777	98.98
886.945	51.37
887.113	23.98
887.281	96.55
887.449	-728.57
887.617	515.38
887.785	250
887.953	-545.71
888.121	-149.04
888.289	-141.89
888.457	-473.77
888.625	-131.8
888.793	-35.48
888.961	-46.57
889.129	-40.23
889.296	-144.9
889.464	-79.02
889.632	-14.23
889.8	4.85
889.967	49.5
890.135	58.82
