Data from JASIL_2969_Reflection_1.txt Node
Date: Sat Nov 07 21:38:33 EST 2015
User: Geneva
Spectrometer: USB4E03002
Autoset integration time: false
Trigger mode: 4
Integration Time (sec): 1.000000E-1
Scans to average: 10
Electric dark correction enabled: true
Nonlinearity correction enabled: false
Boxcar width: 5
Stray light correction enabled: false
XAxis mode: Wavelengths
Stop averaging: false
Number of Pixels in Spectrum: 3648
>>>>>Begin Spectral Data<<<<<
177.575	288.05
177.794	23.6
178.014	191.12
178.233	81.19
178.452	25.67
178.672	125.6
178.891	151.68
179.11	136.78
179.33	183.47
179.549	199.26
179.768	388.78
179.987	292.58
180.207	8.37
180.426	29.1
180.645	80.85
180.864	75.43
181.084	111.16
181.303	135.88
181.522	100.06
181.741	123.11
181.96	96.41
182.179	104.99
182.398	89.2
182.618	68.39
182.837	73.01
183.056	42.89
183.275	46.91
183.494	42.82
183.713	41.05
183.932	52
184.151	22.67
184.37	50.07
184.589	66.46
184.808	83.85
185.027	64.54
185.246	57.79
185.465	56.01
185.684	47.09
185.903	46.62
186.122	45.64
186.341	39.1
186.56	41.35
186.779	35.19
186.998	22.36
187.216	36.05
187.435	35.29
187.654	44.34
187.873	56.07
188.092	59.88
188.311	45.04
188.53	51.68
188.748	56.56
188.967	41.39
189.186	33.59
189.405	31.08
189.623	-9.26
189.842	21.74
190.061	22.87
190.28	18.83
190.498	21.22
190.717	21.02
190.936	6.58
191.154	-46.26
191.373	-53.92
191.592	-99.05
191.81	460.15
192.029	-117.87
192.248	-318.21
192.466	125.18
192.685	112.78
192.904	97.9
193.122	90.08
193.341	143.24
193.559	126.27
193.778	107.77
193.996	88.58
194.215	71.03
194.433	46.73
194.652	39.76
194.87	37.82
195.089	39.72
195.307	44.45
195.526	47.35
195.744	47.73
195.963	44.46
196.181	45.75
196.399	38.73
196.618	35.08
196.836	48.77
197.055	54.57
197.273	45.17
197.491	48.34
197.71	57.31
197.928	64.43
198.146	70.59
198.365	66.65
198.583	54.93
198.801	68.26
199.019	71.89
199.238	57.18
199.456	42.52
199.674	43.05
199.892	51.94
200.111	12.16
200.329	23.01
200.547	-1.4
200.765	0.92
200.983	7.91
201.202	-5.42
201.42	7.42
201.638	-1.04
201.856	-0.1
202.074	9.83
202.292	2.78
202.51	11.15
202.728	-16.86
202.946	-4.87
203.165	-10.28
203.383	-29.53
203.601	-12.56
203.819	-20.77
204.037	5.54
204.255	23.48
204.473	20.54
204.691	5.28
204.909	-3.45
205.127	5.98
205.345	7.45
205.562	-1.72
205.78	11.21
205.998	8.9
206.216	16.11
206.434	8.18
206.652	0.98
206.87	8.61
207.088	12.44
207.306	17.49
207.523	32.81
207.741	33.64
207.959	43.49
208.177	32.67
208.395	22.74
208.612	5.81
208.83	16.6
209.048	19.69
209.266	-3.47
209.483	-30.33
209.701	-72.97
209.919	-111.68
210.136	-88.7
210.354	-46.31
210.572	-16.83
210.79	-0.27
211.007	8.38
211.225	7.1
211.442	8.75
211.66	21.34
211.878	17.09
212.095	54.04
212.313	65.38
212.53	67.78
212.748	64.44
212.966	60.45
213.183	64.48
213.401	67.88
213.618	70.81
213.836	67.61
214.053	62.82
214.271	70.26
214.488	29.22
214.705	13.56
214.923	-0.16
215.14	23.27
215.358	27.4
215.575	18.17
215.793	20.42
216.01	5.22
216.227	11.52
216.445	7.4
216.662	10.65
216.879	25.81
217.097	29.03
217.314	32.79
217.531	22.93
217.749	14.41
217.966	31.32
218.183	20.69
218.4	21.98
218.618	10.49
218.835	18.01
219.052	17.45
219.269	13.32
219.487	13.46
219.704	11.34
219.921	13.2
220.138	23.86
220.355	21.25
220.572	18.92
220.79	15.23
221.007	20.45
221.224	20.21
221.441	20.28
221.658	19.66
221.875	21.01
222.092	19.9
222.309	18.02
222.526	7.8
222.743	7.39
222.96	6.23
223.177	12.6
223.394	11.62
223.611	11.14
223.828	9.68
224.045	12.22
224.262	8.37
224.479	7.16
224.696	6.86
224.913	10.21
225.13	10.88
225.347	13.04
225.564	9.46
225.781	7.86
225.997	9.52
226.214	8.56
226.431	8.21
226.648	9.85
226.865	10.25
227.082	9.99
227.298	9.84
227.515	8.97
227.732	7.61
227.949	8.14
228.165	8.6
228.382	7.75
228.599	8.14
228.816	8.17
229.032	7.56
229.249	8.1
229.466	8.24
229.682	8.11
229.899	8.63
230.116	10.16
230.332	10.82
230.549	11.24
230.765	12.49
230.982	13.11
231.199	13.38
231.415	13.61
231.632	12.56
231.848	12.84
232.065	12.08
232.281	11.04
232.498	10.54
232.714	9.87
232.931	7.76
233.147	6.89
233.364	7.43
233.58	8.82
233.797	8.53
234.013	9.04
234.23	9.56
234.446	10.04
234.662	12.03
234.879	12.67
235.095	12.38
235.312	14.82
235.528	13.87
235.744	12.86
235.961	11.96
236.177	11.99
236.393	11.27
236.61	10.41
236.826	9.8
237.042	8.55
237.258	7.84
237.475	7.26
237.691	6.87
237.907	7.63
238.123	8.49
238.339	7.83
238.556	8.09
238.772	7.92
238.988	8.43
239.204	9.09
239.42	8.84
239.636	9.03
239.853	10.1
240.069	9.82
240.285	9.94
240.501	9.53
240.717	9.96
240.933	10.17
241.149	10.25
241.365	10.38
241.581	10.08
241.797	9.74
242.013	9.58
242.229	9.68
242.445	9.7
242.661	9.4
242.877	9.84
243.093	10.17
243.309	10.01
243.525	9.91
243.741	9.67
243.957	9.59
244.173	9.98
244.388	9.37
244.604	8.68
244.82	8.63
245.036	8.54
245.252	8.32
245.468	7.82
245.683	7.74
245.899	7.83
246.115	7.74
246.331	7.98
246.547	7.97
246.762	8.22
246.978	8.17
247.194	8.13
247.409	8.26
247.625	8.06
247.841	7.91
248.057	8
248.272	8.01
248.488	8.17
248.703	7.86
248.919	8.2
249.135	7.89
249.35	7.88
249.566	7.91
249.782	7.51
249.997	7.74
250.213	7.81
250.428	8.04
250.644	7.83
250.859	7.17
251.075	7.45
251.29	6.93
251.506	6.82
251.721	7.03
251.937	6.92
252.152	7.29
252.368	6.97
252.583	7.13
252.798	6.69
253.014	6.54
253.229	7.01
253.445	6.9
253.66	7.26
253.875	7.4
254.091	6.94
254.306	7.09
254.521	6.11
254.737	6.59
254.952	6.03
255.167	6.4
255.383	6.94
255.598	7.14
255.813	6.62
256.028	6.02
256.244	5.99
256.459	5.96
256.674	5.96
256.889	6.58
257.104	6.6
257.32	6.52
257.535	6.17
257.75	6.06
257.965	5.83
258.18	5.94
258.395	5.96
258.61	5.97
258.826	5.98
259.041	5.94
259.256	5.99
259.471	5.88
259.686	6.11
259.901	6.16
260.116	6.24
260.331	6.34
260.546	6.33
260.761	6.45
260.976	6.53
261.191	6.67
261.406	6.6
261.621	6.33
261.836	6.26
262.05	6.12
262.265	6.15
262.48	6.09
262.695	6.03
262.91	6.08
263.125	5.66
263.34	6.22
263.555	6.23
263.769	6.24
263.984	6.59
264.199	7.08
264.414	7.12
264.629	6.65
264.843	6.41
265.058	6.23
265.273	6.6
265.488	6.79
265.702	6.32
265.917	6.55
266.132	6.66
266.346	6.6
266.561	6.39
266.776	6.37
266.99	6.81
267.205	6.73
267.42	6.44
267.634	5.88
267.849	5.91
268.063	5.63
268.278	5.06
268.492	4.72
268.707	4.61
268.922	4.67
269.136	4.39
269.351	4.3
269.565	4.74
269.78	4.96
269.994	5.16
270.209	5.02
270.423	5.63
270.637	6
270.852	6.26
271.066	6.25
271.281	6.04
271.495	6.43
271.709	6.29
271.924	6.12
272.138	6.18
272.353	6.05
272.567	6.01
272.781	5.83
272.996	5.71
273.21	5.5
273.424	5.44
273.638	5.62
273.853	5.39
274.067	5.24
274.281	5.31
274.495	5.26
274.71	5.45
274.924	5.75
275.138	5.57
275.352	5.55
275.566	5.89
275.781	5.77
275.995	5.82
276.209	5.78
276.423	5.84
276.637	5.61
276.851	5.68
277.065	5.67
277.279	5.43
277.493	5.52
277.707	5.26
277.921	5.3
278.135	5.39
278.349	5.27
278.563	5.1
278.777	5.1
278.991	5.34
279.205	5.48
279.419	5.42
279.633	5.31
279.847	5.35
280.061	5.51
280.275	5.23
280.489	5.44
280.703	5.33
280.917	5.1
281.131	5.17
281.344	5.01
281.558	4.81
281.772	5.01
281.986	5.3
282.2	5.29
282.414	5.42
282.627	5.5
282.841	5.42
283.055	5.49
283.269	5.73
283.482	5.65
283.696	5.62
283.91	5.8
284.123	5.55
284.337	5.24
284.551	5.12
284.764	4.91
284.978	5
285.192	4.91
285.405	4.99
285.619	5.04
285.833	5.03
286.046	5.05
286.26	5.05
286.473	5.1
286.687	5.38
286.9	5.55
287.114	5.59
287.327	5.6
287.541	5.71
287.754	5.59
287.968	5.2
288.181	5.39
288.395	5.62
288.608	5.39
288.822	5.56
289.035	5.67
289.248	5.48
289.462	5.69
289.675	5.52
289.889	5.4
290.102	5.65
290.315	6.03
290.529	6
290.742	5.81
290.955	5.94
291.169	5.84
291.382	5.68
291.595	5.74
291.808	5.59
292.022	5.97
292.235	5.96
292.448	5.93
292.661	5.99
292.875	5.96
293.088	6.01
293.301	6.23
293.514	6.31
293.727	6.35
293.94	6.46
294.153	6.5
294.367	6.15
294.58	6.04
294.793	5.78
295.006	5.79
295.219	5.98
295.432	5.89
295.645	5.86
295.858	5.81
296.071	5.9
296.284	5.83
296.497	5.94
296.71	6.08
296.923	6.24
297.136	6.49
297.349	6.56
297.562	6.47
297.775	6.7
297.988	6.62
298.201	6.71
298.414	6.7
298.626	6.86
298.839	6.91
299.052	7.02
299.265	6.96
299.478	6.71
299.691	6.64
299.903	6.47
300.116	6.17
300.329	6.32
300.542	6.35
300.755	6.43
300.967	6.45
301.18	6.36
301.393	6.21
301.605	6.21
301.818	6.33
302.031	6.33
302.243	6.54
302.456	6.99
302.669	6.89
302.881	7.1
303.094	6.95
303.307	7.01
303.519	7.14
303.732	7.34
303.944	7.65
304.157	7.53
304.37	7.57
304.582	7.73
304.795	7.43
305.007	7.58
305.22	7.53
305.432	7.61
305.645	7.39
305.857	7.32
306.069	7.4
306.282	7.19
306.494	7.32
306.707	7.3
306.919	7.31
307.132	7.29
307.344	7.13
307.556	6.9
307.769	6.9
307.981	7.01
308.193	6.96
308.406	6.68
308.618	6.76
308.83	6.76
309.043	6.9
309.255	6.8
309.467	6.87
309.679	7.02
309.892	7.13
310.104	7.26
310.316	7.38
310.528	7.57
310.74	7.82
310.953	8.03
311.165	8.17
311.377	7.95
311.589	7.94
311.801	7.82
312.013	7.86
312.225	7.87
312.437	7.94
312.649	7.89
312.862	7.82
313.074	7.7
313.286	7.49
313.498	7.38
313.71	7.77
313.922	7.76
314.134	7.91
314.346	7.92
314.558	7.98
314.77	7.84
314.982	7.58
315.193	7.7
315.405	7.62
315.617	7.54
315.829	7.57
316.041	7.52
316.253	7.52
316.465	7.61
316.677	7.45
316.888	7.54
317.1	7.55
317.312	8.05
317.524	7.89
317.736	8.1
317.947	8.3
318.159	8.35
318.371	8.37
318.583	8.56
318.794	8.69
319.006	8.99
319.218	8.83
319.43	8.57
319.641	8.43
319.853	8.47
320.064	8.45
320.276	8.59
320.488	8.68
320.699	8.55
320.911	8.47
321.123	8.55
321.334	8.47
321.546	8.56
321.757	8.79
321.969	8.58
322.18	8.68
322.392	8.54
322.603	8.47
322.815	8.57
323.026	8.82
323.238	8.82
323.449	8.88
323.661	8.66
323.872	8.82
324.083	8.93
324.295	9.05
324.506	8.98
324.718	9.07
324.929	9.11
325.14	9.03
325.352	9.07
325.563	9.17
325.774	8.99
325.986	9.15
326.197	9.08
326.408	9.08
326.62	9.08
326.831	9.18
327.042	9.14
327.253	9.01
327.464	9.12
327.676	8.83
327.887	8.92
328.098	8.92
328.309	8.96
328.52	8.91
328.732	9.25
328.943	9.42
329.154	9.55
329.365	9.69
329.576	9.88
329.787	9.83
329.998	10.09
330.209	10
330.42	10.21
330.631	10.16
330.842	10.37
331.053	10.3
331.264	10.26
331.475	10.2
331.686	10.26
331.897	10.12
332.108	9.94
332.319	9.88
332.53	9.99
332.741	9.86
332.952	9.9
333.163	9.88
333.374	9.96
333.585	9.83
333.795	9.91
334.006	10.02
334.217	10.07
334.428	10.28
334.639	10.32
334.849	10.37
335.06	10.48
335.271	10.42
335.482	10.54
335.692	10.33
335.903	10.32
336.114	10.19
336.325	10.04
336.535	10.09
336.746	9.93
336.957	9.9
337.167	9.81
337.378	9.65
337.589	9.64
337.799	9.46
338.01	9.45
338.22	9.77
338.431	9.7
338.642	9.74
338.852	9.6
339.063	9.7
339.273	9.58
339.484	9.66
339.694	9.69
339.905	9.71
340.115	9.71
340.326	9.69
340.536	9.56
340.746	9.64
340.957	9.53
341.167	9.61
341.378	9.49
341.588	9.66
341.799	9.42
342.009	9.36
342.219	9.41
342.43	9.34
342.64	9.25
342.85	9.1
343.061	9.09
343.271	9.1
343.481	9.28
343.691	9.42
343.902	9.17
344.112	9.18
344.322	9.34
344.532	9.28
344.743	9.31
344.953	9.28
345.163	9.25
345.373	9.28
345.583	9.29
345.793	9.11
346.004	9.07
346.214	9.19
346.424	9.4
346.634	9.4
346.844	9.5
347.054	9.51
347.264	9.67
347.474	9.73
347.684	9.67
347.894	9.71
348.104	9.63
348.314	9.66
348.524	9.67
348.734	9.52
348.944	9.38
349.154	9.36
349.364	9.34
349.574	9.13
349.784	9.1
349.994	9.08
350.204	8.97
350.413	8.95
350.623	8.98
350.833	8.96
351.043	8.99
351.253	9.05
351.463	8.82
351.672	8.64
351.882	8.74
352.092	8.71
352.302	8.76
352.511	8.77
352.721	8.86
352.931	8.78
353.141	8.59
353.35	8.47
353.56	8.41
353.77	8.66
353.979	8.89
354.189	8.93
354.399	8.96
354.608	8.87
354.818	8.93
355.027	8.9
355.237	8.86
355.447	8.92
355.656	8.93
355.866	8.99
356.075	8.85
356.285	8.72
356.494	8.6
356.704	8.5
356.913	8.52
357.123	8.41
357.332	8.33
357.542	8.32
357.751	8.38
357.96	8.29
358.17	8.27
358.379	8.32
358.589	8.35
358.798	8.47
359.007	8.49
359.217	8.43
359.426	8.52
359.635	8.59
359.845	8.62
360.054	8.54
360.263	8.57
360.472	8.5
360.682	8.49
360.891	8.48
361.1	8.39
361.309	8.37
361.519	8.36
361.728	8.33
361.937	8.32
362.146	8.25
362.355	8.34
362.564	8.39
362.774	8.39
362.983	8.23
363.192	8.19
363.401	8.27
363.61	8.3
363.819	8.36
364.028	8.32
364.237	8.25
364.446	8.3
364.655	8.14
364.864	8.16
365.073	8.17
365.282	8.28
365.491	8.25
365.7	8.28
365.909	8.18
366.118	8.12
366.327	8.19
366.536	8.19
366.745	8.12
366.954	8.2
367.162	8.11
367.371	8.06
367.58	7.98
367.789	7.93
367.998	7.77
368.207	7.92
368.415	7.91
368.624	7.75
368.833	7.78
369.042	7.84
369.25	7.9
369.459	8.01
369.668	7.93
369.877	7.88
370.085	7.87
370.294	7.87
370.503	7.8
370.711	7.68
370.92	7.69
371.129	7.63
371.337	7.59
371.546	7.42
371.754	7.29
371.963	7.38
372.171	7.42
372.38	7.31
372.589	7.25
372.797	7.25
373.006	7.21
373.214	7.07
373.423	6.97
373.631	6.9
373.84	6.93
374.048	6.89
374.256	6.85
374.465	6.69
374.673	6.73
374.882	6.69
375.09	6.7
375.298	6.73
375.507	6.72
375.715	6.7
375.923	6.63
376.132	6.63
376.34	6.51
376.548	6.36
376.757	6.45
376.965	6.43
377.173	6.58
377.381	6.46
377.59	6.42
377.798	6.51
378.006	6.5
378.214	6.56
378.423	6.52
378.631	6.65
378.839	6.74
379.047	6.7
379.255	6.64
379.463	6.45
379.671	6.33
379.879	6.29
380.088	6.16
380.296	6.28
380.504	6.33
380.712	6.3
380.92	6.35
381.128	6.33
381.336	6.32
381.544	6.46
381.752	6.46
381.96	6.49
382.168	6.59
382.376	6.6
382.584	6.46
382.791	6.28
382.999	6.21
383.207	6.08
383.415	5.99
383.623	6
383.831	5.82
384.039	5.88
384.247	5.94
384.454	5.97
384.662	6.13
384.87	6.06
385.078	6.11
385.285	6.2
385.493	6.19
385.701	6.17
385.909	6.23
386.116	6.33
386.324	6.24
386.532	6.16
386.739	6.03
386.947	5.8
387.155	5.78
387.362	5.86
387.57	5.83
387.778	5.82
387.985	5.91
388.193	5.81
388.4	5.82
388.608	5.77
388.816	5.82
389.023	5.79
389.231	5.77
389.438	5.84
389.646	5.67
389.853	5.62
390.061	5.51
390.268	5.53
390.475	5.54
390.683	5.51
390.89	5.5
391.098	5.46
391.305	5.52
391.512	5.57
391.72	5.57
391.927	5.59
392.135	5.55
392.342	5.63
392.549	5.5
392.756	5.44
392.964	5.4
393.171	5.43
393.378	5.43
393.586	5.38
393.793	5.41
394	5.29
394.207	5.26
394.414	5.31
394.622	5.29
394.829	5.32
395.036	5.25
395.243	5.26
395.45	5.24
395.657	5.2
395.864	5.12
396.072	5.2
396.279	5.38
396.486	5.36
396.693	5.38
396.9	5.41
397.107	5.32
397.314	5.39
397.521	5.35
397.728	5.35
397.935	5.23
398.142	5.35
398.349	5.21
398.556	5.11
398.763	5.13
398.97	5.06
399.177	5.06
399.383	5.16
399.59	5.13
399.797	5.12
400.004	5.1
400.211	5.24
400.418	5.14
400.625	5.12
400.831	5.06
401.038	5.1
401.245	5.05
401.452	4.94
401.658	4.99
401.865	5.08
402.072	5.12
402.279	5.15
402.485	5.08
402.692	5.11
402.899	5.1
403.105	5.19
403.312	5.11
403.519	5.13
403.725	5.2
403.932	5.16
404.138	5.11
404.345	5.03
404.552	4.94
404.758	5.03
404.965	4.98
405.171	5
405.378	4.88
405.584	4.97
405.791	4.99
405.997	4.96
406.204	4.94
406.41	4.9
406.617	4.95
406.823	4.99
407.029	5
407.236	5.05
407.442	5.1
407.649	5.28
407.855	5.28
408.061	5.25
408.268	5.22
408.474	5.12
408.68	5.19
408.887	5.11
409.093	5.17
409.299	5.15
409.505	5.12
409.712	5.04
409.918	4.84
410.124	4.78
410.33	4.86
410.537	4.89
410.743	4.98
410.949	4.9
411.155	5.01
411.361	4.91
411.567	4.83
411.773	4.79
411.98	4.81
412.186	4.9
412.392	4.94
412.598	4.88
412.804	4.84
413.01	4.78
413.216	4.82
413.422	4.83
413.628	4.93
413.834	4.87
414.04	4.88
414.246	4.89
414.452	4.9
414.658	4.82
414.864	4.8
415.07	4.78
415.275	4.79
415.481	4.75
415.687	4.59
415.893	4.55
416.099	4.58
416.305	4.66
416.511	4.68
416.716	4.65
416.922	4.63
417.128	4.65
417.334	4.71
417.539	4.66
417.745	4.67
417.951	4.71
418.157	4.74
418.362	4.79
418.568	4.73
418.774	4.66
418.979	4.67
419.185	4.68
419.391	4.67
419.596	4.63
419.802	4.65
420.008	4.63
420.213	4.97
420.419	4.95
420.624	4.91
420.83	4.89
421.035	4.95
421.241	4.94
421.446	5.01
421.652	4.99
421.857	4.98
422.063	5.01
422.268	5.03
422.474	4.68
422.679	4.69
422.885	4.72
423.09	4.75
423.295	4.74
423.501	4.74
423.706	4.71
423.911	4.72
424.117	4.74
424.322	4.73
424.527	4.74
424.733	4.75
424.938	4.77
425.143	4.74
425.349	4.72
425.554	4.72
425.759	4.77
425.964	4.72
426.169	4.74
426.375	4.73
426.58	4.69
426.785	4.69
426.99	4.71
427.195	4.66
427.4	4.67
427.605	4.71
427.811	4.7
428.016	4.67
428.221	4.73
428.426	4.76
428.631	4.77
428.836	4.78
429.041	4.73
429.246	4.8
429.451	4.86
429.656	4.83
429.861	4.81
430.066	4.81
430.271	4.78
430.476	4.73
430.681	4.7
430.886	4.64
431.09	4.73
431.295	4.77
431.5	4.73
431.705	4.68
431.91	4.69
432.115	4.69
432.32	4.68
432.524	4.7
432.729	4.7
432.934	4.74
433.139	4.78
433.343	4.79
433.548	4.8
433.753	4.8
433.958	4.79
434.162	4.81
434.367	4.82
434.572	4.79
434.776	4.8
434.981	4.82
435.186	4.76
435.39	4.77
435.595	4.75
435.799	4.75
436.004	4.73
436.209	4.73
436.413	4.71
436.618	4.65
436.822	4.67
437.027	4.62
437.231	4.58
437.436	4.6
437.64	4.54
437.845	4.47
438.049	4.43
438.253	4.38
438.458	4.36
438.662	4.39
438.867	4.44
439.071	4.48
439.275	4.52
439.48	4.55
439.684	4.57
439.888	4.6
440.093	4.62
440.297	4.65
440.501	4.68
440.706	4.72
440.91	4.74
441.114	4.7
441.318	4.69
441.523	4.7
441.727	4.71
441.931	4.74
442.135	4.72
442.339	4.7
442.543	4.66
442.748	4.65
442.952	4.65
443.156	4.59
443.36	4.64
443.564	4.58
443.768	4.56
443.972	4.52
444.176	4.43
444.38	4.46
444.584	4.5
444.788	4.47
444.992	4.51
445.196	4.49
445.4	4.52
445.604	4.48
445.808	4.52
446.012	4.51
446.216	4.51
446.42	4.5
446.624	4.47
446.828	4.45
447.032	4.5
447.235	4.47
447.439	4.49
447.643	4.51
447.847	4.57
448.051	4.53
448.254	4.57
448.458	4.56
448.662	4.64
448.866	4.6
449.069	4.67
449.273	4.67
449.477	4.67
449.681	4.63
449.884	4.6
450.088	4.56
450.292	4.58
450.495	4.52
450.699	4.6
450.902	4.57
451.106	4.62
451.31	4.54
451.513	4.56
451.717	4.52
451.92	4.55
452.124	4.55
452.327	4.53
452.531	4.53
452.734	4.56
452.938	4.52
453.141	4.5
453.345	4.56
453.548	4.57
453.752	4.47
453.955	4.51
454.158	4.51
454.362	4.47
454.565	4.45
454.769	4.42
454.972	4.44
455.175	4.38
455.379	4.42
455.582	4.38
455.785	4.36
455.988	4.41
456.192	4.4
456.395	4.34
456.598	4.36
456.801	4.38
457.005	4.45
457.208	4.44
457.411	4.48
457.614	4.43
457.817	4.43
458.021	4.43
458.224	4.44
458.427	4.46
458.63	4.51
458.833	4.52
459.036	4.55
459.239	4.51
459.442	4.48
459.645	4.47
459.848	4.51
460.051	4.5
460.254	4.52
460.457	4.5
460.66	4.5
460.863	4.45
461.066	4.46
461.269	4.44
461.472	4.47
461.675	4.56
461.878	4.58
462.081	4.54
462.284	4.55
462.486	4.59
462.689	4.6
462.892	4.63
463.095	4.66
463.298	4.66
463.5	4.62
463.703	4.62
463.906	4.55
464.109	4.52
464.311	4.58
464.514	4.62
464.717	4.6
464.92	4.62
465.122	4.6
465.325	4.68
465.528	4.65
465.73	4.66
465.933	4.63
466.135	4.65
466.338	4.64
466.541	4.59
466.743	4.57
466.946	4.55
467.148	4.56
467.351	4.54
467.553	4.48
467.756	4.54
467.958	4.59
468.161	4.64
468.363	4.62
468.566	4.63
468.768	4.6
468.971	4.58
469.173	4.58
469.375	4.52
469.578	4.61
469.78	4.55
469.983	4.52
470.185	4.5
470.387	4.47
470.59	4.45
470.792	4.46
470.994	4.47
471.196	4.52
471.399	4.52
471.601	4.58
471.803	4.51
472.005	4.54
472.208	4.52
472.41	4.5
472.612	4.51
472.814	4.51
473.016	4.55
473.218	4.61
473.421	4.56
473.623	4.58
473.825	4.55
474.027	4.58
474.229	4.61
474.431	4.6
474.633	4.62
474.835	4.61
475.037	4.6
475.239	4.58
475.441	4.54
475.643	4.53
475.845	4.58
476.047	4.6
476.249	4.59
476.451	4.59
476.653	4.6
476.855	4.61
477.057	4.6
477.258	4.62
477.46	4.62
477.662	4.61
477.864	4.66
478.066	4.61
478.268	4.59
478.469	4.58
478.671	4.55
478.873	4.48
479.075	4.49
479.276	4.47
479.478	4.45
479.68	4.42
479.882	4.41
480.083	4.43
480.285	4.43
480.487	4.43
480.688	4.4
480.89	4.43
481.091	4.48
481.293	4.47
481.495	4.45
481.696	4.44
481.898	4.45
482.099	4.44
482.301	4.43
482.502	4.42
482.704	4.41
482.905	4.41
483.107	4.4
483.308	4.39
483.51	4.37
483.711	4.39
483.913	4.39
484.114	4.39
484.315	4.38
484.517	4.39
484.718	4.38
484.92	4.4
485.121	4.4
485.322	4.42
485.524	4.43
485.725	4.45
485.926	4.46
486.127	4.48
486.329	4.48
486.53	4.49
486.731	4.48
486.932	4.49
487.134	4.48
487.335	4.46
487.536	4.47
487.737	4.47
487.938	4.46
488.139	4.45
488.341	4.44
488.542	4.43
488.743	4.41
488.944	4.41
489.145	4.41
489.346	4.4
489.547	4.42
489.748	4.42
489.949	4.42
490.15	4.43
490.351	4.44
490.552	4.44
490.753	4.43
490.954	4.45
491.155	4.44
491.356	4.42
491.557	4.42
491.758	4.43
491.959	4.44
492.159	4.41
492.36	4.42
492.561	4.41
492.762	4.39
492.963	4.41
493.164	4.4
493.364	4.42
493.565	4.45
493.766	4.47
493.967	4.49
494.167	4.5
494.368	4.53
494.569	4.48
494.769	4.5
494.97	4.53
495.171	4.52
495.371	4.53
495.572	4.53
495.773	4.58
495.973	4.59
496.174	4.58
496.375	4.59
496.575	4.59
496.776	4.64
496.976	4.66
497.177	4.69
497.377	4.71
497.578	4.75
497.778	4.74
497.979	4.75
498.179	4.76
498.38	4.79
498.58	4.79
498.78	4.82
498.981	4.81
499.181	4.81
499.382	4.8
499.582	4.85
499.782	4.87
499.983	4.91
500.183	4.92
500.383	4.91
500.584	4.92
500.784	4.9
500.984	4.92
501.184	4.97
501.385	4.97
501.585	4.94
501.785	4.93
501.985	4.89
502.185	4.87
502.386	4.88
502.586	4.9
502.786	4.94
502.986	4.97
503.186	4.98
503.386	4.99
503.586	5
503.786	5.07
503.987	5.09
504.187	5.16
504.387	5.23
504.587	5.25
504.787	5.26
504.987	5.26
505.187	5.28
505.387	5.29
505.587	5.28
505.786	5.35
505.986	5.33
506.186	5.32
506.386	5.34
506.586	5.31
506.786	5.33
506.986	5.36
507.186	5.39
507.386	5.42
507.585	5.49
507.785	5.51
507.985	5.48
508.185	5.53
508.384	5.58
508.584	5.58
508.784	5.6
508.984	5.6
509.183	5.65
509.383	5.69
509.583	5.67
509.782	5.66
509.982	5.67
510.182	5.71
510.381	5.7
510.581	5.72
510.781	5.73
510.98	5.78
511.18	5.8
511.379	5.81
511.579	5.85
511.778	5.9
511.978	5.93
512.177	5.99
512.377	6.04
512.576	6.1
512.776	6.19
512.975	6.24
513.175	6.28
513.374	6.34
513.573	6.35
513.773	6.38
513.972	6.44
514.172	6.48
514.371	6.5
514.57	6.49
514.77	6.55
514.969	6.54
515.168	6.58
515.367	6.62
515.567	6.67
515.766	6.73
515.965	6.76
516.164	6.79
516.364	6.81
516.563	6.85
516.762	6.9
516.961	6.91
517.16	6.96
517.359	7.01
517.559	7.05
517.758	7.1
517.957	7.12
518.156	7.16
518.355	7.22
518.554	7.27
518.753	7.28
518.952	7.34
519.151	7.37
519.35	7.41
519.549	7.42
519.748	7.46
519.947	7.49
520.146	7.55
520.345	7.56
520.544	7.55
520.743	7.59
520.942	7.67
521.141	7.67
521.339	7.73
521.538	7.72
521.737	7.8
521.936	7.81
522.135	7.86
522.333	7.88
522.532	7.91
522.731	7.98
522.93	8.03
523.129	8.08
523.327	8.12
523.526	8.16
523.725	8.23
523.923	8.25
524.122	8.28
524.321	8.32
524.519	8.36
524.718	8.38
524.917	8.41
525.115	8.45
525.314	8.46
525.512	8.48
525.711	8.5
525.909	8.51
526.108	8.53
526.306	8.55
526.505	8.55
526.703	8.58
526.902	8.62
527.1	8.63
527.299	8.66
527.497	8.68
527.696	8.72
527.894	8.74
528.092	8.77
528.291	8.8
528.489	8.83
528.688	8.88
528.886	8.88
529.084	8.92
529.283	8.95
529.481	8.97
529.679	8.99
529.877	9.02
530.076	9.05
530.274	9.1
530.472	9.15
530.67	9.22
530.869	9.26
531.067	9.33
531.265	9.36
531.463	9.41
531.661	9.42
531.859	9.48
532.057	9.54
532.255	9.57
532.454	9.58
532.652	9.6
532.85	9.6
533.048	9.63
533.246	9.63
533.444	9.64
533.642	9.67
533.84	9.71
534.038	9.74
534.236	9.76
534.434	9.81
534.632	9.87
534.83	9.91
535.027	9.95
535.225	9.98
535.423	10.07
535.621	10.14
535.819	10.17
536.017	10.21
536.215	10.24
536.412	10.26
536.61	10.31
536.808	10.32
537.006	10.36
537.203	10.38
537.401	10.41
537.599	10.41
537.797	10.43
537.994	10.48
538.192	10.5
538.39	10.54
538.587	10.56
538.785	10.59
538.983	10.61
539.18	10.64
539.378	10.67
539.575	10.72
539.773	10.77
539.97	10.79
540.168	10.79
540.366	10.83
540.563	10.85
540.761	10.86
540.958	10.88
541.155	10.94
541.353	10.95
541.55	11
541.748	11.01
541.945	11.01
542.143	11.02
542.34	11.07
542.537	11.07
542.735	11.13
542.932	11.17
543.129	11.22
543.327	11.24
543.524	11.27
543.721	11.3
543.919	11.34
544.116	11.43
544.313	11.5
544.51	11.52
544.708	11.6
544.905	11.6
545.102	11.64
545.299	11.68
545.496	11.7
545.693	11.72
545.891	11.75
546.088	11.79
546.285	11.82
546.482	11.82
546.679	11.87
546.876	11.87
547.073	11.9
547.27	11.96
547.467	12
547.664	12.02
547.861	12.05
548.058	12.06
548.255	12.1
548.452	12.09
548.649	12.16
548.846	12.19
549.043	12.2
549.24	12.24
549.437	12.25
549.633	12.25
549.83	12.3
550.027	12.35
550.224	12.39
550.421	12.4
550.618	12.46
550.814	12.48
551.011	12.5
551.208	12.61
551.405	12.66
551.601	12.69
551.798	12.76
551.995	12.76
552.191	12.76
552.388	12.76
552.585	12.76
552.781	12.75
552.978	12.8
553.175	12.79
553.371	12.78
553.568	12.79
553.764	12.81
553.961	12.79
554.157	12.87
554.354	12.93
554.55	13.02
554.747	13.02
554.943	13.09
555.14	13.1
555.336	13.16
555.533	13.2
555.729	13.26
555.926	13.31
556.122	13.34
556.318	13.35
556.515	13.35
556.711	13.34
556.907	13.4
557.104	13.45
557.3	13.44
557.496	13.43
557.693	13.4
557.889	13.42
558.085	13.42
558.281	13.45
558.478	13.43
558.674	13.5
558.87	13.49
559.066	13.51
559.262	13.49
559.459	13.49
559.655	13.59
559.851	13.61
560.047	13.62
560.243	13.7
560.439	13.72
560.635	13.76
560.831	13.76
561.027	13.81
561.223	13.87
561.419	13.92
561.615	13.97
561.811	13.93
562.007	13.92
562.203	13.87
562.399	13.82
562.595	13.86
562.791	13.86
562.987	13.91
563.183	13.89
563.379	13.81
563.575	13.86
563.771	13.89
563.966	13.9
564.162	13.93
564.358	13.98
564.554	14.01
564.75	14.03
564.945	14.04
565.141	14.06
565.337	14.1
565.533	14.18
565.728	14.19
565.924	14.17
566.12	14.28
566.315	14.34
566.511	14.34
566.707	14.35
566.902	14.34
567.098	14.35
567.293	14.33
567.489	14.33
567.684	14.38
567.88	14.36
568.076	14.38
568.271	14.31
568.467	14.32
568.662	14.36
568.858	14.36
569.053	14.36
569.248	14.37
569.444	14.41
569.639	14.48
569.835	14.44
570.03	14.47
570.225	14.45
570.421	14.49
570.616	14.5
570.812	14.51
571.007	14.52
571.202	14.56
571.397	14.57
571.593	14.57
571.788	14.55
571.983	14.57
572.178	14.59
572.374	14.61
572.569	14.65
572.764	14.66
572.959	14.66
573.154	14.67
573.35	14.7
573.545	14.69
573.74	14.66
573.935	14.65
574.13	14.69
574.325	14.7
574.52	14.7
574.715	14.73
574.91	14.74
575.105	14.76
575.3	14.81
575.495	14.82
575.69	14.88
575.885	15
576.08	14.96
576.275	14.96
576.47	14.93
576.665	15.04
576.86	15.05
577.055	15.07
577.25	15.1
577.444	15.09
577.639	15.13
577.834	15.1
578.029	15.02
578.224	15.06
578.418	15.08
578.613	15.12
578.808	15.08
579.003	15.04
579.197	15.05
579.392	15.02
579.587	15.03
579.781	15
579.976	15.06
580.171	15.08
580.365	15.12
580.56	15.14
580.755	15.17
580.949	15.2
581.144	15.15
581.338	15.15
581.533	15.16
581.727	15.19
581.922	15.22
582.116	15.18
582.311	15.16
582.505	15.16
582.7	15.12
582.894	15.13
583.089	15.1
583.283	15.14
583.478	15.11
583.672	15.16
583.866	15.16
584.061	15.16
584.255	15.26
584.449	15.26
584.644	15.26
584.838	15.26
585.032	15.24
585.226	15.27
585.421	15.28
585.615	15.31
585.809	15.3
586.003	15.29
586.198	15.29
586.392	15.26
586.586	15.26
586.78	15.3
586.974	15.4
587.168	15.44
587.363	15.36
587.557	15.44
587.751	15.47
587.945	15.48
588.139	15.52
588.333	15.51
588.527	15.5
588.721	15.56
588.915	15.58
589.109	15.52
589.303	15.53
589.497	15.6
589.691	15.61
589.885	15.63
590.079	15.66
590.273	15.63
590.466	15.68
590.66	15.69
590.854	15.75
591.048	15.72
591.242	15.75
591.436	15.78
591.629	15.75
591.823	15.72
592.017	15.72
592.211	15.73
592.404	15.77
592.598	15.71
592.792	15.73
592.986	15.68
593.179	15.71
593.373	15.69
593.567	15.69
593.76	15.71
593.954	15.71
594.147	15.73
594.341	15.76
594.535	15.73
594.728	15.83
594.922	15.81
595.115	15.83
595.309	15.88
595.502	15.91
595.696	15.93
595.889	15.98
596.083	15.99
596.276	15.88
596.47	15.87
596.663	15.92
596.856	15.87
597.05	15.88
597.243	15.86
597.437	15.88
597.63	15.88
597.823	15.9
598.017	15.92
598.21	15.9
598.403	16.03
598.596	16.05
598.79	16.01
598.983	16.04
599.176	16.11
599.369	16.11
599.563	16.08
599.756	16.08
599.949	16.04
600.142	15.98
600.335	16
600.528	15.91
600.722	15.95
600.915	16.03
601.108	16.07
601.301	16.07
601.494	16.04
601.687	16.03
601.88	16.06
602.073	16.04
602.266	16.04
602.459	16
602.652	16.05
602.845	16.05
603.038	16.11
603.231	16.07
603.424	16.07
603.617	16.07
603.809	16.07
604.002	16.06
604.195	16.15
604.388	16.21
604.581	16.27
604.774	16.22
604.966	16.19
605.159	16.11
605.352	16.12
605.545	16.14
605.737	16.16
605.93	16.18
606.123	16.15
606.316	16.12
606.508	16.03
606.701	16.11
606.894	16.2
607.086	16.22
607.279	16.18
607.471	16.15
607.664	16.17
607.857	16.26
608.049	16.26
608.242	16.27
608.434	16.29
608.627	16.36
608.819	16.28
609.012	16.3
609.204	16.24
609.397	16.34
609.589	16.43
609.782	16.41
609.974	16.41
610.166	16.44
610.359	16.43
610.551	16.39
610.743	16.41
610.936	16.47
611.128	16.5
611.32	16.52
611.513	16.47
611.705	16.49
611.897	16.46
612.09	16.43
612.282	16.36
612.474	16.34
612.666	16.4
612.858	16.46
613.051	16.42
613.243	16.36
613.435	16.45
613.627	16.45
613.819	16.39
614.011	16.45
614.203	16.37
614.395	16.38
614.588	16.39
614.78	16.35
614.972	16.23
615.164	16.18
615.356	16.17
615.548	16.18
615.74	16.27
615.932	16.29
616.124	16.32
616.315	16.47
616.507	16.49
616.699	16.6
616.891	16.64
617.083	16.77
617.275	16.89
617.467	16.94
617.659	16.84
617.85	16.81
618.042	16.86
618.234	16.77
618.426	16.69
618.618	16.76
618.809	16.68
619.001	16.69
619.193	16.58
619.384	16.51
619.576	16.56
619.768	16.73
619.959	16.66
620.151	16.61
620.343	16.59
620.534	16.61
620.726	16.56
620.917	16.6
621.109	16.54
621.301	16.62
621.492	16.56
621.684	16.42
621.875	16.33
622.067	16.41
622.258	16.42
622.45	16.51
622.641	16.54
622.832	16.62
623.024	16.57
623.215	16.68
623.407	16.64
623.598	16.71
623.789	16.79
623.981	16.77
624.172	16.81
624.363	16.77
624.555	16.73
624.746	16.76
624.937	16.76
625.129	16.78
625.32	16.72
625.511	16.78
625.702	16.75
625.893	16.75
626.085	16.8
626.276	16.77
626.467	16.8
626.658	16.83
626.849	16.78
627.04	16.72
627.231	16.71
627.422	16.82
627.614	16.75
627.805	16.8
627.996	16.83
628.187	16.83
628.378	16.8
628.569	16.81
628.76	16.76
628.951	16.73
629.142	16.79
629.332	16.75
629.523	16.66
629.714	16.67
629.905	16.69
630.096	16.63
630.287	16.62
630.478	16.65
630.669	16.7
630.859	16.75
631.05	16.8
631.241	16.78
631.432	16.79
631.623	16.77
631.813	16.84
632.004	16.82
632.195	16.87
632.385	16.85
632.576	16.88
632.767	16.85
632.957	16.91
633.148	16.91
633.339	16.88
633.529	16.94
633.72	16.95
633.91	16.82
634.101	16.89
634.292	16.85
634.482	16.81
634.673	16.77
634.863	16.78
635.054	16.66
635.244	16.65
635.435	16.68
635.625	16.69
635.815	16.71
636.006	16.78
636.196	16.77
636.387	16.86
636.577	16.92
636.767	16.88
636.958	16.85
637.148	16.92
637.338	16.99
637.529	16.96
637.719	16.92
637.909	16.92
638.099	17.01
638.29	16.94
638.48	17.03
638.67	17.08
638.86	17.18
639.05	17.18
639.241	17.22
639.431	17.14
639.621	17.16
639.811	17.25
640.001	17.21
640.191	17.16
640.381	17.13
640.571	16.89
640.761	16.86
640.951	16.88
641.141	16.91
641.331	16.8
641.521	16.83
641.711	16.93
641.901	16.8
642.091	16.83
642.281	16.78
642.471	16.77
642.661	16.96
642.851	17.06
643.041	17
643.231	17
643.42	17.06
643.61	16.97
643.8	16.87
643.99	17
644.18	16.92
644.369	16.93
644.559	17.09
644.749	16.97
644.939	16.75
645.128	16.75
645.318	16.69
645.508	16.73
645.697	16.85
645.887	16.89
646.076	16.93
646.266	17.07
646.456	17.11
646.645	17.01
646.835	17.02
647.024	17.11
647.214	17.21
647.403	17.21
647.593	17.2
647.782	17.19
647.972	17.18
648.161	16.95
648.351	16.93
648.54	16.93
648.73	16.87
648.919	17.03
649.108	17.02
649.298	16.84
649.487	16.85
649.677	16.92
649.866	16.98
650.055	17.01
650.244	17.25
650.434	17.21
650.623	17.16
650.812	17.21
651.002	17.04
651.191	17.1
651.38	17.26
651.569	17.31
651.758	17.23
651.947	17.13
652.137	17.17
652.326	17.01
652.515	16.98
652.704	17.12
652.893	17.27
653.082	17.39
653.271	17.41
653.46	17.32
653.649	17.38
653.838	17.41
654.027	17.42
654.216	17.33
654.405	17.46
654.594	17.52
654.783	17.45
654.972	17.42
655.161	17.43
655.35	17.45
655.539	17.48
655.728	17.47
655.916	17.47
656.105	17.63
656.294	17.66
656.483	17.45
656.672	17.51
656.86	17.53
657.049	17.41
657.238	17.34
657.427	17.3
657.615	17.37
657.804	17.35
657.993	17.33
658.181	17.23
658.37	17.29
658.559	17.38
658.747	17.35
658.936	17.32
659.125	17.22
659.313	17.26
659.502	17.24
659.69	17.21
659.879	17.2
660.067	17.25
660.256	17.35
660.444	17.33
660.633	17.29
660.821	17.22
661.01	17.26
661.198	17.5
661.387	17.52
661.575	17.63
661.763	17.62
661.952	17.55
662.14	17.5
662.328	17.45
662.517	17.38
662.705	17.5
662.893	17.6
663.082	17.45
663.27	17.31
663.458	17.22
663.646	17.09
663.834	17.12
664.023	17.16
664.211	17.19
664.399	17.07
664.587	17.13
664.775	17.08
664.963	17.11
665.152	17.16
665.34	17.2
665.528	17.25
665.716	17.29
665.904	17.26
666.092	17.32
666.28	17.37
666.468	17.51
666.656	17.43
666.844	17.45
667.032	17.52
667.22	17.6
667.408	17.64
667.596	17.68
667.784	17.67
667.971	17.67
668.159	17.54
668.347	17.41
668.535	17.38
668.723	17.41
668.911	17.43
669.098	17.26
669.286	17.32
669.474	17.25
669.662	17.17
669.849	17.23
670.037	17.25
670.225	17.36
670.413	17.45
670.6	17.47
670.788	17.55
670.976	17.48
671.163	17.43
671.351	17.36
671.538	17.33
671.726	17.5
671.913	17.32
672.101	17.31
672.289	17.37
672.476	17.38
672.664	17.37
672.851	17.35
673.039	17.46
673.226	17.55
673.413	17.51
673.601	17.59
673.788	17.51
673.976	17.53
674.163	17.48
674.35	17.42
674.538	17.37
674.725	17.33
674.912	17.31
675.1	17.35
675.287	17.37
675.474	17.55
675.662	17.72
675.849	17.68
676.036	17.83
676.223	17.97
676.411	17.89
676.598	17.94
676.785	18.04
676.972	18.03
677.159	17.9
677.346	17.9
677.533	17.76
677.721	17.71
677.908	17.81
678.095	17.74
678.282	17.71
678.469	17.78
678.656	17.79
678.843	17.72
679.03	17.68
679.217	17.74
679.404	17.82
679.591	17.79
679.778	17.73
679.964	17.79
680.151	17.83
680.338	17.87
680.525	17.96
680.712	17.9
680.899	17.9
681.086	17.96
681.272	17.83
681.459	17.88
681.646	17.99
681.833	18.02
682.02	17.88
682.206	17.9
682.393	17.83
682.58	17.74
682.766	17.85
682.953	17.88
683.14	17.94
683.326	18.1
683.513	18.02
683.7	17.92
683.886	17.9
684.073	17.87
684.259	17.84
684.446	17.89
684.632	17.99
684.819	17.9
685.005	17.93
685.192	17.88
685.378	17.9
685.565	17.82
685.751	17.87
685.938	17.91
686.124	17.91
686.31	17.9
686.497	17.88
686.683	17.76
686.87	17.91
687.056	17.84
687.242	17.95
687.429	17.94
687.615	17.93
687.801	18.1
687.987	17.93
688.174	17.96
688.36	18.07
688.546	18.05
688.732	18.24
688.918	18.14
689.105	18.17
689.291	18.07
689.477	18.17
689.663	18.28
689.849	18.18
690.035	18.37
690.221	18.4
690.407	18.36
690.593	18.36
690.779	18.3
690.965	18.28
691.151	18.29
691.337	18.34
691.523	18.18
691.709	18.19
691.895	18.14
692.081	18
692.267	18.1
692.453	17.88
692.639	17.96
692.825	17.9
693.011	17.88
693.196	17.92
693.382	17.95
693.568	17.96
693.754	17.94
693.94	17.92
694.125	17.93
694.311	17.82
694.497	18.14
694.682	18.13
694.868	18.16
695.054	18.14
695.239	18.12
695.425	18.05
695.611	18.15
695.796	18.21
695.982	18.26
696.168	18.24
696.353	18.31
696.539	18.17
696.724	18.21
696.91	18.19
697.095	18.22
697.281	18.24
697.466	18.26
697.652	18.17
697.837	18.1
698.023	18.09
698.208	18.19
698.393	18.25
698.579	18.23
698.764	18.14
698.949	18.09
699.135	18.08
699.32	18.13
699.505	18.17
699.691	18.21
699.876	18.22
700.061	18.35
700.246	18.27
700.432	18.09
700.617	18.22
700.802	18.2
700.987	18.29
701.172	18.28
701.358	18.16
701.543	18.03
701.728	18.09
701.913	18.15
702.098	18.04
702.283	18.21
702.468	18.2
702.653	18.19
702.838	18.56
703.023	18.48
703.208	18.62
703.393	18.53
703.578	18.68
703.763	18.6
703.948	18.67
704.133	18.67
704.318	18.52
704.503	18.75
704.688	18.83
704.873	18.63
705.057	18.69
705.242	18.73
705.427	18.83
705.612	18.71
705.797	18.85
705.981	18.88
706.166	18.87
706.351	18.96
706.536	18.73
706.72	18.55
706.905	18.38
707.09	18.26
707.274	18.26
707.459	18.14
707.644	18.25
707.828	18.07
708.013	18.07
708.197	18.01
708.382	17.9
708.567	17.95
708.751	18.05
708.936	18.19
709.12	18.34
709.305	18.23
709.489	18.55
709.673	18.43
709.858	18.52
710.042	18.37
710.227	18.41
710.411	18.41
710.596	18.58
710.78	18.56
710.964	18.48
711.149	18.47
711.333	18.57
711.517	18.38
711.702	18.56
711.886	18.59
712.07	18.73
712.254	18.85
712.438	18.95
712.623	18.84
712.807	19.01
712.991	19.19
713.175	19.03
713.359	18.94
713.544	19.03
713.728	18.97
713.912	18.98
714.096	19.01
714.28	18.89
714.464	18.88
714.648	18.93
714.832	18.76
715.016	18.56
715.2	18.73
715.384	18.77
715.568	18.74
715.752	18.56
715.936	18.56
716.12	18.41
716.304	18.41
716.488	18.34
716.671	18.27
716.855	18.25
717.039	18.42
717.223	18.3
717.407	18.21
717.59	18.09
717.774	18.17
717.958	18.11
718.142	18.02
718.325	17.99
718.509	17.98
718.693	17.99
718.877	17.88
719.06	17.77
719.244	17.55
719.428	17.66
719.611	17.73
719.795	17.79
719.978	17.79
720.162	17.86
720.345	17.8
720.529	17.87
720.713	18.06
720.896	18.19
721.08	18.36
721.263	18.56
721.446	18.49
721.63	18.74
721.813	18.76
721.997	18.73
722.18	18.91
722.364	18.97
722.547	19.14
722.73	18.96
722.914	18.86
723.097	18.63
723.28	18.85
723.464	18.87
723.647	18.65
723.83	18.65
724.013	18.77
724.197	18.77
724.38	18.95
724.563	18.67
724.746	18.81
724.929	18.98
725.112	18.88
725.296	18.73
725.479	18.61
725.662	18.61
725.845	18.79
726.028	18.68
726.211	18.58
726.394	18.41
726.577	18.47
726.76	18.2
726.943	18.06
727.126	18.18
727.309	18.28
727.492	18.43
727.675	18.4
727.858	18.23
728.041	18.21
728.224	18.31
728.407	18.42
728.589	18.58
728.772	18.8
728.955	18.86
729.138	18.95
729.321	18.95
729.503	19.15
729.686	19.18
729.869	19.04
730.052	19.11
730.234	18.95
730.417	19.03
730.6	18.77
730.782	18.6
730.965	18.51
731.148	18.44
731.33	18.69
731.513	18.61
731.695	18.7
731.878	18.71
732.061	18.65
732.243	18.76
732.426	18.51
732.608	18.91
732.791	18.95
732.973	18.97
733.156	19.04
733.338	18.88
733.52	18.61
733.703	18.45
733.885	18.58
734.068	18.7
734.25	18.78
734.432	18.9
734.615	18.73
734.797	18.8
734.979	18.82
735.162	18.89
735.344	18.65
735.526	18.65
735.708	18.6
735.891	18.78
736.073	18.75
736.255	18.82
736.437	18.93
736.619	18.74
736.802	18.83
736.984	18.8
737.166	18.71
737.348	18.71
737.53	18.88
737.712	19.07
737.894	18.94
738.076	19.05
738.258	18.88
738.44	18.79
738.622	18.83
738.804	18.67
738.986	18.87
739.168	18.97
739.35	19.1
739.532	18.99
739.714	18.85
739.896	18.7
740.078	18.57
740.259	18.71
740.441	18.65
740.623	18.8
740.805	19.05
740.987	19.09
741.168	18.71
741.35	18.65
741.532	18.68
741.714	18.77
741.895	19.04
742.077	18.96
742.259	18.87
742.44	18.89
742.622	18.66
742.804	18.54
742.985	18.64
743.167	19
743.348	18.99
743.53	19.16
743.711	19.08
743.893	18.92
744.075	19.27
744.256	19.09
744.438	19.11
744.619	19.22
744.8	19.08
744.982	18.85
745.163	19.06
745.345	18.99
745.526	18.86
745.707	18.93
745.889	18.69
746.07	18.63
746.252	18.96
746.433	18.94
746.614	19.09
746.795	19.57
746.977	19.64
747.158	19.42
747.339	19.31
747.52	19.23
747.702	19.34
747.883	19.42
748.064	19.17
748.245	18.9
748.426	18.8
748.607	18.72
748.788	18.25
748.97	18.01
749.151	18.11
749.332	18.2
749.513	18.57
749.694	18.51
749.875	18.87
750.056	18.92
750.237	18.93
750.418	18.91
750.599	18.87
750.78	18.77
750.96	18.96
751.141	19.23
751.322	19.55
751.503	19.26
751.684	19.18
751.865	18.95
752.046	19.13
752.226	19.19
752.407	19.32
752.588	19.43
752.769	19.83
752.949	19.71
753.13	19.35
753.311	19.16
753.492	18.97
753.672	19.02
753.853	18.9
754.034	18.87
754.214	18.97
754.395	18.54
754.575	18.48
754.756	18.3
754.937	18.31
755.117	18.42
755.298	18.41
755.478	18.81
755.659	18.85
755.839	18.86
756.02	18.95
756.2	18.55
756.381	18.65
756.561	18.66
756.741	18.72
756.922	18.89
757.102	18.78
757.283	18.75
757.463	18.79
757.643	18.81
757.823	18.84
758.004	18.87
758.184	19.4
758.364	19.95
758.545	19.97
758.725	19.67
758.905	19.52
759.085	19.37
759.265	19.3
759.446	19.18
759.626	19.34
759.806	19.34
759.986	19.23
760.166	19.08
760.346	18.76
760.526	18.65
760.706	19.11
760.886	19.27
761.066	19.21
761.246	19.29
761.426	19.32
761.606	19.28
761.786	19.33
761.966	19.4
762.146	19.34
762.326	19.32
762.506	19.51
762.686	19.32
762.866	19.13
763.046	19.35
763.225	19.59
763.405	19.58
763.585	19.68
763.765	19.65
763.945	19.37
764.124	19.3
764.304	19.57
764.484	19.62
764.664	19.69
764.843	19.83
765.023	19.71
765.203	19.59
765.382	19.73
765.562	19.6
765.741	20.04
765.921	20.19
766.101	20.29
766.28	20.14
766.46	19.84
766.639	20.06
766.819	19.95
766.998	20.05
767.178	19.84
767.357	19.62
767.537	19.53
767.716	19.17
767.896	19.59
768.075	19.53
768.254	19.53
768.434	19.91
768.613	19.41
768.792	19.62
768.972	19.69
769.151	19.72
769.33	19.95
769.51	20.05
769.689	20.19
769.868	20.01
770.047	20.16
770.226	20.43
770.406	20.12
770.585	20.38
770.764	20.33
770.943	20.26
771.122	20.37
771.301	20.14
771.48	20.28
771.66	20.26
771.839	19.89
772.018	19.8
772.197	19.6
772.376	19.52
772.555	19.33
772.734	19.37
772.913	19.57
773.092	19.46
773.271	19.55
773.449	19.51
773.628	19.64
773.807	19.57
773.986	19.38
774.165	19.13
774.344	19.13
774.523	19.58
774.701	19.65
774.88	19.23
775.059	19.31
775.238	19.54
775.417	19.05
775.595	18.84
775.774	19.4
775.953	19.57
776.131	19.28
776.31	19.19
776.489	18.73
776.667	18.6
776.846	18.9
777.025	18.82
777.203	18.67
777.382	19.12
777.56	18.79
777.739	18.64
777.917	18.75
778.096	19.23
778.274	19.76
778.453	20.34
778.631	20.45
778.81	20.76
778.988	20.7
779.166	20.82
779.345	20.82
779.523	21.13
779.702	21.11
779.88	21.02
780.058	21.11
780.237	20.27
780.415	19.97
780.593	19.91
780.771	19.65
780.95	20.07
781.128	19.75
781.306	19.97
781.484	20.08
781.662	19.73
781.841	19.56
782.019	19.44
782.197	20.29
782.375	20.2
782.553	20.08
782.731	20.5
782.909	20.42
783.087	20.9
783.265	20.73
783.443	20.6
783.621	20.76
783.799	20.97
783.977	21.2
784.155	21.05
784.333	20.87
784.511	20.92
784.689	20.51
784.867	21.02
785.045	20.35
785.223	20.11
785.4	20.07
785.578	20.53
785.756	20.95
785.934	20.24
786.112	20.02
786.289	20.2
786.467	20.06
786.645	19.97
786.823	19.31
787	19.55
787.178	19.84
787.356	19.88
787.533	19.55
787.711	19.3
787.889	19.86
788.066	19.93
788.244	19.94
788.421	20.45
788.599	20.5
788.776	20.37
788.954	20.31
789.131	19.84
789.309	19.72
789.486	19.53
789.664	19.56
789.841	19.08
790.019	18.79
790.196	19.02
790.373	18.23
790.551	17.94
790.728	18.27
790.906	18.38
791.083	18.17
791.26	17.98
791.437	18.33
791.615	18.3
791.792	18.9
791.969	19.22
792.146	18.81
792.324	19.55
792.501	19.94
792.678	19.89
792.855	19.71
793.032	20.34
793.209	20.5
793.387	20.83
793.564	20.61
793.741	20.13
793.918	19.89
794.095	20.47
794.272	20.52
794.449	20.23
794.626	20.14
794.803	20.21
794.98	19.55
795.157	19.67
795.334	19.62
795.511	19.62
795.688	19.69
795.864	19.95
796.041	19.77
796.218	19.32
796.395	19.86
796.572	19.92
796.749	19.94
796.925	20.99
797.102	21.01
797.279	21.11
797.456	21.32
797.632	21.33
797.809	21.32
797.986	21.18
798.162	21.35
798.339	20.78
798.516	20.5
798.692	20.84
798.869	20.12
799.046	19.98
799.222	19.45
799.399	19.31
799.575	19.88
799.752	19.94
799.928	19.67
800.105	19.61
800.281	19.95
800.458	20.45
800.634	20.25
800.811	20.66
800.987	20.91
801.163	20.92
801.34	20.67
801.516	20.24
801.692	20.26
801.869	21.14
802.045	21.56
802.221	21.5
802.398	21.07
802.574	21.25
802.75	21.11
802.926	20.56
803.103	20.26
803.279	20.71
803.455	20.97
803.631	21.63
803.807	20.92
803.983	20.64
804.16	19.85
804.336	19.88
804.512	18.96
804.688	19.22
804.864	19.99
805.04	20.95
805.216	20.93
805.392	20.23
805.568	19.45
805.744	19.59
805.92	19.72
806.096	20.3
806.272	21.13
806.448	21.72
806.623	21.3
806.799	21.03
806.975	20.93
807.151	21.3
807.327	21.4
807.503	21.69
807.678	21.42
807.854	21.33
808.03	21.69
808.206	20.78
808.381	21.02
808.557	20.79
808.733	20.87
808.908	20.21
809.084	19.96
809.26	20.4
809.435	20.86
809.611	21.56
809.787	21.3
809.962	20.47
810.138	20.8
810.313	20.66
810.489	20.23
810.664	19.92
810.84	20.14
811.015	20.33
811.191	20.25
811.366	19.3
811.542	18.49
811.717	19.01
811.892	19.82
812.068	20.1
812.243	20.51
812.419	20.78
812.594	21.38
812.769	22.29
812.944	22.03
813.12	21.74
813.295	21.75
813.47	22.04
813.645	21.53
813.821	21.34
813.996	20.96
814.171	20.9
814.346	21
814.521	20.91
814.697	19.9
814.872	19.79
815.047	20.5
815.222	20.85
815.397	21.01
815.572	21.44
815.747	21.67
815.922	22.11
816.097	21.44
816.272	21.53
816.447	21.15
816.622	21.38
816.797	21.17
816.972	20.63
817.147	20.7
817.322	20.47
817.496	19.87
817.671	19.79
817.846	19.1
818.021	19.08
818.196	19.08
818.371	19.5
818.545	19.41
818.72	19.68
818.895	19.51
819.069	19.07
819.244	19.36
819.419	19.63
819.594	19.48
819.768	19.61
819.943	19.95
820.117	20.28
820.292	20.37
820.467	20.46
820.641	20.42
820.816	20.63
820.99	20.79
821.165	20.9
821.339	20.97
821.514	20.94
821.688	20.99
821.863	20.93
822.037	20.86
822.212	20.82
822.386	20.78
822.56	20.84
822.735	20.76
822.909	20.78
823.084	20.52
823.258	20.45
823.432	20.48
823.606	20.37
823.781	20.37
823.955	20.29
824.129	20.24
824.303	20.24
824.478	20.32
824.652	20.43
824.826	20.14
825	20.31
825.174	20.25
825.348	20.01
825.523	20.1
825.697	20
825.871	20.08
826.045	20.14
826.219	20.13
826.393	19.88
826.567	19.89
826.741	20.2
826.915	20.52
827.089	20.53
827.263	20.78
827.437	20.76
827.611	20.88
827.784	20.79
827.958	20.46
828.132	20.62
828.306	20.86
828.48	21
828.654	21.01
828.827	20.44
829.001	20.65
829.175	20.77
829.349	20.72
829.522	20.97
829.696	21.24
829.87	21.61
830.044	21.63
830.217	21.04
830.391	20.38
830.565	20.41
830.738	19.77
830.912	19.83
831.085	19.53
831.259	19.74
831.432	19.55
831.606	19.3
831.779	19.57
831.953	19.27
832.126	19.61
832.3	19.83
832.473	19.58
832.647	20.36
832.82	20.26
832.994	20.2
833.167	19.91
833.34	19.64
833.514	19.78
833.687	19.89
833.86	19.74
834.034	20.1
834.207	20.23
834.38	20.21
834.553	20.14
834.727	20.02
834.9	20.14
835.073	20.32
835.246	20.4
835.419	20.63
835.593	20.95
835.766	21.14
835.939	21.08
836.112	20.99
836.285	21.02
836.458	20.92
836.631	21.15
836.804	20.84
836.977	21.21
837.15	21.59
837.323	21.48
837.496	20.08
837.669	20.08
837.842	18.91
838.015	18.81
838.188	18.49
838.361	18.33
838.533	18.41
838.706	18.48
838.879	17.94
839.052	17.93
839.225	17.33
839.398	18.42
839.57	17.81
839.743	17.84
839.916	18.47
840.088	18.99
840.261	19.6
840.434	19.34
840.607	19.44
840.779	19.63
840.952	20.04
841.124	20.32
841.297	19.97
841.47	20.87
841.642	21.62
841.815	20.23
841.987	20.16
842.16	19.64
842.332	19.73
842.505	19.92
842.677	20.39
842.85	19.53
843.022	19.68
843.194	19.8
843.367	19.7
843.539	18.9
843.712	20.08
843.884	19.63
844.056	20.42
844.229	20.08
844.401	19.6
844.573	22.31
844.745	21.2
844.918	22.29
845.09	23.47
845.262	24.05
845.434	24.41
845.606	23.61
845.779	24.04
845.951	23.78
846.123	24.87
846.295	25.29
846.467	22.3
846.639	24.42
846.811	23.35
846.983	22.16
847.155	23.1
847.327	24.12
847.499	24.78
847.671	24.01
847.843	24.09
848.015	22.34
848.187	23.6
848.359	23.83
848.531	23.74
848.703	24.26
848.875	25.3
849.047	23.31
849.218	23.86
849.39	24.69
849.562	26.93
849.734	25.71
849.905	26.61
850.077	26.47
850.249	25.82
850.421	24.98
850.592	23.42
850.764	22.66
850.936	23.08
851.107	21.19
851.279	20.15
851.451	18.67
851.622	18.69
851.794	19.11
851.965	19.56
852.137	19.38
852.308	19.4
852.48	20.37
852.651	19.48
852.823	18.92
852.994	21.08
853.166	21.41
853.337	23.04
853.509	24
853.68	25.8
853.851	25.81
854.023	25.7
854.194	25.8
854.365	25.05
854.537	25.58
854.708	25.77
854.879	23.45
855.05	23.31
855.222	22.4
855.393	21.69
855.564	19.5
855.735	17.46
855.906	18.24
856.078	18.64
856.249	21.77
856.42	19.95
856.591	20.13
856.762	22.59
856.933	22.25
857.104	21.9
857.275	22.32
857.446	21.47
857.617	21.96
857.788	23.36
857.959	23.13
858.13	21.52
858.301	22.44
858.472	21.49
858.643	19.46
858.814	20.69
858.985	19.03
859.155	19.2
859.326	20.24
859.497	20.71
859.668	18.32
859.839	18.63
860.009	17.91
860.18	16.48
860.351	19.61
860.522	19.86
860.692	20.18
860.863	21.92
861.034	20.72
861.204	21.3
861.375	20.12
861.546	20.53
861.716	19.31
861.887	17.8
862.057	20.43
862.228	16.94
862.398	16.7
862.569	16.72
862.739	17.66
862.91	18.79
863.08	19.37
863.251	19.57
863.421	19.09
863.592	20.26
863.762	22.52
863.932	21.81
864.103	22.27
864.273	22.29
864.443	21.38
864.614	19.4
864.784	19.28
864.954	17.49
865.125	19.25
865.295	20.42
865.465	19.47
865.635	19.68
865.805	19.47
865.976	18.18
866.146	18.83
866.316	19.13
866.486	19.09
866.656	18.76
866.826	18.41
866.996	17.15
867.166	16.66
867.336	16.56
867.506	14.82
867.676	15.75
867.846	17.54
868.016	16.61
868.186	15.41
868.356	15.39
868.526	15.05
868.696	14.96
868.866	15.08
869.036	15.05
869.206	16.28
869.376	17.62
869.545	17.06
869.715	16.66
869.885	17.79
870.055	19.35
870.224	20.77
870.394	22.22
870.564	23.43
870.734	22.38
870.903	23.22
871.073	23
871.243	23.76
871.412	22.17
871.582	23.95
871.751	24.8
871.921	23.79
872.091	21.82
872.26	19.16
872.43	19.72
872.599	21.82
872.769	23.25
872.938	24.47
873.108	22.8
873.277	23.27
873.446	24.15
873.616	23.41
873.785	24.22
873.955	26.67
874.124	29.49
874.293	27.17
874.463	26.72
874.632	23.6
874.801	20.81
874.971	21.48
875.14	25.28
875.309	22
875.478	21.7
875.647	22.73
875.817	19.92
875.986	17.92
876.155	19.07
876.324	18.52
876.493	21.15
876.662	22.41
876.831	22.32
877	21.01
877.17	22.86
877.339	24.74
877.508	24.22
877.677	26.42
877.846	26.3
878.015	27.37
878.184	26.97
878.352	27.65
878.521	27.25
878.69	26.82
878.859	25.71
879.028	25.13
879.197	24.06
879.366	22.65
879.534	22.55
879.703	22.62
879.872	21.91
880.041	22.27
880.21	21.4
880.378	21.36
880.547	21.89
880.716	21.94
880.884	21.16
881.053	21.19
881.222	21.19
881.39	21.36
881.559	21.75
881.727	21.46
881.896	21.44
882.065	21.26
882.233	21.04
882.402	20.65
882.57	20.48
882.739	20.79
882.907	20.98
883.076	21.02
883.244	20.76
883.412	20.44
883.581	20.59
883.749	20.48
883.918	20.47
884.086	21.18
884.254	21.29
884.423	21.49
884.591	21.93
884.759	20.92
884.927	21.36
885.096	20.62
885.264	20.89
885.432	20.78
885.6	20.12
885.769	20.59
885.937	20.53
886.105	20.85
886.273	20.49
886.441	20.81
886.609	22.21
886.777	20.97
886.945	21.33
887.113	20.65
887.281	20.92
887.449	22.28
887.617	22.24
887.785	21.65
887.953	21.62
888.121	20.87
888.289	20.03
888.457	20.21
888.625	20.19
888.793	19.83
888.961	18.95
889.129	17.55
889.296	16.53
889.464	15.77
889.632	14.58
889.8	13.28
889.967	14.16
890.135	13.08
