Data from JASIL_3273_Reflection_1.txt Node
Date: Tue Nov 17 18:58:45 EST 2015
User: Geneva
Spectrometer: USB4E03002
Autoset integration time: false
Trigger mode: 4
Integration Time (sec): 1.000000E-1
Scans to average: 10
Electric dark correction enabled: false
Nonlinearity correction enabled: false
Boxcar width: 5
Stray light correction enabled: false
XAxis mode: Wavelengths
Stop averaging: false
Number of Pixels in Spectrum: 3648
>>>>>Begin Spectral Data<<<<<
177.575	315.62
177.794	294.24
178.014	400.32
178.233	289.77
178.452	306.45
178.672	371.16
178.891	381.25
179.11	413.18
179.33	475.17
179.549	431.2
179.768	363.34
179.987	388.1
180.207	464.18
180.426	382.83
180.645	553
180.864	652.88
181.084	899
181.303	-91100
181.522	-2325.33
181.741	-1945.63
181.96	-791.97
182.179	-689.2
182.398	-960.19
182.618	-2043.93
182.837	-6838.24
183.056	-3482.61
183.275	2601.02
183.494	1159.21
183.713	1191.27
183.932	746.61
184.151	693.62
184.37	517.74
184.589	524.42
184.808	650.66
185.027	752.84
185.246	1353.17
185.465	1371.36
185.684	1848.98
185.903	4013.24
186.122	1962.41
186.341	-5491.84
186.56	-1059.27
186.779	-1229.95
186.998	-1159.19
187.216	-1575.86
187.435	-823.64
187.654	-694.49
187.873	-721.72
188.092	-608.39
188.311	-1087.77
188.53	-3436.11
188.748	-3852.38
188.967	1220.83
189.186	-3041.1
189.405	9115.38
189.623	-227600
189.842	1523.6
190.061	762.21
190.28	1042.97
190.498	1285.27
190.717	10125.93
190.936	270400
191.154	3150
191.373	3078.95
191.592	1242.67
191.81	1153.65
192.029	1073.77
192.248	-1529.05
192.466	-1249.16
192.685	-900
192.904	-881.86
193.122	-1512.4
193.341	-1195.29
193.559	-929.55
193.778	-784.23
193.996	-1869.72
194.215	-3266.15
194.433	-2016.67
194.652	1067.86
194.87	1173.44
195.089	862.98
195.307	2649.38
195.526	-73000
195.744	203400
195.963	-2419.77
196.181	-1082.65
196.399	-634.3
196.618	-582.75
196.836	-1123.56
197.055	-972.5
197.273	-3166.67
197.491	-1303.68
197.71	-1845.45
197.928	5118.37
198.146	-3661.43
198.365	-2146.9
198.583	10316.67
198.801	15806.25
199.019	-4492.16
199.238	-2283.81
199.456	8630
199.674	-1717.81
199.892	3410.81
200.111	-2350.94
200.329	-1226.83
200.547	-7031.58
200.765	1523.91
200.983	-34375
201.202	-7781.82
201.42	126900
201.638	-2276.92
201.856	-551.62
202.074	-483.49
202.292	-372.78
202.51	-659.42
202.728	-681.08
202.946	-634.97
203.165	-526.02
203.383	-917.81
203.601	-830.04
203.819	-665.46
204.037	-713.64
204.255	-9133.33
204.473	1842.98
204.691	1144.81
204.909	1210.73
205.127	1042.44
205.345	2161.61
205.562	-3747.54
205.78	-13806.25
205.998	1940.68
206.216	1782.95
206.434	2013.82
206.652	11100
206.87	5310
207.088	-4187.93
207.306	10243.48
207.523	-13500
207.741	13341.18
207.959	2016.67
208.177	2153.45
208.395	1902.26
208.612	-4969.39
208.83	4035.48
209.048	1666.45
209.266	1964.1
209.483	1198.56
209.701	1006.87
209.919	1292.02
210.136	824
210.354	1298.61
210.572	1335.12
210.79	-50800
211.007	1342.42
211.225	2503.23
211.442	1733.82
211.66	1164.25
211.878	2171.03
212.095	6018.42
212.313	3927.78
212.53	-1379.87
212.748	6354.55
212.966	-1593.7
213.183	-5517.5
213.401	-2099.09
213.618	48660
213.836	-1781.34
214.053	-1266.5
214.271	-971.43
214.488	-900
214.705	-1732.09
214.923	-2128.83
215.14	-3111.39
215.358	-4783.02
215.575	25880
215.793	-2889.74
216.01	-1438.85
216.227	-902.53
216.445	-694.44
216.662	-2596.63
216.879	-1713.89
217.097	-1149.07
217.314	-1103.79
217.531	-1084.91
217.749	4340.74
217.966	5753.85
218.183	560.09
218.4	663.41
218.618	493.02
218.835	487.73
219.052	485.28
219.269	344.3
219.487	320.91
219.704	319.54
219.921	292.62
220.138	468.42
220.355	463.39
220.572	809.3
220.79	506.95
221.007	530.12
221.224	373.64
221.441	389.59
221.658	527.74
221.875	624.06
222.092	621.47
222.309	631.66
222.526	373.27
222.743	360.79
222.96	398.48
223.177	456.48
223.394	369.09
223.611	483.87
223.828	517.37
224.045	425.08
224.262	386.26
224.479	312.34
224.696	317.14
224.913	411.34
225.13	435.09
225.347	483.59
225.564	371.22
225.781	427.18
225.997	346.05
226.214	236.36
226.431	207.32
226.648	180.92
226.865	162.14
227.082	133.87
227.298	106.36
227.515	93.28
227.732	87.93
227.949	91.4
228.165	85.56
228.382	86.5
228.599	93.69
228.816	94.81
229.032	96.09
229.249	104.59
229.466	110.85
229.682	124.7
229.899	140.1
230.116	149.11
230.332	148.93
230.549	160.41
230.765	170.65
230.982	159.91
231.199	159.94
231.415	174.32
231.632	181.97
231.848	177.52
232.065	178.6
232.281	174.01
232.498	154.23
232.714	147.51
232.931	156.64
233.147	154.48
233.364	161.79
233.58	157.25
233.797	168.59
234.013	166.87
234.23	166.61
234.446	164.78
234.662	150.02
234.879	151.94
235.095	157.94
235.312	148.4
235.528	149.89
235.744	150.17
235.961	164.53
236.177	152.55
236.393	158.16
236.61	152.79
236.826	153.43
237.042	170.49
237.258	167.2
237.475	150.36
237.691	163.12
237.907	155.84
238.123	148.77
238.339	139.25
238.556	128.6
238.772	119.73
238.988	118.85
239.204	113.36
239.42	103.61
239.636	101.21
239.853	99.32
240.069	87.23
240.285	78.23
240.501	76.84
240.717	72.34
240.933	65.23
241.149	63.25
241.365	60.29
241.581	57.4
241.797	60.81
242.013	59.89
242.229	59.03
242.445	60.86
242.661	65.93
242.877	67.37
243.093	69.16
243.309	73.13
243.525	75.68
243.741	78.76
243.957	80.51
244.173	73.37
244.388	72.63
244.604	66.94
244.82	64.61
245.036	55.02
245.252	50.48
245.468	45.15
245.683	42.52
245.899	41.33
246.115	39.49
246.331	37.13
246.547	37.5
246.762	35.25
246.978	35.35
247.194	34.61
247.409	34.91
247.625	37.35
247.841	40.41
248.057	42.29
248.272	45.61
248.488	52.18
248.703	55.43
248.919	61.78
249.135	69.09
249.35	67.7
249.566	71.62
249.782	73.81
249.997	72.02
250.213	72.2
250.428	67.28
250.644	62.13
250.859	60.32
251.075	61.24
251.29	55.81
251.506	53.82
251.721	57.94
251.937	55.77
252.152	60.58
252.368	64.11
252.583	68.36
252.798	74.61
253.014	81.18
253.229	80.86
253.445	82.06
253.66	89.96
253.875	98.32
254.091	101.32
254.306	106.7
254.521	107.24
254.737	106.8
254.952	99.84
255.167	98.91
255.383	92.77
255.598	92.51
255.813	90.12
256.028	85.44
256.244	80.82
256.459	74.54
256.674	61.97
256.889	55.76
257.104	48.02
257.32	42.06
257.535	38.43
257.75	34.15
257.965	31.59
258.18	29.14
258.395	27.06
258.61	23.84
258.826	23.61
259.041	23.28
259.256	22.64
259.471	23.34
259.686	24.38
259.901	24.33
260.116	26.51
260.331	26.99
260.546	28.78
260.761	30.18
260.976	32.99
261.191	33.99
261.406	38.21
261.621	43.93
261.836	45.28
262.05	46.77
262.265	51.38
262.48	51.75
262.695	54.62
262.91	55.74
263.125	55.55
263.34	55.57
263.555	59.06
263.769	56.35
263.984	51.92
264.199	52.64
264.414	53.32
264.629	53.09
264.843	54.11
265.058	50.53
265.273	48.07
265.488	46.37
265.702	45.28
265.917	40.36
266.132	39.1
266.346	40.34
266.561	36.87
266.776	36.44
266.99	33.29
267.205	32.6
267.42	30.23
267.634	30
267.849	34.37
268.063	35.62
268.278	38.83
268.492	39.07
268.707	39.05
268.922	40.95
269.136	38.08
269.351	38.86
269.565	36.72
269.78	39.54
269.994	37.55
270.209	35.78
270.423	35.61
270.637	34.92
270.852	35.89
271.066	36.26
271.281	35.94
271.495	36.05
271.709	35.46
271.924	35.85
272.138	33.67
272.353	34.16
272.567	33.4
272.781	34.31
272.996	34.09
273.21	34.09
273.424	32.15
273.638	33.43
273.853	34.81
274.067	34.65
274.281	36.47
274.495	40.74
274.71	41.85
274.924	42.99
275.138	41.69
275.352	40.2
275.566	39.37
275.781	39.15
275.995	37.79
276.209	38.2
276.423	36.22
276.637	34.65
276.851	29.53
277.065	30.06
277.279	29.81
277.493	30.1
277.707	32.56
277.921	30.39
278.135	32.81
278.349	33.16
278.563	33.75
278.777	33.57
278.991	34.53
279.205	36.87
279.419	36.32
279.633	36.26
279.847	34.2
280.061	32.69
280.275	33.88
280.489	31.61
280.703	31.26
280.917	31.63
281.131	34.1
281.344	33.31
281.558	31.89
281.772	31.11
281.986	29.06
282.2	30.02
282.414	29.66
282.627	30.25
282.841	32.32
283.055	32.02
283.269	30.42
283.482	30.12
283.696	30.04
283.91	30.62
284.123	30.44
284.337	32.04
284.551	31.41
284.764	31.33
284.978	31.45
285.192	30.75
285.405	30.89
285.619	30.65
285.833	29.61
286.046	29.03
286.26	28.07
286.473	28.31
286.687	27.87
286.9	29.08
287.114	30.09
287.327	30.21
287.541	31.3
287.754	31.64
287.968	30.07
288.181	30.91
288.395	30.74
288.608	30.85
288.822	31.77
289.035	30.91
289.248	30.45
289.462	30.18
289.675	29.77
289.889	29.35
290.102	29.32
290.315	31.48
290.529	30.17
290.742	31.27
290.955	31.97
291.169	31.41
291.382	31.64
291.595	31.68
291.808	30.7
292.022	30.14
292.235	27.94
292.448	28.1
292.661	26.18
292.875	26.89
293.088	25.81
293.301	26.56
293.514	24.36
293.727	24.98
293.94	25.91
294.153	27.38
294.367	26.6
294.58	26.89
294.793	24.37
295.006	26.06
295.219	25.17
295.432	24.33
295.645	23.56
295.858	24.37
296.071	23.5
296.284	22.93
296.497	20.99
296.71	21.9
296.923	22.25
297.136	23.32
297.349	22.88
297.562	24.19
297.775	25.68
297.988	26.3
298.201	27.38
298.414	28.57
298.626	28.85
298.839	30.75
299.052	31.25
299.265	32.34
299.478	32.53
299.691	31.28
299.903	31.1
300.116	31.21
300.329	30.51
300.542	30.07
300.755	28.8
300.967	28.99
301.18	28.29
301.393	28.46
301.605	28.65
301.818	28.75
302.031	31.72
302.243	32.24
302.456	31.87
302.669	32.79
302.881	33.76
303.094	34.99
303.307	35.19
303.519	36.34
303.732	37.3
303.944	36.26
304.157	36.18
304.37	36.39
304.582	37.21
304.795	38.22
305.007	38.03
305.22	35.86
305.432	35.68
305.645	34.88
305.857	34.48
306.069	32.68
306.282	32.48
306.494	32.68
306.707	30.12
306.919	27.28
307.132	26.3
307.344	25.53
307.556	27.09
307.769	26.43
307.981	26.34
308.193	26.23
308.406	24.22
308.618	24.14
308.83	25.09
309.043	25.54
309.255	26
309.467	26.23
309.679	26.18
309.892	25.55
310.104	26.57
310.316	26.08
310.528	24.91
310.74	26.67
310.953	28.09
311.165	27.74
311.377	28.52
311.589	29.94
311.801	28.46
312.013	30
312.225	29.8
312.437	29.93
312.649	31.26
312.862	31.88
313.074	31.88
313.286	30.69
313.498	29.36
313.71	27.28
313.922	25.65
314.134	27.51
314.346	27.12
314.558	28.83
314.77	27.64
314.982	28.73
315.193	29.28
315.405	29.95
315.617	29.35
315.829	29.48
316.041	30.63
316.253	30.25
316.465	31.75
316.677	30.51
316.888	31.27
317.1	32.94
317.312	31.16
317.524	30.77
317.736	30.33
317.947	32.98
318.159	35.55
318.371	33.91
318.583	36.19
318.794	35.29
319.006	37.78
319.218	35.97
319.43	33.87
319.641	34.79
319.853	36.62
320.064	37.43
320.276	37.1
320.488	34.9
320.699	37.37
320.911	37.88
321.123	39.53
321.334	39.08
321.546	40.31
321.757	42.47
321.969	41.55
322.18	41.98
322.392	41.88
322.603	40.79
322.815	42.69
323.026	43.53
323.238	42.64
323.449	40.8
323.661	39.39
323.872	40.67
324.083	40.12
324.295	42.22
324.506	41.71
324.718	42.3
324.929	44.25
325.14	43.44
325.352	43.59
325.563	43.8
325.774	45.23
325.986	46.13
326.197	45.9
326.408	47.04
326.62	45.26
326.831	44.8
327.042	44.56
327.253	44.27
327.464	44.8
327.676	44.61
327.887	44.83
328.098	46.27
328.309	47.68
328.52	47.28
328.732	47.85
328.943	49.74
329.154	50.1
329.365	51.77
329.576	52.05
329.787	52.39
329.998	53.09
330.209	55.24
330.42	52.94
330.631	52.23
330.842	52.46
331.053	53.17
331.264	52.72
331.475	53.32
331.686	50.9
331.897	50.95
332.108	51.87
332.319	51.27
332.53	50.58
332.741	52.38
332.952	52.09
333.163	51.56
333.374	49.63
333.585	49.3
333.795	48.59
334.006	50.2
334.217	50.79
334.428	50.16
334.639	50.08
334.849	50.29
335.06	48.65
335.271	47.88
335.482	48.04
335.692	48.01
335.903	48.39
336.114	48.29
336.325	48.29
336.535	46.88
336.746	46.19
336.957	46.87
337.167	46.66
337.378	47.25
337.589	47.99
337.799	46.91
338.01	47.9
338.22	46.71
338.431	46.7
338.642	46.37
338.852	46.5
339.063	47.3
339.273	47.33
339.484	46.2
339.694	46.75
339.905	47.03
340.115	47.01
340.326	45.06
340.536	44.99
340.746	45.26
340.957	46.03
341.167	45.92
341.378	45.49
341.588	46.53
341.799	47.09
342.009	46.4
342.219	47.05
342.43	47.49
342.64	48.28
342.85	48.83
343.061	48.96
343.271	48.22
343.481	46.97
343.691	47.14
343.902	44.61
344.112	44.62
344.322	44.35
344.532	43.62
344.743	43.67
344.953	44.06
345.163	44.06
345.373	43.95
345.583	43.53
345.793	44.48
346.004	43.61
346.214	45.32
346.424	45.16
346.634	45.27
346.844	44.73
347.054	44.1
347.264	44.84
347.474	44.95
347.684	44.73
347.894	44.41
348.104	44.63
348.314	44.71
348.524	43.34
348.734	42.81
348.944	43.18
349.154	43.32
349.364	43.43
349.574	44.22
349.784	45.61
349.994	46.73
350.204	46.84
350.413	47.38
350.623	46.98
350.833	46.59
351.043	46.42
351.253	45.65
351.463	46.14
351.672	45.22
351.882	43.07
352.092	40.52
352.302	39.64
352.511	40.23
352.721	38.08
352.931	38.5
353.141	38.81
353.35	39
353.56	39.04
353.77	38.14
353.979	39.45
354.189	39.5
354.399	40.53
354.608	39.73
354.818	38.64
355.027	40.51
355.237	40.07
355.447	40.3
355.656	40.3
355.866	40.61
356.075	40.59
356.285	40.22
356.494	40.16
356.704	39.44
356.913	39.72
357.123	41.07
357.332	39.3
357.542	39.67
357.751	39.22
357.96	38.5
358.17	37.75
358.379	37.24
358.589	37.09
358.798	36.41
359.007	36.31
359.217	36.02
359.426	35.01
359.635	35.83
359.845	35.35
360.054	34.95
360.263	35.22
360.472	35.15
360.682	35.36
360.891	34.9
361.1	34.84
361.309	34.47
361.519	34.17
361.728	33.8
361.937	33.67
362.146	33.59
362.355	34.47
362.564	33.98
362.774	33.8
362.983	33.88
363.192	34.13
363.401	34.02
363.61	34.25
363.819	33.79
364.028	32.56
364.237	32.65
364.446	32.17
364.655	31.47
364.864	32.51
365.073	32.58
365.282	32.23
365.491	31.76
365.7	32.77
365.909	33.29
366.118	34.97
366.327	36.48
366.536	36.08
366.745	36.15
366.954	36.57
367.162	35.88
367.371	36.47
367.58	37.29
367.789	37.94
367.998	37.99
368.207	38.18
368.415	37.95
368.624	38.61
368.833	38.59
369.042	39.75
369.25	39.55
369.459	40.2
369.668	39.77
369.877	38.79
370.085	38.88
370.294	38.39
370.503	38.01
370.711	36.73
370.92	35.89
371.129	36.68
371.337	36.42
371.546	35.97
371.754	35.7
371.963	36.02
372.171	36.74
372.38	36.56
372.589	37.41
372.797	37.13
373.006	38
373.214	38.01
373.423	37.59
373.631	37.53
373.84	37.92
374.048	37.64
374.256	37.48
374.465	36.77
374.673	37.11
374.882	36.3
375.09	37.04
375.298	35.71
375.507	35.95
375.715	36.37
375.923	36.2
376.132	35.73
376.34	36.01
376.548	35.98
376.757	36.32
376.965	35.35
377.173	35.03
377.381	34.43
377.59	36.15
377.798	36.14
378.006	35.02
378.214	35.46
378.423	35.04
378.631	34.07
378.839	34.27
379.047	34.75
379.255	35.34
379.463	35.87
379.671	36
379.879	35.65
380.088	35.54
380.296	36.2
380.504	36.37
380.712	37.12
380.92	36.93
381.128	36.7
381.336	36.53
381.544	36.91
381.752	37.51
381.96	38.39
382.168	37.75
382.376	37.17
382.584	37.27
382.791	36.46
382.999	36.78
383.207	37.5
383.415	37.16
383.623	36.27
383.831	35.67
384.039	34.68
384.247	33.5
384.454	33.87
384.662	34.58
384.87	34.21
385.078	33.37
385.285	33.04
385.493	31.98
385.701	31.75
385.909	31.72
386.116	31.63
386.324	31.03
386.532	31
386.739	30.73
386.947	30.66
387.155	30.74
387.362	31.58
387.57	31.59
387.778	31.52
387.985	32.23
388.193	32.97
388.4	32.86
388.608	33
388.816	33.08
389.023	32.78
389.231	32.24
389.438	31.58
389.646	30.84
389.853	30.07
390.061	29.96
390.268	29.37
390.475	29.4
390.683	29.97
390.89	30.52
391.098	30.62
391.305	31.02
391.512	30.46
391.72	30.72
391.927	30.86
392.135	31.13
392.342	32.03
392.549	31.55
392.756	31.08
392.964	30.21
393.171	29.59
393.378	29.42
393.586	29.35
393.793	30.78
394	30.81
394.207	30.83
394.414	30.85
394.622	30.65
394.829	31.13
395.036	31.3
395.243	31.82
395.45	32.66
395.657	32.56
395.864	32.16
396.072	31.72
396.279	31.54
396.486	31.69
396.693	32.11
396.9	31.59
397.107	31.54
397.314	31.43
397.521	31.06
397.728	30.69
397.935	30.58
398.142	30.71
398.349	29.76
398.556	29.72
398.763	29.94
398.97	29.52
399.177	29.81
399.383	29.68
399.59	29.43
399.797	29.36
400.004	29.83
400.211	29.43
400.418	28.99
400.625	29.66
400.831	29.92
401.038	29.46
401.245	29.81
401.452	29.97
401.658	29.87
401.865	30.19
402.072	30.53
402.279	29.58
402.485	29.84
402.692	29.48
402.899	29.1
403.105	28.56
403.312	28.89
403.519	28.73
403.725	28.23
403.932	28.03
404.138	27.57
404.345	27.85
404.552	27.97
404.758	28.36
404.965	28.76
405.171	28.91
405.378	29.39
405.584	29.13
405.791	28.53
405.997	29.53
406.204	29.86
406.41	29.56
406.617	29.32
406.823	29.31
407.029	28.91
407.236	28.35
407.442	28.32
407.649	28.31
407.855	28.3
408.061	28.69
408.268	28.04
408.474	27.61
408.68	28.39
408.887	28.07
409.093	28.03
409.299	27.77
409.505	28.74
409.712	28.94
409.918	28.87
410.124	28.96
410.33	28.72
410.537	28.37
410.743	28.09
410.949	27.57
411.155	27.26
411.361	27.07
411.567	26.95
411.773	26.84
411.98	26.74
412.186	25.8
412.392	25.1
412.598	25.11
412.804	25.54
413.01	26.16
413.216	26.31
413.422	27.19
413.628	27.1
413.834	27.12
414.04	26.64
414.246	25.86
414.452	26.09
414.658	26.67
414.864	26.55
415.07	25.94
415.275	25.69
415.481	25.63
415.687	25.14
415.893	24.79
416.099	24.24
416.305	23.87
416.511	24.38
416.716	24.33
416.922	24.53
417.128	24.65
417.334	24.99
417.539	24.7
417.745	24.24
417.951	23.71
418.157	23.63
418.362	23.9
418.568	23.69
418.774	23.1
418.979	23.28
419.185	22.61
419.391	22.09
419.596	21.28
419.802	21.34
420.008	21.12
420.213	21.41
420.419	21.53
420.624	21.36
420.83	21.42
421.035	21.53
421.241	21.13
421.446	21.33
421.652	21.27
421.857	21.65
422.063	21.63
422.268	21.51
422.474	21.56
422.679	21.7
422.885	21.63
423.09	21.47
423.295	21.3
423.501	21.66
423.706	21.48
423.911	21.56
424.117	21.53
424.322	21.44
424.527	21.8
424.733	21.82
424.938	21.63
425.143	21.64
425.349	22.01
425.554	22.47
425.759	22.18
425.964	22.54
426.169	22.72
426.375	23.11
426.58	23.23
426.785	23.34
426.99	23.17
427.195	23.53
427.4	23.57
427.605	23.43
427.811	22.96
428.016	23.03
428.221	22.8
428.426	22.74
428.631	22.7
428.836	23.09
429.041	22.97
429.246	22.99
429.451	22.96
429.656	23.06
429.861	22.77
430.066	23.37
430.271	23.38
430.476	23.55
430.681	23.37
430.886	23.01
431.09	22.84
431.295	23.16
431.5	23.12
431.705	22.89
431.91	23.08
432.115	22.74
432.32	22.03
432.524	22.1
432.729	21.99
432.934	21.85
433.139	21.9
433.343	21.68
433.548	21.27
433.753	21.26
433.958	21.19
434.162	21.12
434.367	21.4
434.572	21.43
434.776	21.35
434.981	21.47
435.186	21.99
435.39	21.94
435.595	21.82
435.799	21.84
436.004	21.4
436.209	21.21
436.413	20.96
436.618	20.87
436.822	21.21
437.027	20.85
437.231	20.64
437.436	20.15
437.64	20.23
437.845	20.22
438.049	20.32
438.253	20.64
438.458	20.63
438.662	20.55
438.867	20.84
439.071	20.47
439.275	20.75
439.48	20.83
439.684	20.83
439.888	20.56
440.093	20.67
440.297	20.75
440.501	20.7
440.706	20.73
440.91	20.89
441.114	20.56
441.318	20.82
441.523	20.7
441.727	20.42
441.931	20.88
442.135	21
442.339	20.86
442.543	21.04
442.748	21.12
442.952	21.1
443.156	21.18
443.36	21.41
443.564	21.33
443.768	21.08
443.972	20.96
444.176	20.2
444.38	20.32
444.584	20.47
444.788	20.16
444.992	19.86
445.196	19.75
445.4	19.41
445.604	19.36
445.808	19.29
446.012	19.28
446.216	19.41
446.42	19.75
446.624	19.59
446.828	19.43
447.032	19.37
447.235	19.55
447.439	19.84
447.643	20.19
447.847	20.5
448.051	20.42
448.254	20.42
448.458	20.35
448.662	20.51
448.866	20.5
449.069	20.65
449.273	20.61
449.477	20.65
449.681	20.28
449.884	19.98
450.088	19.33
450.292	19.82
450.495	20.12
450.699	20.14
450.902	20.33
451.106	20.28
451.31	19.96
451.513	20.12
451.717	19.96
451.92	20.04
452.124	20.05
452.327	20.55
452.531	20.59
452.734	20.57
452.938	20.48
453.141	20.38
453.345	20.61
453.548	20.91
453.752	21.14
453.955	20.81
454.158	20.87
454.362	21.02
454.565	20.9
454.769	20.72
454.972	20.59
455.175	20.67
455.379	20.49
455.582	20.32
455.785	20.3
455.988	19.8
456.192	20.01
456.395	20.08
456.598	20.33
456.801	20.06
457.005	20.04
457.208	19.75
457.411	19.5
457.614	19.21
457.817	18.9
458.021	18.52
458.224	18.53
458.427	18.25
458.63	17.99
458.833	17.76
459.036	17.77
459.239	17.75
459.442	18.02
459.645	18.01
459.848	17.99
460.051	18.31
460.254	18.83
460.457	19.29
460.66	19.54
460.863	19.46
461.066	19.25
461.269	19.39
461.472	19.55
461.675	19.59
461.878	20.17
462.081	20.55
462.284	20.09
462.486	19.89
462.689	19.4
462.892	19.61
463.095	20.32
463.298	20.7
463.5	20.51
463.703	20.23
463.906	20.38
464.109	20.25
464.311	20.48
464.514	20.84
464.717	21
464.92	21.19
465.122	21.03
465.325	20.86
465.528	20.99
465.73	21.19
465.933	21.13
466.135	20.63
466.338	20.48
466.541	20.29
466.743	20.48
466.946	20.25
467.148	19.83
467.351	20.07
467.553	20.07
467.756	19.46
467.958	19.53
468.161	19.1
468.363	19.26
468.566	19.56
468.768	19.54
468.971	19.34
469.173	19.32
469.375	19.68
469.578	19.77
469.78	19.98
469.983	20.05
470.185	20.2
470.387	20.4
470.59	20.51
470.792	20.58
470.994	20.74
471.196	20.46
471.399	20.61
471.601	20.53
471.803	19.62
472.005	19.29
472.208	19.28
472.41	18.74
472.612	19.06
472.814	19.26
473.016	19.08
473.218	18.67
473.421	19.3
473.623	19.06
473.825	19.06
474.027	19.33
474.229	19.05
474.431	19.01
474.633	19.23
474.835	19.14
475.037	18.83
475.239	18.46
475.441	18.5
475.643	18
475.845	17.93
476.047	18.07
476.249	18.32
476.451	18.68
476.653	18.66
476.855	18.47
477.057	18.14
477.258	18.18
477.46	18.47
477.662	18.46
477.864	18.54
478.066	18.15
478.268	17.85
478.469	18.06
478.671	17.79
478.873	18.13
479.075	17.83
479.276	17.96
479.478	17.8
479.68	17.25
479.882	17.28
480.083	17.16
480.285	17.37
480.487	17.03
480.688	16.6
480.89	16.4
481.091	15.98
481.293	15.99
481.495	15.91
481.696	15.67
481.898	15.64
482.099	15.43
482.301	15.36
482.502	15.22
482.704	15.23
482.905	15.18
483.107	15.13
483.308	15.1
483.51	15.1
483.711	15
483.913	15.02
484.114	14.97
484.315	15.01
484.517	15.01
484.718	15.1
484.92	15.17
485.121	15.18
485.322	15.26
485.524	15.38
485.725	15.5
485.926	15.53
486.127	15.49
486.329	15.57
486.53	15.54
486.731	15.36
486.932	15.18
487.134	15.14
487.335	15.25
487.536	15.31
487.737	15.4
487.938	15.38
488.139	15.39
488.341	15.53
488.542	15.45
488.743	15.66
488.944	16
489.145	16.3
489.346	16.35
489.547	16.34
489.748	16.28
489.949	16.1
490.15	15.86
490.351	15.78
490.552	15.67
490.753	15.7
490.954	15.48
491.155	15.38
491.356	15.18
491.557	15.28
491.758	15.28
491.959	15.35
492.159	15.41
492.36	15.75
492.561	15.81
492.762	16
492.963	16.3
493.164	16.5
493.364	16.76
493.565	17.29
493.766	17.4
493.967	17.44
494.167	17.65
494.368	17.66
494.569	17.66
494.769	18.16
494.97	17.89
495.171	17.92
495.371	17.86
495.572	17.79
495.773	17.55
495.973	17.61
496.174	17.56
496.375	17.36
496.575	17.45
496.776	17.42
496.976	17.01
497.177	17.29
497.377	17.12
497.578	17.25
497.778	17.32
497.979	17.62
498.179	17.53
498.38	17.73
498.58	17.49
498.78	17.83
498.981	17.88
499.181	18.41
499.382	18.57
499.582	18.66
499.782	18.69
499.983	18.54
500.183	18.37
500.383	18.6
500.584	18.57
500.784	18.7
500.984	18.4
501.184	18.34
501.385	17.99
501.585	18.14
501.785	18.36
501.985	18.24
502.185	18.02
502.386	17.97
502.586	17.84
502.786	17.87
502.986	18.04
503.186	18.22
503.386	18.19
503.586	18.53
503.786	18.2
503.987	18.37
504.187	18.56
504.387	18.86
504.587	18.84
504.787	18.84
504.987	18.43
505.187	18.37
505.387	18.42
505.587	18.54
505.786	18.65
505.986	18.66
506.186	18.05
506.386	18.01
506.586	18.13
506.786	18.36
506.986	18.48
507.186	18.9
507.386	18.98
507.585	18.93
507.785	18.65
507.985	18.28
508.185	18.19
508.384	18.41
508.584	18.42
508.784	18.32
508.984	18.04
509.183	17.85
509.383	17.63
509.583	17.46
509.782	17.16
509.982	17.4
510.182	17.21
510.381	17.51
510.581	17.4
510.781	17.49
510.98	17.48
511.18	17.58
511.379	17.36
511.579	17.56
511.778	17.69
511.978	17.88
512.177	17.75
512.377	17.94
512.576	17.72
512.776	17.66
512.975	17.43
513.175	17.39
513.374	17.46
513.573	18.01
513.773	18.12
513.972	18.18
514.172	18.37
514.371	18.73
514.57	18.65
514.77	18.64
514.969	18.91
515.168	18.83
515.367	18.79
515.567	18.93
515.766	18.67
515.965	18.48
516.164	18.35
516.364	18.18
516.563	17.9
516.762	18.08
516.961	18.24
517.16	17.99
517.359	17.95
517.559	18
517.758	17.78
517.957	17.84
518.156	18.08
518.355	18.25
518.554	18.34
518.753	18.42
518.952	18.29
519.151	18.26
519.35	18.63
519.549	19.01
519.748	19.17
519.947	19.36
520.146	19.25
520.345	18.91
520.544	19.02
520.743	18.86
520.942	18.92
521.141	18.92
521.339	19.17
521.538	19.12
521.737	19.12
521.936	18.87
522.135	19
522.333	18.82
522.532	18.78
522.731	18.54
522.93	18.5
523.129	18.67
523.327	18.79
523.526	18.7
523.725	18.33
523.923	18.08
524.122	18.02
524.321	17.69
524.519	18.05
524.718	18.12
524.917	18.1
525.115	18.19
525.314	18.11
525.512	17.93
525.711	17.69
525.909	17.73
526.108	17.62
526.306	17.63
526.505	17.5
526.703	17.21
526.902	17.03
527.1	16.96
527.299	16.85
527.497	16.7
527.696	16.72
527.894	16.63
528.092	16.5
528.291	16.64
528.489	16.67
528.688	16.78
528.886	16.85
529.084	17.1
529.283	17.2
529.481	17.33
529.679	17.29
529.877	17.37
530.076	17.45
530.274	17.83
530.472	17.81
530.67	18.02
530.869	18.18
531.067	18.35
531.265	18.22
531.463	18.23
531.661	18.18
531.859	18.39
532.057	18.3
532.255	18.47
532.454	18.53
532.652	18.46
532.85	18.42
533.048	18.39
533.246	18.45
533.444	18.52
533.642	18.5
533.84	18.79
534.038	18.76
534.236	18.81
534.434	18.81
534.632	18.98
534.83	19.01
535.027	18.95
535.225	19.01
535.423	18.94
535.621	18.74
535.819	18.86
536.017	18.53
536.215	18.46
536.412	18.75
536.61	18.82
536.808	18.64
537.006	18.73
537.203	18.64
537.401	18.45
537.599	18.54
537.797	18.8
537.994	18.95
538.192	19.14
538.39	19.35
538.587	19.26
538.785	19.07
538.983	19.15
539.18	19.04
539.378	18.98
539.575	18.88
539.773	18.74
539.97	18.71
540.168	18.51
540.366	18.43
540.563	18.46
540.761	18.51
540.958	18.53
541.155	18.55
541.353	18.6
541.55	18.79
541.748	18.96
541.945	19.24
542.143	19.33
542.34	19.65
542.537	19.89
542.735	19.98
542.932	20.05
543.129	20.26
543.327	20.37
543.524	20.58
543.721	20.56
543.919	20.51
544.116	20.36
544.313	20.48
544.51	20.29
544.708	20.2
544.905	20.34
545.102	20.25
545.299	20.29
545.496	20.21
545.693	20.5
545.891	20.87
546.088	21.15
546.285	21.22
546.482	21.23
546.679	21.33
546.876	21.55
547.073	21.89
547.27	22.11
547.467	22.43
547.664	22.58
547.861	22.29
548.058	22.03
548.255	21.91
548.452	21.96
548.649	22.48
548.846	22.89
549.043	23.09
549.24	23.2
549.437	23.28
549.633	23.22
549.83	23.31
550.027	23.51
550.224	23.92
550.421	24.15
550.618	24.49
550.814	24.16
551.011	24.14
551.208	24.18
551.405	24.02
551.601	24.27
551.798	24.48
551.995	24.79
552.191	24.79
552.388	24.49
552.585	24.45
552.781	24.12
552.978	24.26
553.175	24.46
553.371	24.58
553.568	24.54
553.764	24.86
553.961	24.96
554.157	24.86
554.354	25.17
554.55	25.64
554.747	25.98
554.943	26.6
555.14	26.54
555.336	26.61
555.533	26.38
555.729	26.22
555.926	26.26
556.122	26.44
556.318	26.51
556.515	26.61
556.711	26.72
556.907	27.05
557.104	26.93
557.3	27.4
557.496	27.37
557.693	27.76
557.889	28.13
558.085	28.28
558.281	28.42
558.478	28.84
558.674	28.83
558.87	28.74
559.066	28.89
559.262	29.28
559.459	28.9
559.655	29.08
559.851	29.36
560.047	29.67
560.243	29.26
560.439	29
560.635	28.65
560.831	28.29
561.027	28.7
561.223	28.66
561.419	28.62
561.615	28.97
561.811	29.16
562.007	29.01
562.203	28.94
562.399	29.08
562.595	29.07
562.791	29.36
562.987	29.76
563.183	29.79
563.379	29.84
563.575	29.69
563.771	29.81
563.966	29.61
564.162	29.88
564.358	30.03
564.554	30.12
564.75	30.13
564.945	30.18
565.141	30.19
565.337	30.11
565.533	30.18
565.728	30.46
565.924	30.52
566.12	30.65
566.315	30.62
566.511	30.48
566.707	30.61
566.902	30.84
567.098	30.88
567.293	31.33
567.489	31.37
567.684	31.26
567.88	31.23
568.076	31
568.271	31.17
568.467	31.31
568.662	31.43
568.858	31.74
569.053	32.41
569.248	32.32
569.444	32.04
569.639	32.39
569.835	32.52
570.03	32.58
570.225	32.89
570.421	32.79
570.616	32.53
570.812	32.57
571.007	32.7
571.202	32.24
571.397	32.38
571.593	32.2
571.788	32.15
571.983	32.57
572.178	32.81
572.374	32.93
572.569	33.27
572.764	33.58
572.959	33.91
573.154	33.41
573.35	33.4
573.545	33.95
573.74	34.62
573.935	34.51
574.13	34.37
574.325	34
574.52	34.1
574.715	33.98
574.91	33.86
575.105	33.79
575.3	34.28
575.495	34.71
575.69	34.64
575.885	34.73
576.08	34.9
576.275	35.29
576.47	35.74
576.665	35.82
576.86	36.05
577.055	36.66
577.25	36.74
577.444	37.18
577.639	37.15
577.834	36.59
578.029	36.24
578.224	36.61
578.418	36.41
578.613	36.66
578.808	36.56
579.003	36.3
579.197	35.89
579.392	36.02
579.587	35.59
579.781	36.02
579.976	36.47
580.171	36.88
580.365	36.81
580.56	37.03
580.755	37.29
580.949	37.91
581.144	38.48
581.338	39.06
581.533	39.21
581.727	39.49
581.922	39.84
582.116	40.14
582.311	39.84
582.505	39.61
582.7	39.92
582.894	39.7
583.089	39.7
583.283	39.67
583.478	39.82
583.672	39.63
583.866	39.59
584.061	39.46
584.255	39.81
584.449	39.77
584.644	40.1
584.838	39.65
585.032	39.77
585.226	39.52
585.421	39.52
585.615	39.22
585.809	39.43
586.003	39.66
586.198	39.7
586.392	39.28
586.586	39.7
586.78	39.65
586.974	39.87
587.168	40
587.363	40.37
587.557	40.5
587.751	40.56
587.945	40.74
588.139	40.63
588.333	40.56
588.527	40.74
588.721	40.76
588.915	41.06
589.109	40.93
589.303	40.6
589.497	40.64
589.691	40.88
589.885	40.94
590.079	40.65
590.273	40.93
590.466	40.45
590.66	40.46
590.854	40.28
591.048	40.04
591.242	39.92
591.436	39.78
591.629	39.51
591.823	39.43
592.017	39.46
592.211	39.69
592.404	39.6
592.598	40.14
592.792	39.82
592.986	40.21
593.179	40.19
593.373	40.22
593.567	40.95
593.76	41.07
593.954	40.78
594.147	40.79
594.341	40.09
594.535	40.44
594.728	40.15
594.922	40.39
595.115	40.03
595.309	40.21
595.502	40.29
595.696	39.88
595.889	39.54
596.083	39.38
596.276	39.36
596.47	39.94
596.663	39.72
596.856	39.85
597.05	39.92
597.243	40.4
597.437	40.68
597.63	40.81
597.823	40.86
598.017	41.54
598.21	42.05
598.403	42.11
598.596	42.62
598.79	42.7
598.983	42.78
599.176	43.06
599.369	42.72
599.563	42.52
599.756	42.77
599.949	42.7
600.142	42.34
600.335	41.83
600.528	41.94
600.722	41.28
600.915	41.3
601.108	41.15
601.301	41.12
601.494	41.18
601.687	41.42
601.88	40.97
602.073	41.08
602.266	40.81
602.459	41.07
602.652	40.97
602.845	41.16
603.038	40.56
603.231	40.52
603.424	40.18
603.617	39.94
603.809	39.18
604.002	39.3
604.195	39.09
604.388	38.62
604.581	38.29
604.774	38.26
604.966	38.28
605.159	39.08
605.352	39.07
605.545	39.33
605.737	39.55
605.93	40.12
606.123	40.36
606.316	40.95
606.508	41.68
606.701	42.33
606.894	41.97
607.086	42.45
607.279	42.04
607.471	42.14
607.664	41.87
607.857	42.12
608.049	42.03
608.242	41.69
608.434	41.46
608.627	41.55
608.819	41.28
609.012	41.42
609.204	40.68
609.397	41.01
609.589	41.16
609.782	41.47
609.974	41.96
610.166	42.28
610.359	42.89
610.551	43.17
610.743	43.74
610.936	43.73
611.128	44.42
611.32	45
611.513	44.87
611.705	45.13
611.897	45.96
612.09	45.22
612.282	45.38
612.474	45.05
612.666	44.99
612.858	44.61
613.051	45.08
613.243	44.7
613.435	44.73
613.627	44.62
613.819	44.2
614.011	44.36
614.203	44.94
614.395	44.54
614.588	44.99
614.78	44.9
614.972	45.02
615.164	45.36
615.356	45.48
615.548	45.46
615.74	45.1
615.932	45.09
616.124	44.08
616.315	44.31
616.507	44.44
616.699	44.11
616.891	44.03
617.083	43.61
617.275	43.39
617.467	43.62
617.659	43.76
617.85	44.91
618.042	45.2
618.234	45.92
618.426	45.69
618.618	45.98
618.809	46.26
619.001	46.83
619.193	47.55
619.384	47.36
619.576	47.13
619.768	47.2
619.959	47.21
620.151	47.54
620.343	47.47
620.534	48.23
620.726	48.22
620.917	47.98
621.109	47.39
621.301	46.94
621.492	46.95
621.684	46.96
621.875	47.28
622.067	47.38
622.258	47.28
622.45	47.32
622.641	46.45
622.832	46.31
623.024	46.92
623.215	47.4
623.407	47.69
623.598	47.77
623.789	48.14
623.981	48.05
624.172	47.02
624.363	46.87
624.555	46.96
624.746	47.23
624.937	47.16
625.129	46.26
625.32	45.8
625.511	45.68
625.702	45.29
625.893	44.59
626.085	43.68
626.276	44.18
626.467	44.36
626.658	43.91
626.849	43.67
627.04	43.11
627.231	43.42
627.422	43.38
627.614	43.71
627.805	44.64
627.996	45.28
628.187	45.94
628.378	45.76
628.569	44.91
628.76	45.11
628.951	44.99
629.142	46.02
629.332	45.99
629.523	45.94
629.714	45.71
629.905	45.12
630.096	44.36
630.287	44.59
630.478	44.38
630.669	45.16
630.859	44.94
631.05	45.25
631.241	44.87
631.432	45.2
631.623	45.16
631.813	45.02
632.004	44.37
632.195	45.22
632.385	44.94
632.576	45.11
632.767	45.23
632.957	45.01
633.148	44.53
633.339	44.97
633.529	45.06
633.72	45.4
633.91	44.77
634.101	45.75
634.292	45.58
634.482	46.2
634.673	46.9
634.863	46.57
635.054	47.08
635.244	47.05
635.435	46.76
635.625	46.88
635.815	47.02
636.006	47.82
636.196	47.17
636.387	47.55
636.577	47.3
636.767	46.81
636.958	46.86
637.148	46.86
637.338	47.49
637.529	47.46
637.719	47.27
637.909	46.84
638.099	47.1
638.29	47.36
638.48	47.03
638.67	46.91
638.86	46.28
639.05	46.39
639.241	46.53
639.431	46.37
639.621	46.25
639.811	46.96
640.001	47.44
640.191	47.55
640.381	48.03
640.571	48.45
640.761	48.19
640.951	48.96
641.141	49.24
641.331	49.65
641.521	50.32
641.711	51.02
641.901	49.86
642.091	50.42
642.281	49.76
642.471	49.48
642.661	50.32
642.851	51.11
643.041	51.01
643.231	51.17
643.42	50.38
643.61	50.11
643.8	48.95
643.99	49.42
644.18	48.57
644.369	49.26
644.559	49.26
644.749	48.12
644.939	46.86
645.128	47.08
645.318	46.51
645.508	47.14
645.697	46.93
645.887	47.74
646.076	47.58
646.266	48.11
646.456	47.44
646.645	47.51
646.835	47.54
647.024	48.55
647.214	48.58
647.403	49.49
647.593	48.94
647.782	49.63
647.972	49.54
648.161	50.29
648.351	49.95
648.54	50.94
648.73	51.3
648.919	51.28
649.108	50.41
649.298	50.5
649.487	50.78
649.677	51.39
649.866	50.66
650.055	51.16
650.244	50.73
650.434	50.98
650.623	50.45
650.812	50.18
651.002	49.87
651.191	50.51
651.38	50.8
651.569	50
651.758	49.71
651.947	49.65
652.137	49.15
652.326	48.66
652.515	48.47
652.704	49.26
652.893	49.27
653.082	49.94
653.271	50.02
653.46	49.86
653.649	49.5
653.838	49.81
654.027	50.45
654.216	49.92
654.405	50.74
654.594	51.57
654.783	51.5
654.972	52
655.161	52.11
655.35	51.56
655.539	50.79
655.728	51.38
655.916	51.39
656.105	51.13
656.294	51.94
656.483	51.54
656.672	50.06
656.86	49.01
657.049	47.97
657.238	47.42
657.427	47.52
657.615	47.37
657.804	46.95
657.993	46.35
658.181	46.05
658.37	45.76
658.559	45.72
658.747	46.28
658.936	46.63
659.125	48.1
659.313	48.4
659.502	48.7
659.69	49.67
659.879	49.61
660.067	49.8
660.256	49.78
660.444	50.17
660.633	50.34
660.821	51.18
661.01	51.22
661.198	50.27
661.387	50.5
661.575	50.42
661.763	49.62
661.952	51.01
662.14	51.19
662.328	51.59
662.517	51.62
662.705	51.79
662.893	51.3
663.082	51.71
663.27	51.56
663.458	51.56
663.646	51.59
663.834	51.92
664.023	50.54
664.211	51.15
664.399	50.86
664.587	50.4
664.775	50.66
664.963	50.54
665.152	51.21
665.34	51.06
665.528	50.44
665.716	50.24
665.904	50.42
666.092	50.5
666.28	49.35
666.468	49.89
666.656	50.14
666.844	50.45
667.032	50.45
667.22	49.59
667.408	49.87
667.596	50.08
667.784	49.86
667.971	49.82
668.159	49.96
668.347	50.71
668.535	50.12
668.723	50.68
668.911	50.51
669.098	51.09
669.286	51.74
669.474	51.81
669.662	52.21
669.849	53.44
670.037	53.9
670.225	54.15
670.413	54.52
670.6	54.79
670.788	53.96
670.976	53.92
671.163	52.98
671.351	52
671.538	52.53
671.726	52.61
671.913	52.83
672.101	52.1
672.289	52.66
672.476	52.85
672.664	53.37
672.851	53.83
673.039	54.1
673.226	53.81
673.413	54.12
673.601	53.13
673.788	53.65
673.976	51.99
674.163	52.92
674.35	52.68
674.538	52.39
674.725	52.51
674.912	52.81
675.1	52.58
675.287	53.36
675.474	53.31
675.662	53.89
675.849	53.34
676.036	55.19
676.223	55.32
676.411	55.14
676.598	54.28
676.785	53.19
676.972	52.6
677.159	53.04
677.346	53.06
677.533	53.9
677.721	53.52
677.908	52.97
678.095	52.29
678.282	51.36
678.469	50.63
678.656	50.51
678.843	50.37
679.03	50.3
679.217	49.34
679.404	49.4
679.591	49.25
679.778	48.57
679.964	48.16
680.151	47.79
680.338	49.01
680.525	49.53
680.712	50.68
680.899	51.87
681.086	52.02
681.272	52.91
681.459	52.32
681.646	52.55
681.833	53.66
682.02	54.55
682.206	54.31
682.393	54.13
682.58	53.95
682.766	54.06
682.953	54.18
683.14	54.88
683.326	54.32
683.513	55.78
683.7	54.99
683.886	55.83
684.073	55.46
684.259	56.19
684.446	55.56
684.632	56.11
684.819	55.15
685.005	54.29
685.192	53.67
685.378	54.08
685.565	54.09
685.751	53.82
685.938	54.06
686.124	54.64
686.31	55.85
686.497	56.79
686.683	56.93
686.87	56.98
687.056	57.37
687.242	57.82
687.429	59.32
687.615	59.54
687.801	59.93
687.987	59.24
688.174	59.7
688.36	58.61
688.546	57.54
688.732	58.11
688.918	58.93
689.105	58.55
689.291	59.18
689.477	57.93
689.663	56.66
689.849	56.76
690.035	58.47
690.221	59.04
690.407	59.46
690.593	60.1
690.779	59.02
690.965	57.84
691.151	58.37
691.337	58.17
691.523	57.74
691.709	59.75
691.895	60.1
692.081	58.27
692.267	58.12
692.453	57.63
692.639	58.28
692.825	59.41
693.011	60.89
693.196	60.95
693.382	61.71
693.568	61.89
693.754	60.87
693.94	60.91
694.125	61.28
694.311	60.84
694.497	61.79
694.682	61.99
694.868	61.83
695.054	61.87
695.239	62.83
695.425	62.94
695.611	62.01
695.796	60.57
695.982	59.62
696.168	58.27
696.353	57.03
696.539	55.2
696.724	54.08
696.91	53.21
697.095	52.81
697.281	51.4
697.466	49.46
697.652	49.77
697.837	49.78
698.023	49.75
698.208	50.32
698.393	49.72
698.579	50.6
698.764	50.4
698.949	51.19
699.135	51.21
699.32	51.67
699.505	53.4
699.691	53.68
699.876	54.03
700.061	54.98
700.246	55.14
700.432	56.85
700.617	57.3
700.802	59.29
700.987	59.72
701.172	59.44
701.358	60.08
701.543	59.98
701.728	59.82
701.913	59.78
702.098	59.59
702.283	60
702.468	61.44
702.653	61.37
702.838	60.89
703.023	60.5
703.208	61.44
703.393	62
703.578	62.87
703.763	65.02
703.948	66.14
704.133	67.16
704.318	67.34
704.503	66.66
704.688	67.79
704.873	67.5
705.057	68.06
705.242	67.56
705.427	67.19
705.612	66.23
705.797	65.56
705.981	65.19
706.166	64.36
706.351	64.46
706.536	65.39
706.72	64.44
706.905	65.75
707.09	66.14
707.274	66.4
707.459	65.1
707.644	65.83
707.828	64.78
708.013	63.19
708.197	62.96
708.382	64.01
708.567	63.35
708.751	63.89
708.936	61.4
709.12	60.93
709.305	60.13
709.489	59.72
709.673	59.26
709.858	59.26
710.042	60.9
710.227	62.77
710.411	61.85
710.596	61.11
710.78	60.78
710.964	61.78
711.149	62.2
711.333	63.21
711.517	64.49
711.702	64.22
711.886	64.11
712.07	64.95
712.254	63.23
712.438	62.77
712.623	61.69
712.807	62.25
712.991	62.11
713.175	61.36
713.359	60.6
713.544	60.09
713.728	60.11
713.912	60.54
714.096	59.61
714.28	59.9
714.464	60.63
714.648	61.47
714.832	59.88
715.016	58.69
715.2	59.1
715.384	59.43
715.568	59.66
715.752	59.77
715.936	60.21
716.12	61.15
716.304	61.4
716.488	61.1
716.671	61.2
716.855	62.27
717.039	63.99
717.223	64.84
717.407	66.65
717.59	67.48
717.774	68.72
717.958	67.8
718.142	67.97
718.325	68.25
718.509	68.99
718.693	71.08
718.877	71.47
719.06	72.15
719.244	69.61
719.428	68.08
719.611	70.09
719.795	68.93
719.978	70.23
720.162	70.77
720.345	70.64
720.529	70.38
720.713	70.34
720.896	70.8
721.08	71.22
721.263	73.12
721.446	72.51
721.63	72.42
721.813	73.78
721.997	74.61
722.18	72.31
722.364	72.38
722.547	72.65
722.73	73.99
722.914	76.5
723.097	75.46
723.28	77.77
723.464	80.23
723.647	78.55
723.83	78.05
724.013	75.72
724.197	77.74
724.38	78.98
724.563	78.61
724.746	77
724.929	75.79
725.112	75.05
725.296	73.47
725.479	73.21
725.662	73.44
725.845	74.1
726.028	76.4
726.211	77.41
726.394	76.19
726.577	75.87
726.76	75.59
726.943	73.13
727.126	74.3
727.309	72.55
727.492	72.69
727.675	72.9
727.858	72.13
728.041	71.8
728.224	69.67
728.407	68.37
728.589	67.59
728.772	66.64
728.955	67.62
729.138	66.96
729.321	67.33
729.503	64.77
729.686	64.69
729.869	65.55
730.052	65.12
730.234	66.75
730.417	67.48
730.6	67.86
730.782	68.42
730.965	69.03
731.148	69.62
731.33	69.42
731.513	70.37
731.695	69.45
731.878	69.06
732.061	69.43
732.243	70.12
732.426	69.79
732.608	69.44
732.791	68.87
732.973	68.43
733.156	67.73
733.338	69.11
733.52	70.55
733.703	71.8
733.885	73.57
734.068	74.1
734.25	73.91
734.432	74.58
734.615	76.37
734.797	79.74
734.979	79.1
735.162	80.86
735.344	82.79
735.526	80.63
735.708	80.71
735.891	79.63
736.073	77.85
736.255	77.96
736.437	79.36
736.619	78.99
736.802	76.59
736.984	77.88
737.166	76.67
737.348	75.47
737.53	77.42
737.712	77.38
737.894	76.16
738.076	77.98
738.258	77.42
738.44	77.5
738.622	76.71
738.804	76.69
738.986	75.55
739.168	75.74
739.35	74.94
739.532	75.9
739.714	73.88
739.896	74.29
740.078	75.52
740.259	75.77
740.441	75.77
740.623	76.64
740.805	77.37
740.987	80.16
741.168	80.04
741.35	81.36
741.532	81
741.714	82.7
741.895	82.76
742.077	81.08
742.259	80.18
742.44	80.74
742.622	82.01
742.804	83.68
742.985	81.36
743.167	81.57
743.348	80.74
743.53	81.09
743.711	83.92
743.893	84.41
744.075	82.45
744.256	81.59
744.438	81.32
744.619	80.53
744.8	77.51
744.982	78.6
745.163	81.74
745.345	82.23
745.526	82
745.707	78.9
745.889	79.25
746.07	83.33
746.252	86.19
746.433	86.27
746.614	87.22
746.795	87.79
746.977	88.02
747.158	85.31
747.339	88.17
747.52	86.78
747.702	90.23
747.883	91.17
748.064	89.8
748.245	87.95
748.426	87.4
748.607	87.45
748.788	91.32
748.97	91.92
749.151	92.38
749.332	89.21
749.513	89.45
749.694	87.18
749.875	84.97
750.056	87.53
750.237	89.08
750.418	90.14
750.599	88.95
750.78	88.37
750.96	88.95
751.141	87.25
751.322	86.97
751.503	88.93
751.684	89.44
751.865	94.22
752.046	90.87
752.226	90.61
752.407	91.43
752.588	93.16
752.769	92.33
752.949	91.28
753.13	91.49
753.311	91.85
753.492	91.54
753.672	91.07
753.853	89.65
754.034	90.57
754.214	91.34
754.395	90.7
754.575	90.03
754.756	89.87
754.937	90.07
755.117	90.7
755.298	91.63
755.478	91.23
755.659	91.78
755.839	87.83
756.02	88.41
756.2	88.74
756.381	90.65
756.561	90.62
756.741	88.5
756.922	89.58
757.102	90.7
757.283	89.8
757.463	91.46
757.643	91.27
757.823	95.41
758.004	93.58
758.184	92.29
758.364	91.25
758.545	91.36
758.725	92.52
758.905	90.06
759.085	91.37
759.265	91.23
759.446	90.4
759.626	92.71
759.806	89.84
759.986	90
760.166	89.77
760.346	91.05
760.526	92.4
760.706	91.91
760.886	87.81
761.066	81.71
761.246	78.9
761.426	73.81
761.606	70.32
761.786	68.79
761.966	68.9
762.146	67.18
762.326	65.17
762.506	63.38
762.686	62.27
762.866	64.62
763.046	66.09
763.225	68.47
763.405	71.32
763.585	71.43
763.765	71.25
763.945	70.92
764.124	71.78
764.304	72.56
764.484	74.53
764.664	76.82
764.843	76.88
765.023	78.96
765.203	78.24
765.382	79.14
765.562	80.98
765.741	84.45
765.921	86.23
766.101	85.89
766.28	84.42
766.46	83.51
766.639	84.74
766.819	87.13
766.998	87.98
767.178	88.53
767.357	88.14
767.537	87.61
767.716	86.08
767.896	89.22
768.075	92.62
768.254	95.78
768.434	95.09
768.613	95.14
768.792	92.85
768.972	87.49
769.151	87.75
769.33	85.2
769.51	88.23
769.689	91.74
769.868	89.49
770.047	89.81
770.226	87.04
770.406	88.14
770.585	87.3
770.764	89.81
770.943	96.39
771.122	97.81
771.301	104.9
771.48	104.29
771.66	105.55
771.839	107.79
772.018	103.75
772.197	110.92
772.376	114.25
772.555	115.8
772.734	118.01
772.913	118.64
773.092	115.75
773.271	112.54
773.449	114.83
773.628	112.3
773.807	107.91
773.986	115.98
774.165	112.73
774.344	110.52
774.523	108.57
774.701	109.76
774.88	109.12
775.059	110.56
775.238	110.91
775.417	112.06
775.595	108.35
775.774	110.54
775.953	104.06
776.131	106.07
776.31	107.47
776.489	107.29
776.667	106.66
776.846	103.62
777.025	105.69
777.203	106.48
777.382	102.74
777.56	109.67
777.739	111.2
777.917	114.73
778.096	114.84
778.274	113.79
778.453	112.85
778.631	116.08
778.81	118.8
778.988	118.45
779.166	117.54
779.345	120.35
779.523	116.44
779.702	116.18
779.88	113.67
780.058	109.61
780.237	109.4
780.415	112.65
780.593	107.88
780.771	107.33
780.95	105.54
781.128	108.68
781.306	107.09
781.484	109.38
781.662	106.99
781.841	109.42
782.019	114.27
782.197	120.98
782.375	118.75
782.553	119.33
782.731	120.61
782.909	125.25
783.087	121.67
783.265	123.83
783.443	123.58
783.621	128.24
783.799	130.12
783.977	127.77
784.155	121.21
784.333	120.85
784.511	119.81
784.689	123.55
784.867	123.88
785.045	129.17
785.223	128.85
785.4	124.77
785.578	120.39
785.756	115.71
785.934	116.81
786.112	118.69
786.289	119.28
786.467	113.83
786.645	113.12
786.823	111.2
787	108.27
787.178	108.22
787.356	108.89
787.533	112.23
787.711	112.69
787.889	109.55
788.066	111.7
788.244	110.43
788.421	113.14
788.599	114.78
788.776	113.97
788.954	115.09
789.131	112.73
789.309	113.8
789.486	106.52
789.664	107.71
789.841	114.1
790.019	110.12
790.196	109.74
790.373	113.5
790.551	110.11
790.728	113.07
790.906	111.74
791.083	110.19
791.26	112.85
791.437	120.33
791.615	120.35
791.792	116.33
791.969	117.99
792.146	118.76
792.324	116.24
792.501	121.18
792.678	119.07
792.855	124.69
793.032	131.59
793.209	130.58
793.387	129.17
793.564	128.63
793.741	126.19
793.918	130.52
794.095	135.35
794.272	134.18
794.449	130.6
794.626	134.4
794.803	120.81
794.98	118.62
795.157	119.83
795.334	121.52
795.511	121.22
795.688	125.26
795.864	120.17
796.041	118.69
796.218	125.27
796.395	118.66
796.572	112.13
796.749	119.97
796.925	121.34
797.102	117.94
797.279	117.79
797.456	115.83
797.632	114.54
797.809	115.93
797.986	113.58
798.162	111.49
798.339	115.61
798.516	115.38
798.692	112.2
798.869	108.88
799.046	112.37
799.222	109.41
799.399	112.52
799.575	114.89
799.752	115.74
799.928	117
800.105	116.95
800.281	117.68
800.458	127.24
800.634	135.16
800.811	136.2
800.987	134.36
801.163	138.61
801.34	136.82
801.516	135.93
801.692	133.17
801.869	133.64
802.045	133.75
802.221	130.48
802.398	127.53
802.574	128.63
802.75	128.74
802.926	131.74
803.103	131.63
803.279	133.99
803.455	134.28
803.631	135.07
803.807	139.27
803.983	135.37
804.16	143.82
804.336	147.52
804.512	142.66
804.688	141.86
804.864	141.89
805.04	144.75
805.216	144.81
805.392	140.28
805.568	141.6
805.744	144.44
805.92	151.75
806.096	142.67
806.272	140.22
806.448	142.73
806.623	144.58
806.799	135.47
806.975	133.55
807.151	129.23
807.327	131.21
807.503	129.36
807.678	125.58
807.854	132.13
808.03	139.19
808.206	133.98
808.381	127.63
808.557	134.03
808.733	143.37
808.908	143.59
809.084	146.82
809.26	150.14
809.435	149.13
809.611	149.78
809.787	143.93
809.962	147.14
810.138	149.28
810.313	154.58
810.489	145.35
810.664	152.4
810.84	146.19
811.015	155.9
811.191	152.37
811.366	155.27
811.542	150.05
811.717	142.09
811.892	144.04
812.068	142.17
812.243	141.62
812.419	142.27
812.594	133.84
812.769	134.03
812.944	130.02
813.12	132.83
813.295	132.65
813.47	135.7
813.645	139.34
813.821	132.24
813.996	138.22
814.171	142.76
814.346	148.56
814.521	148.47
814.697	146.96
814.872	146.46
815.047	136.18
815.222	132.64
815.397	130.8
815.572	127.8
815.747	128.84
815.922	124.92
816.097	120.51
816.272	117.84
816.447	118.34
816.622	117.03
816.797	114.82
816.972	119.02
817.147	126.02
817.322	127.94
817.496	124.76
817.671	121.36
817.846	122.7
818.021	119.01
818.196	115.83
818.371	111.16
818.545	118.48
818.72	117.49
818.895	112.09
819.069	106.7
819.244	99.5
819.419	95.85
819.594	93.13
819.768	85.21
819.943	79.91
820.117	72.38
820.292	69.02
820.467	62.54
820.641	59.3
820.816	56.09
820.99	52.1
821.165	49.95
821.339	47.76
821.514	45.86
821.688	46.06
821.863	45.15
822.037	44.41
822.212	43.86
822.386	44.09
822.56	43.44
822.735	43.87
822.909	44.24
823.084	45.11
823.258	47.1
823.432	48.25
823.606	48.74
823.781	49.77
823.955	52.57
824.129	53.48
824.303	54.55
824.478	55.97
824.652	56.96
824.826	58.47
825	60.61
825.174	59.99
825.348	58.98
825.523	59.86
825.697	60.86
825.871	59.66
826.045	59.27
826.219	58.75
826.393	59.03
826.567	58.8
826.741	58.89
826.915	59.63
827.089	60.6
827.263	63.33
827.437	62.23
827.611	61.96
827.784	63.28
827.958	65.78
828.132	67.95
828.306	70.21
828.48	72.75
828.654	74.37
828.827	76.01
829.001	78.32
829.175	79.81
829.349	86.55
829.522	90.93
829.696	94.45
829.87	96.34
830.044	96.23
830.217	101.77
830.391	105.25
830.565	108.17
830.738	104.85
830.912	105.23
831.085	104.24
831.259	96.71
831.432	93.11
831.606	92.09
831.779	90.66
831.953	92.56
832.126	83.34
832.3	80.68
832.473	81.27
832.647	80.82
832.82	80.4
832.994	78.22
833.167	78.3
833.34	78.42
833.514	75.37
833.687	76.74
833.86	73.66
834.034	77.68
834.207	79.08
834.38	76.54
834.553	78.01
834.727	75.69
834.9	77.07
835.073	79.65
835.246	84
835.419	86.49
835.593	89.4
835.766	91.81
835.939	92.02
836.112	98.18
836.285	101.76
836.458	102.72
836.631	108.21
836.804	113.33
836.977	116.71
837.15	121.32
837.323	125.59
837.496	126.35
837.669	132.85
837.842	127.7
838.015	123.39
838.188	118.19
838.361	114.76
838.533	114.48
838.706	113.13
838.879	117.22
839.052	109.23
839.225	115.61
839.398	114.37
839.57	120.29
839.743	126.27
839.916	128.85
840.088	135.37
840.261	143.71
840.434	146.09
840.607	152.63
840.779	150.56
840.952	164
841.124	159.21
841.297	163.98
841.47	152.11
841.642	155.03
841.815	161.9
841.987	183.32
842.16	183.59
842.332	190.58
842.505	204.77
842.677	215.6
842.85	210.64
843.022	232.78
843.194	262.64
843.367	288.22
843.539	280.29
843.712	271.1
843.884	233.81
844.056	253.79
844.229	262.23
844.401	254.99
844.573	263.83
844.745	256.26
844.918	231.18
845.09	232.77
845.262	240.78
845.434	248.73
845.606	272.6
845.779	242.62
845.951	231.43
846.123	240.96
846.295	217.41
846.467	207.59
846.639	225.17
846.811	220.54
846.983	188.77
847.155	195.35
847.327	191.57
847.499	186.4
847.671	227.81
847.843	235.15
848.015	219.32
848.187	227.97
848.359	253.47
848.531	255.79
848.703	252.11
848.875	267.77
849.047	251.78
849.218	283.88
849.39	257.96
849.562	252.76
849.734	266.11
849.905	252.49
850.077	285.51
850.249	248.67
850.421	229.65
850.592	227.68
850.764	220.24
850.936	207.1
851.107	205.84
851.279	232.04
851.451	227.39
851.622	218.01
851.794	269.94
851.965	256.7
852.137	281.32
852.308	298.12
852.48	325.8
852.651	313.49
852.823	325.39
852.994	264.73
853.166	259.08
853.337	263.81
853.509	251.22
853.68	223.41
853.851	204.01
854.023	184.9
854.194	197.95
854.365	191.03
854.537	209.83
854.708	217.15
854.879	236.86
855.05	235
855.222	234.45
855.393	251.89
855.564	256.43
855.735	260.11
855.906	283.43
856.078	257.05
856.249	260.42
856.42	263.38
856.591	252.15
856.762	260.65
856.933	284.62
857.104	310.46
857.275	279.96
857.446	297.53
857.617	313.37
857.788	369.06
857.959	445.53
858.13	420.24
858.301	449.53
858.472	444.19
858.643	371.07
858.814	335.26
858.985	317.52
859.155	315.15
859.326	284.54
859.497	303.8
859.668	263.49
859.839	218.07
860.009	206.04
860.18	201.35
860.351	208.91
860.522	237.44
860.692	220.71
860.863	243.27
861.034	281.65
861.204	275.54
861.375	253.94
861.546	257.94
861.716	298.81
861.887	367.56
862.057	359.85
862.228	302.35
862.398	297.27
862.569	302.48
862.739	280.03
862.91	239.19
863.08	238.88
863.251	242.65
863.421	262.17
863.592	237.09
863.762	231.19
863.932	245.39
864.103	225
864.273	217.69
864.443	229.19
864.614	241.4
864.784	249.32
864.954	242.59
865.125	262.17
865.295	233.1
865.465	249.51
865.635	227.97
865.805	210.09
865.976	248.36
866.146	257.84
866.316	257.4
866.486	253.09
866.656	247.67
866.826	258.64
866.996	237.08
867.166	236.68
867.336	256.41
867.506	283.89
867.676	274.7
867.846	291.61
868.016	286.64
868.186	295.41
868.356	245.11
868.526	285.76
868.696	293.9
868.866	325.15
869.036	416.55
869.206	391.62
869.376	347.98
869.545	388.75
869.715	370.9
869.885	337.21
870.055	289.36
870.224	282.95
870.394	237.21
870.564	249.81
870.734	234.22
870.903	227.16
871.073	233.08
871.243	225.56
871.412	212.08
871.582	224.2
871.751	218.23
871.921	218.4
872.091	233.21
872.26	230.68
872.43	202.8
872.599	196.25
872.769	187.64
872.938	192.93
873.108	202.71
873.277	214.25
873.446	211.27
873.616	228.73
873.785	242.37
873.955	239.5
874.124	250.92
874.293	296.36
874.463	301.96
874.632	310.65
874.801	264.67
874.971	241.48
875.14	218.39
875.309	214.61
875.478	188.21
875.647	198.41
875.817	187.56
875.986	188.92
876.155	167.78
876.324	168.87
876.493	166.36
876.662	170.62
876.831	189.18
877	193.78
877.17	185.37
877.339	223.04
877.508	213.97
877.677	219.84
877.846	210.23
878.015	223.28
878.184	216.71
878.352	234.44
878.521	236.22
878.69	212.78
878.859	205.63
879.028	212.88
879.197	212.52
879.366	172.32
879.534	164.93
879.703	156.65
879.872	138.63
880.041	129.72
880.21	114.12
880.378	103.41
880.547	97.25
880.716	89.87
880.884	80.8
881.053	74.71
881.222	71.17
881.39	67.03
881.559	63.49
881.727	61.6
881.896	60.5
882.065	60.22
882.233	59.81
882.402	59.45
882.57	57.25
882.739	58.36
882.907	58.7
883.076	60.96
883.244	62.48
883.412	63.37
883.581	65.43
883.749	64.62
883.918	64.83
884.086	64.9
884.254	67.94
884.423	71.78
884.591	70.76
884.759	75.21
884.927	78.22
885.096	80.67
885.264	85.46
885.432	89.43
885.6	97.88
885.769	103.24
885.937	115.92
886.105	122.5
886.273	129.66
886.441	140.74
886.609	135.4
886.777	133.16
886.945	132.19
887.113	132.94
887.281	135.71
887.449	134.37
887.617	141.01
887.785	140.93
887.953	144.36
888.121	150.14
888.289	161.89
888.457	189.97
888.625	207.96
888.793	195.49
888.961	213.13
889.129	220.11
889.296	255.53
889.464	254.07
889.632	243.42
889.8	231.89
889.967	233.53
890.135	259.22
