Data from JASIL_3192_Reflection_01.txt Node
Date: Fri Nov 13 13:59:53 EST 2015
User: Geneva
Spectrometer: USB4E03002
Autoset integration time: false
Trigger mode: 4
Integration Time (sec): 1.000000E-1
Scans to average: 10
Electric dark correction enabled: false
Nonlinearity correction enabled: false
Boxcar width: 5
Stray light correction enabled: false
XAxis mode: Wavelengths
Stop averaging: false
Number of Pixels in Spectrum: 3648
>>>>>Begin Spectral Data<<<<<
177.575	161.54
177.794	142.4
178.014	158.6
178.233	105.51
178.452	58.79
178.672	54.3
178.891	36.14
179.11	187.1
179.33	-90.32
179.549	-172.84
179.768	-132.18
179.987	-4583.33
180.207	-42.39
180.426	-47.14
180.645	-39.35
180.864	9.91
181.084	45.13
181.303	14.04
181.522	23.08
181.741	-33.83
181.96	-153.66
182.179	1079.17
182.398	8750
182.618	203.31
182.837	-459.18
183.056	442.37
183.275	425
183.494	9600
183.713	-540.68
183.932	-508.16
184.151	-26300
184.37	-34.86
184.589	-5.37
184.808	10.06
185.027	7.49
185.246	-48.42
185.465	-7.62
185.684	-2.03
185.903	11.92
186.122	-226.39
186.341	-656.72
186.56	-697.1
186.779	324.8
186.998	400.91
187.216	333.81
187.435	264.48
187.654	227.25
187.873	176.73
188.092	226.62
188.311	267.27
188.53	354.08
188.748	289.2
188.967	240.32
189.186	234.06
189.405	202.82
189.623	305.59
189.842	240.63
190.061	456.57
190.28	-2252.63
190.498	273.53
190.717	165.18
190.936	218.12
191.154	213.88
191.373	286.45
191.592	296.11
191.81	329.49
192.029	1253.06
192.248	-209.74
192.466	-338.36
192.685	-709.64
192.904	-139.46
193.122	-101.96
193.341	-190.38
193.559	-246.18
193.778	-307.89
193.996	-240.74
194.215	-267.82
194.433	-117.17
194.652	2120
194.87	841.07
195.089	-1041.18
195.307	248.12
195.526	394.02
195.744	-534.62
195.963	-2657.14
196.181	-155.61
196.399	-87.44
196.618	-39.08
196.836	2154.55
197.055	-53.44
197.273	-31.16
197.491	13.2
197.71	18.02
197.928	39.3
198.146	187.1
198.365	-104.48
198.583	32.5
198.801	51.38
199.019	105.85
199.238	140.8
199.456	-571.43
199.674	-97.47
199.892	182.05
200.111	49.37
200.329	92.11
200.547	158.67
200.765	53.15
200.983	58.72
201.202	46.18
201.42	58.73
201.638	40
201.856	21.31
202.074	-10.19
202.292	19.72
202.51	-340.91
202.728	-21.79
202.946	10
203.165	-15.03
203.383	-25.49
203.601	-32.06
203.819	-35.07
204.037	60.98
204.255	62.91
204.473	41.28
204.691	57.51
204.909	56.48
205.127	47.23
205.345	55.57
205.562	58.55
205.78	48.84
205.998	56.12
206.216	16.75
206.434	1.81
206.652	-34.43
206.87	28.49
207.088	-460.32
207.306	-205.69
207.523	-170.7
207.741	1380.56
207.959	-325.97
208.177	-121.2
208.395	-630.95
208.612	-34.11
208.83	-275.76
209.048	707.14
209.266	277.34
209.483	-64.77
209.701	-138
209.919	-121.95
210.136	17.2
210.354	-23.9
210.572	-16.86
210.79	-14.46
211.007	-192.31
211.225	-66.47
211.442	-18.71
211.66	4.81
211.878	-10.91
212.095	-38.97
212.313	-48.86
212.53	-65.67
212.748	-326.19
212.966	279.52
213.183	-546.67
213.401	-199.13
213.618	26900
213.836	-446.27
214.053	387.61
214.271	336.43
214.488	616.28
214.705	1058.62
214.923	2633.33
215.14	-300
215.358	-37.32
215.575	-17.79
215.793	14.73
216.01	27.36
216.227	-14.34
216.445	1.9
216.662	9.75
216.879	-14.97
217.097	-1.22
217.314	-35.09
217.531	15.75
217.749	-674.36
217.966	-184.3
218.183	-675.86
218.4	-274.76
218.618	-144.83
218.835	162.5
219.052	98.23
219.269	-166.67
219.487	19.08
219.704	82.84
219.921	85.44
220.138	120.98
220.355	83.19
220.572	-22.27
220.79	53.75
221.007	-30.45
221.224	-69.68
221.441	-65.27
221.658	-255.81
221.875	-88
222.092	-371.29
222.309	685.71
222.526	97.72
222.743	73.69
222.96	60.51
223.177	85.1
223.394	72.83
223.611	63.64
223.828	92.58
224.045	68.46
224.262	96.51
224.479	82.25
224.696	95.3
224.913	109.58
225.13	88.34
225.347	77.03
225.564	55.11
225.781	42.04
225.997	32.2
226.214	12.25
226.431	-1.18
226.648	-29.68
226.865	-26.8
227.082	-47.67
227.298	-30.01
227.515	-30.22
227.732	-9.89
227.949	-2.77
228.165	7.11
228.382	5.64
228.599	8.58
228.816	2.38
229.032	-3.29
229.249	-9.57
229.466	2.78
229.682	-8.09
229.899	3.87
230.116	-20.37
230.332	-30.99
230.549	-43.45
230.765	-39.06
230.982	-20.99
231.199	3.93
231.415	6.57
231.632	-4.7
231.848	-11.06
232.065	12.76
232.281	-27.59
232.498	12.43
232.714	10.29
232.931	3.55
233.147	17.68
233.364	7.69
233.58	27.34
233.797	29.64
234.013	41.5
234.23	63.89
234.446	42.74
234.662	55.59
234.879	74.86
235.095	90.86
235.312	102.98
235.528	80.02
235.744	75.9
235.961	46.03
236.177	44.39
236.393	47.3
236.61	58.49
236.826	60.11
237.042	64.15
237.258	50.51
237.475	53.05
237.691	45.58
237.907	62.26
238.123	66.09
238.339	81.92
238.556	85.25
238.772	84.44
238.988	51.29
239.204	43.45
239.42	41.44
239.636	46.99
239.853	43.81
240.069	37.03
240.285	29.88
240.501	20.7
240.717	19.3
240.933	19.7
241.149	21.16
241.365	16.18
241.581	19.04
241.797	12.02
242.013	9.26
242.229	11.67
242.445	15.81
242.661	17.63
242.877	20.82
243.093	20.91
243.309	21.67
243.525	22.44
243.741	22.31
243.957	25.17
244.173	30.13
244.388	27.33
244.604	20.54
244.82	18.56
245.036	14.79
245.252	13.54
245.468	11.81
245.683	9.7
245.899	5.04
246.115	6.43
246.331	5.91
246.547	5.49
246.762	7.94
246.978	9.42
247.194	9.19
247.409	9.67
247.625	10.3
247.841	5.53
248.057	6.85
248.272	9.58
248.488	10.17
248.703	6.97
248.919	10.59
249.135	8.54
249.35	5.71
249.566	5.06
249.782	9.6
249.997	11.98
250.213	17.68
250.428	21.99
250.644	23.22
250.859	19.77
251.075	18.86
251.29	15.22
251.506	17.74
251.721	24.35
251.937	21.41
252.152	23.27
252.368	26.66
252.583	31.22
252.798	31.12
253.014	30.48
253.229	32.58
253.445	38.12
253.66	35.92
253.875	35.19
254.091	35.52
254.306	38.95
254.521	37.58
254.737	33.26
254.952	29.63
255.167	25.59
255.383	33.65
255.598	34.59
255.813	33.4
256.028	31.26
256.244	31.7
256.459	26.46
256.674	29.55
256.889	23.26
257.104	16.14
257.32	16.9
257.535	14.48
257.75	8.32
257.965	9.09
258.18	9.37
258.395	14.91
258.61	13.8
258.826	13.28
259.041	11.58
259.256	9.83
259.471	9.77
259.686	10.04
259.901	10.24
260.116	11.52
260.331	10.93
260.546	10.52
260.761	5.27
260.976	6.77
261.191	6.34
261.406	6.65
261.621	10.95
261.836	13.64
262.05	12.56
262.265	13.33
262.48	16.73
262.695	19.16
262.91	20.92
263.125	28.61
263.34	22.61
263.555	22.2
263.769	17.95
263.984	12.18
264.199	7.91
264.414	5.82
264.629	4.57
264.843	2.89
265.058	5.79
265.273	2.89
265.488	-1.26
265.702	1.84
265.917	-0.44
266.132	6.32
266.346	8.28
266.561	13.65
266.776	13.36
266.99	17.9
267.205	18.13
267.42	12.14
267.634	12.6
267.849	12.4
268.063	7.22
268.278	11.26
268.492	5.21
268.707	5.02
268.922	1.23
269.136	3.76
269.351	0.6
269.565	-4.09
269.78	-0.76
269.994	1.97
270.209	1.81
270.423	7.25
270.637	4.22
270.852	3.17
271.066	6.53
271.281	7.51
271.495	6.07
271.709	7.13
271.924	7
272.138	10.2
272.353	6.49
272.567	8.04
272.781	7.25
272.996	8.55
273.21	9.44
273.424	8.29
273.638	8.59
273.853	9.19
274.067	8.57
274.281	4.51
274.495	1.37
274.71	2.69
274.924	2.43
275.138	2.56
275.352	4.29
275.566	6.71
275.781	3.84
275.995	1.09
276.209	0.44
276.423	0.63
276.637	6.45
276.851	6.68
277.065	9.85
277.279	8.26
277.493	9.05
277.707	6.12
277.921	6.79
278.135	6.9
278.349	11.88
278.563	13.65
278.777	11.1
278.991	8.46
279.205	8.22
279.419	8.22
279.633	6.7
279.847	6.34
280.061	5.8
280.275	7.26
280.489	7.34
280.703	4.18
280.917	5.66
281.131	4.28
281.344	7.3
281.558	7.74
281.772	6.93
281.986	10.04
282.2	9.68
282.414	9.99
282.627	6.75
282.841	9.91
283.055	9.85
283.269	6.3
283.482	9.44
283.696	6.91
283.91	6.33
284.123	4.54
284.337	4.41
284.551	4.04
284.764	5.35
284.978	2.75
285.192	3.58
285.405	4.67
285.619	4.53
285.833	4.09
286.046	4.28
286.26	3.17
286.473	2.46
286.687	0.75
286.9	0.99
287.114	-1.16
287.327	2.98
287.541	-0
287.754	-3.32
287.968	-3.21
288.181	-2.7
288.395	-3.42
288.608	-2.7
288.822	-0.99
289.035	-1.39
289.248	-0.35
289.462	2.53
289.675	2.26
289.889	4.2
290.102	6.91
290.315	7.52
290.529	6.53
290.742	6.53
290.955	8.58
291.169	9.81
291.382	12.39
291.595	11.21
291.808	11.16
292.022	10.25
292.235	6.81
292.448	6.75
292.661	7.42
292.875	7.89
293.088	9.8
293.301	9.15
293.514	6.1
293.727	6.58
293.94	7.51
294.153	5.01
294.367	6.5
294.58	8.43
294.793	8.54
295.006	8.73
295.219	6.57
295.432	4.69
295.645	5.17
295.858	5.35
296.071	4.18
296.284	2.5
296.497	4.97
296.71	3.47
296.923	3.87
297.136	3.51
297.349	4.73
297.562	6.39
297.775	8.99
297.988	7.98
298.201	7.98
298.414	8.47
298.626	10.11
298.839	8.27
299.052	7.64
299.265	7.75
299.478	9.54
299.691	6.62
299.903	7.5
300.116	5.61
300.329	4.41
300.542	7.24
300.755	8.22
300.967	7.05
301.18	7.77
301.393	9.34
301.605	7.6
301.818	6.41
302.031	7.94
302.243	5.97
302.456	6.51
302.669	9.08
302.881	9.21
303.094	9.08
303.307	11.03
303.519	12.83
303.732	14.31
303.944	15.38
304.157	15.63
304.37	15.66
304.582	18.24
304.795	17.53
305.007	17.7
305.22	15.93
305.432	15.24
305.645	13.89
305.857	11.95
306.069	11.79
306.282	10.91
306.494	11.42
306.707	12.17
306.919	9.71
307.132	10.91
307.344	9.77
307.556	11.27
307.769	9.8
307.981	10.61
308.193	10.4
308.406	10.34
308.618	10.39
308.83	8.3
309.043	8.83
309.255	9.52
309.467	10.94
309.679	10.28
309.892	10.53
310.104	13.18
310.316	14.06
310.528	13.29
310.74	12.33
310.953	12.86
311.165	13.85
311.377	12.99
311.589	11.88
311.801	10.4
312.013	15.98
312.225	14.08
312.437	12.2
312.649	8.13
312.862	8.51
313.074	9.05
313.286	9.54
313.498	10.59
313.71	11.67
313.922	12.83
314.134	14.13
314.346	8.74
314.558	10.47
314.77	12.6
314.982	14.99
315.193	14.67
315.405	15.85
315.617	15.55
315.829	13.97
316.041	12.89
316.253	12.15
316.465	13.3
316.677	14.22
316.888	16.76
317.1	13.91
317.312	14.13
317.524	12.25
317.736	12.76
317.947	13.39
318.159	13.12
318.371	13.31
318.583	15.26
318.794	12.43
319.006	13.12
319.218	9.28
319.43	9.75
319.641	10.18
319.853	12.57
320.064	9.8
320.276	8.44
320.488	9.36
320.699	7.35
320.911	5.09
321.123	9.25
321.334	5.74
321.546	8.87
321.757	13.05
321.969	14.14
322.18	14.54
322.392	16
322.603	17.14
322.815	18.57
323.026	22.75
323.238	24.41
323.449	22.63
323.661	22.61
323.872	20.24
324.083	17.72
324.295	15.62
324.506	13.86
324.718	13.21
324.929	10.42
325.14	8.94
325.352	6.82
325.563	4.48
325.774	4.21
325.986	5.72
326.197	8.23
326.408	8.33
326.62	9.47
326.831	10.97
327.042	10.7
327.253	11.44
327.464	13.96
327.676	13.31
327.887	13.48
328.098	12.97
328.309	10.23
328.52	8.82
328.732	7.69
328.943	8.73
329.154	7.48
329.365	9.35
329.576	11.36
329.787	9.87
329.998	12.63
330.209	13.24
330.42	12.88
330.631	13.66
330.842	13.27
331.053	13.81
331.264	13.3
331.475	13.73
331.686	12.24
331.897	12.41
332.108	10.04
332.319	8.26
332.53	10.14
332.741	12.04
332.952	15.5
333.163	14.92
333.374	13.53
333.585	13.72
333.795	15.06
334.006	13.27
334.217	12.21
334.428	12.71
334.639	12.38
334.849	11.53
335.06	11.6
335.271	10.58
335.482	11.87
335.692	14.04
335.903	13.95
336.114	14.38
336.325	18.83
336.535	19.74
336.746	19.34
336.957	19.51
337.167	18.53
337.378	15.91
337.589	16.42
337.799	14.3
338.01	14.79
338.22	13.41
338.431	11.68
338.642	8.31
338.852	8.92
339.063	11.35
339.273	12.6
339.484	14.78
339.694	15.67
339.905	13.31
340.115	15.68
340.326	14.7
340.536	15.85
340.746	14.96
340.957	16.2
341.167	15.78
341.378	15.55
341.588	13.87
341.799	11.74
342.009	12.6
342.219	12.38
342.43	13.12
342.64	12.14
342.85	11.48
343.061	10.82
343.271	9.75
343.481	7.16
343.691	5.66
343.902	5.75
344.112	4.48
344.322	3.37
344.532	3.01
344.743	1.3
344.953	1.56
345.163	1.46
345.373	3.4
345.583	5.95
345.793	7.19
346.004	7.93
346.214	7.86
346.424	10
346.634	10.56
346.844	11.75
347.054	12.79
347.264	14.34
347.474	13.98
347.684	14.71
347.894	13.2
348.104	14.09
348.314	13.27
348.524	11.58
348.734	11.9
348.944	12.42
349.154	13.01
349.364	13.25
349.574	10.26
349.784	12.16
349.994	11.78
350.204	12.35
350.413	11.89
350.623	13.16
350.833	14.78
351.043	14.99
351.253	13.03
351.463	13.51
351.672	12.12
351.882	13.51
352.092	11.47
352.302	12.29
352.511	12.01
352.721	10.51
352.931	9.44
353.141	9.21
353.35	8.81
353.56	8.7
353.77	8.22
353.979	9.13
354.189	9.28
354.399	9.26
354.608	8.78
354.818	8.83
355.027	12.4
355.237	13.89
355.447	15.25
355.656	12.37
355.866	12.49
356.075	10.86
356.285	11.23
356.494	11.46
356.704	12.89
356.913	13.37
357.123	11.95
357.332	8.91
357.542	7.69
357.751	6.33
357.96	9.1
358.17	9.94
358.379	11.4
358.589	11.04
358.798	10.78
359.007	10.03
359.217	8.96
359.426	10.36
359.635	11.16
359.845	11.51
360.054	10.15
360.263	8.83
360.472	9.8
360.682	10.04
360.891	9.11
361.1	8.7
361.309	7.88
361.519	7.05
361.728	5.71
361.937	5.89
362.146	5.98
362.355	7.3
362.564	8.06
362.774	7.4
362.983	7
363.192	7.29
363.401	8.34
363.61	7.88
363.819	9.23
364.028	9.98
364.237	9.85
364.446	10.83
364.655	10.9
364.864	11.91
365.073	12.67
365.282	12.16
365.491	12.22
365.7	10.59
365.909	12.09
366.118	11.09
366.327	11.04
366.536	12.04
366.745	11.39
366.954	11.57
367.162	11
367.371	10.24
367.58	11.75
367.789	11.6
367.998	13.08
368.207	13.49
368.415	14.99
368.624	15.48
368.833	14.23
369.042	14
369.25	13.29
369.459	12.67
369.668	12.54
369.877	10.99
370.085	11.33
370.294	10.03
370.503	9.01
370.711	8.03
370.92	8.33
371.129	9.96
371.337	8.97
371.546	9.02
371.754	8.87
371.963	7.85
372.171	8.05
372.38	7.76
372.589	8.21
372.797	8.92
373.006	10.02
373.214	9.07
373.423	8.12
373.631	8.92
373.84	8.07
374.048	9.11
374.256	10.18
374.465	11.44
374.673	10.55
374.882	11.71
375.09	10.97
375.298	10.84
375.507	11.55
375.715	11.54
375.923	11.06
376.132	11.91
376.34	11.29
376.548	10.67
376.757	10.03
376.965	10.33
377.173	10.37
377.381	10
377.59	8.89
377.798	8.72
378.006	8.66
378.214	9.86
378.423	10.24
378.631	9.57
378.839	10.67
379.047	11.07
379.255	11.46
379.463	9.9
379.671	11.78
379.879	12.58
380.088	11.31
380.296	10.94
380.504	10.71
380.712	9.88
380.92	9.61
381.128	8.67
381.336	7.48
381.544	7.71
381.752	8.53
381.96	7.31
382.168	8.41
382.376	8.39
382.584	8.58
382.791	7.68
382.999	8.09
383.207	8.37
383.415	8.51
383.623	9.32
383.831	9.91
384.039	9.79
384.247	9.6
384.454	8.25
384.662	8.72
384.87	7.48
385.078	7.5
385.285	6.28
385.493	6.26
385.701	5.35
385.909	3.99
386.116	3.01
386.324	1.46
386.532	1.62
386.739	2.05
386.947	3.16
387.155	4.76
387.362	6.37
387.57	8.64
387.778	8.16
387.985	8.38
388.193	9.79
388.4	9.19
388.608	10.4
388.816	10.44
389.023	9.66
389.231	9.21
389.438	8.9
389.646	7.71
389.853	6.36
390.061	6.23
390.268	6.52
390.475	5.42
390.683	5.72
390.89	5.77
391.098	6.05
391.305	7.88
391.512	9.55
391.72	9.48
391.927	9.02
392.135	9.57
392.342	10.02
392.549	10.93
392.756	11.17
392.964	10.82
393.171	11.89
393.378	10.95
393.586	8.25
393.793	5.9
394	5.57
394.207	6.16
394.414	4.73
394.622	5.51
394.829	4.78
395.036	4.38
395.243	5.24
395.45	4.4
395.657	4.4
395.864	6.59
396.072	7.27
396.279	7.55
396.486	6.94
396.693	8.87
396.9	7.77
397.107	6.18
397.314	6.72
397.521	6.54
397.728	5.45
397.935	5.3
398.142	3.74
398.349	3.87
398.556	4.09
398.763	4.15
398.97	3.88
399.177	4.1
399.383	4.32
399.59	3.99
399.797	4.06
400.004	4.66
400.211	5.14
400.418	5.48
400.625	6.05
400.831	5.07
401.038	5.1
401.245	5.11
401.452	5.92
401.658	7.11
401.865	7.25
402.072	7.15
402.279	7.83
402.485	6.67
402.692	7.6
402.899	7.45
403.105	7.72
403.312	8.52
403.519	8.16
403.725	8.07
403.932	7.66
404.138	7.42
404.345	7.77
404.552	7.67
404.758	9.27
404.965	8.61
405.171	7.93
405.378	8.34
405.584	7.21
405.791	7.08
405.997	7.08
406.204	7.37
406.41	7.57
406.617	7.06
406.823	6.12
407.029	6.05
407.236	6.01
407.442	6.63
407.649	7.57
407.855	8.15
408.061	7.36
408.268	7.51
408.474	8.07
408.68	8.55
408.887	8.73
409.093	9.31
409.299	9.3
409.505	8.61
409.712	8.28
409.918	6.64
410.124	7.24
410.33	7.81
410.537	7.44
410.743	7.31
410.949	7.38
411.155	7.76
411.361	7.91
411.567	7.12
411.773	7.34
411.98	7.58
412.186	7.68
412.392	7.14
412.598	7.94
412.804	8.27
413.01	7.66
413.216	7.47
413.422	7.09
413.628	6.39
413.834	6.99
414.04	7.34
414.246	6.66
414.452	6.73
414.658	6.69
414.864	6.14
415.07	6.63
415.275	7
415.481	7.03
415.687	7.11
415.893	7.93
416.099	7.97
416.305	7.72
416.511	7.78
416.716	7.6
416.922	8.39
417.128	7.81
417.334	7.3
417.539	7.25
417.745	7.42
417.951	6.61
418.157	6.06
418.362	6
418.568	5.91
418.774	5.35
418.979	5.94
419.185	5.2
419.391	5.49
419.596	5.39
419.802	5.36
420.008	4.93
420.213	0.62
420.419	1.06
420.624	0.93
420.83	1.22
421.035	1.75
421.241	1.52
421.446	1.34
421.652	1.86
421.857	1.65
422.063	1.59
422.268	1.93
422.474	6.89
422.679	6.59
422.885	7.18
423.09	7.03
423.295	7.03
423.501	7.15
423.706	7.28
423.911	6.79
424.117	6.58
424.322	6.77
424.527	6.97
424.733	6.91
424.938	6.86
425.143	6.7
425.349	6.66
425.554	6.13
425.759	6.31
425.964	6.15
426.169	6.47
426.375	6.84
426.58	6.32
426.785	6.32
426.99	5.8
427.195	5.84
427.4	5.75
427.605	5.4
427.811	6.47
428.016	5.48
428.221	5.91
428.426	5.51
428.631	5.53
428.836	6.12
429.041	5.82
429.246	6.05
429.451	6.4
429.656	6.11
429.861	6.75
430.066	7.03
430.271	7.74
430.476	7.22
430.681	7.66
430.886	7.38
431.09	7.15
431.295	7.41
431.5	7.64
431.705	7.73
431.91	7.46
432.115	7.41
432.32	6.62
432.524	6.34
432.729	6.58
432.934	6.81
433.139	6.82
433.343	6.27
433.548	5.73
433.753	5.2
433.958	4.95
434.162	4.85
434.367	4.78
434.572	4.77
434.776	4.98
434.981	4.88
435.186	3.98
435.39	3.81
435.595	4.63
435.799	4.9
436.004	4.71
436.209	5.11
436.413	5.07
436.618	4.85
436.822	4.57
437.027	4.03
437.231	4.53
437.436	4.01
437.64	4.26
437.845	3.89
438.049	3.94
438.253	4.7
438.458	4.47
438.662	4.74
438.867	4.97
439.071	5.66
439.275	5.71
439.48	5.43
439.684	5.89
439.888	6.21
440.093	6.19
440.297	5.92
440.501	5.53
440.706	5.49
440.91	5.49
441.114	5.18
441.318	4.78
441.523	5.19
441.727	5.32
441.931	5.87
442.135	5.02
442.339	5.49
442.543	5.64
442.748	5.73
442.952	5.97
443.156	6.08
443.36	6.47
443.564	6.7
443.768	6.87
443.972	7.26
444.176	6.6
444.38	7.42
444.584	7.04
444.788	6.63
444.992	7.2
445.196	6.61
445.4	6.52
445.604	6.06
445.808	5.8
446.012	5.6
446.216	5.05
446.42	5.41
446.624	5.05
446.828	5.16
447.032	5.51
447.235	5.01
447.439	5.19
447.643	5.11
447.847	5.64
448.051	5.65
448.254	5.76
448.458	6.29
448.662	5.82
448.866	5.77
449.069	5.75
449.273	5.52
449.477	5.42
449.681	5.49
449.884	5.54
450.088	5.23
450.292	5.47
450.495	5.39
450.699	4.76
450.902	5.27
451.106	5.39
451.31	5.78
451.513	5.99
451.717	5.87
451.92	5.99
452.124	5.71
452.327	6.2
452.531	5.15
452.734	5.51
452.938	5.76
453.141	5.53
453.345	5.33
453.548	4.41
453.752	4.52
453.955	4.76
454.158	4.72
454.362	4.87
454.565	4.46
454.769	6.25
454.972	5.5
455.175	5.19
455.379	5.48
455.582	6.18
455.785	6.38
455.988	6.45
456.192	6.43
456.395	6.13
456.598	6.41
456.801	6.71
457.005	6.1
457.208	6.52
457.411	6.97
457.614	6.35
457.817	6.31
458.021	6.34
458.224	6.49
458.427	6.37
458.63	6.74
458.833	6.34
459.036	5.72
459.239	5.72
459.442	5.44
459.645	5.08
459.848	5.31
460.051	5.37
460.254	5.35
460.457	4.98
460.66	5.25
460.863	5.18
461.066	5.29
461.269	5.69
461.472	5.41
461.675	5.38
461.878	5.12
462.081	5.11
462.284	5.32
462.486	4.97
462.689	5.04
462.892	4.65
463.095	4.68
463.298	5.12
463.5	5.24
463.703	5.83
463.906	6.18
464.109	6.55
464.311	6.73
464.514	6.02
464.717	6.65
464.92	6.56
465.122	6.29
465.325	6.1
465.528	5.22
465.73	5.03
465.933	5.05
466.135	4.58
466.338	4.78
466.541	4.76
466.743	4.8
466.946	4.98
467.148	4.62
467.351	4.81
467.553	4.22
467.756	4.82
467.958	4.47
468.161	3.92
468.363	4.13
468.566	3.8
468.768	3.73
468.971	4.3
469.173	4.41
469.375	4.66
469.578	4.56
469.78	5.08
469.983	5.15
470.185	5.96
470.387	6.2
470.59	6.65
470.792	6.7
470.994	6.79
471.196	6.48
471.399	6.29
471.601	6.76
471.803	6.59
472.005	6.46
472.208	5.7
472.41	5.46
472.612	5.34
472.814	4.69
473.016	4.78
473.218	4.59
473.421	4.06
473.623	3.71
473.825	3.48
474.027	3.63
474.229	3.77
474.431	4.58
474.633	3.65
474.835	4.19
475.037	4.3
475.239	3.99
475.441	4.18
475.643	4.83
475.845	5.11
476.047	5.04
476.249	5.54
476.451	6.05
476.653	5.85
476.855	6.76
477.057	6.87
477.258	7.08
477.46	7.17
477.662	7.43
477.864	6.97
478.066	6.89
478.268	6.84
478.469	6.89
478.671	6.11
478.873	6.24
479.075	6.01
479.276	5.61
479.478	5.56
479.68	5.51
479.882	5.52
480.083	5.68
480.285	5.57
480.487	5.88
480.688	5.63
480.89	5.92
481.091	5.77
481.293	5.75
481.495	5.5
481.696	5.39
481.898	5.63
482.099	5.35
482.301	5.42
482.502	5.36
482.704	5.27
482.905	5.2
483.107	5.23
483.308	5.16
483.51	5.19
483.711	5.27
483.913	5.23
484.114	5.14
484.315	5.27
484.517	5.09
484.718	5.23
484.92	5.06
485.121	5.06
485.322	5
485.524	5.14
485.725	5.07
485.926	5.01
486.127	5.29
486.329	5.23
486.53	5.14
486.731	5.22
486.932	4.94
487.134	5.01
487.335	5.17
487.536	5.15
487.737	5.29
487.938	5.31
488.139	5.27
488.341	5.18
488.542	5.26
488.743	5.5
488.944	5.67
489.145	6.03
489.346	6.26
489.547	6.04
489.748	6.12
489.949	6.22
490.15	6.36
490.351	6.37
490.552	6.39
490.753	6.47
490.954	6.31
491.155	6.22
491.356	6.06
491.557	5.87
491.758	5.76
491.959	5.71
492.159	5.39
492.36	5.23
492.561	5.21
492.762	5.26
492.963	4.97
493.164	5.15
493.364	5.23
493.565	5.11
493.766	5.39
493.967	5.69
494.167	5.74
494.368	5.52
494.569	5.52
494.769	5.88
494.97	5.72
495.171	5.99
495.371	5.59
495.572	5.4
495.773	5.36
495.973	5.26
496.174	5.05
496.375	5.01
496.575	5.43
496.776	5.71
496.976	5.81
497.177	5.81
497.377	5.86
497.578	5.54
497.778	5.81
497.979	6.07
498.179	6.22
498.38	6.52
498.58	6.69
498.78	6.71
498.981	6.78
499.181	6.88
499.382	6.35
499.582	6.53
499.782	7.1
499.983	6.8
500.183	6.88
500.383	6.75
500.584	6.4
500.784	6.48
500.984	6.45
501.184	6.42
501.385	6.22
501.585	6.7
501.785	6.88
501.985	7.13
502.185	7.2
502.386	6.95
502.586	6.84
502.786	7.32
502.986	6.94
503.186	6.76
503.386	7.1
503.586	7
503.786	7.08
503.987	6.55
504.187	6.03
504.387	6.54
504.587	7
504.787	7.13
504.987	7.26
505.187	7.46
505.387	7.64
505.587	7.44
505.786	7.49
505.986	7.73
506.186	7.87
506.386	8.36
506.586	8.03
506.786	7.56
506.986	7.76
507.186	7.55
507.386	8.02
507.585	7.48
507.785	7.08
507.985	6.97
508.185	6.91
508.384	7.16
508.584	6.84
508.784	7.11
508.984	7.52
509.183	7.15
509.383	7.23
509.583	7.15
509.782	7.98
509.982	8.03
510.182	8.2
510.381	8.2
510.581	7.96
510.781	7.92
510.98	7.51
511.18	7.8
511.379	8
511.579	7.73
511.778	7.37
511.978	7.43
512.177	7.39
512.377	7.21
512.576	7.28
512.776	7.62
512.975	7.61
513.175	7.76
513.374	7.23
513.573	7.48
513.773	7.72
513.972	8.13
514.172	8.11
514.371	8.25
514.57	8.8
514.77	9.13
514.969	8.5
515.168	9.07
515.367	9.35
515.567	9.75
515.766	9.99
515.965	10.04
516.164	10.2
516.364	9.92
516.563	10.47
516.762	10.34
516.961	10.26
517.16	10.23
517.359	9.86
517.559	10.04
517.758	9.92
517.957	9.61
518.156	9.67
518.355	9.47
518.554	9.76
518.753	9.5
518.952	9.47
519.151	9.46
519.35	10.08
519.549	10.73
519.748	10.63
519.947	10.67
520.146	10.91
520.345	10.88
520.544	11.01
520.743	10.68
520.942	10.87
521.141	10.79
521.339	10.77
521.538	10.71
521.737	10.41
521.936	10.34
522.135	10.64
522.333	10.58
522.532	10.84
522.731	10.26
522.93	10.4
523.129	10.26
523.327	10.7
523.526	10.84
523.725	11.36
523.923	11.28
524.122	11.74
524.321	11.6
524.519	11.96
524.718	12.09
524.917	12.73
525.115	12.94
525.314	13.02
525.512	13.1
525.711	13.04
525.909	12.61
526.108	12.76
526.306	12.39
526.505	12.62
526.703	12.38
526.902	12.39
527.1	12.33
527.299	12.26
527.497	12.36
527.696	12.18
527.894	12.28
528.092	12.5
528.291	12.52
528.489	12.88
528.688	12.87
528.886	12.94
529.084	13.12
529.283	13.09
529.481	13.38
529.679	13.57
529.877	13.89
530.076	13.94
530.274	13.77
530.472	13.68
530.67	13.57
530.869	13.66
531.067	13.96
531.265	14.06
531.463	14.7
531.661	14.56
531.859	14.31
532.057	14.03
532.255	14.25
532.454	14.54
532.652	14.93
532.85	15.05
533.048	14.84
533.246	14.79
533.444	14.7
533.642	14.36
533.84	14.5
534.038	14.55
534.236	15.02
534.434	15.2
534.632	14.95
534.83	14.84
535.027	14.52
535.225	14.88
535.423	14.91
535.621	15.12
535.819	14.78
536.017	14.74
536.215	15.08
536.412	14.78
536.61	14.58
536.808	15.06
537.006	15.18
537.203	15.48
537.401	15.33
537.599	15.47
537.797	15.39
537.994	16.1
538.192	16.16
538.39	16.08
538.587	16.55
538.785	16.9
538.983	16.98
539.18	16.96
539.378	16.81
539.575	16.78
539.773	16.81
539.97	16.78
540.168	16.74
540.366	16.91
540.563	16.92
540.761	16.75
540.958	16.82
541.155	16.76
541.353	16.58
541.55	16.6
541.748	17.02
541.945	16.85
542.143	16.88
542.34	16.95
542.537	16.78
542.735	16.7
542.932	16.87
543.129	16.9
543.327	16.78
543.524	17.38
543.721	17.3
543.919	17.05
544.116	17.32
544.313	17.08
544.51	16.96
544.708	17.41
544.905	17.7
545.102	17.57
545.299	17.18
545.496	17.17
545.693	16.81
545.891	17.04
546.088	16.76
546.285	16.99
546.482	17.61
546.679	17.82
546.876	17.92
547.073	18.17
547.27	18.54
547.467	18.64
547.664	18.68
547.861	18.99
548.058	19.27
548.255	19.67
548.452	19.29
548.649	19.67
548.846	19.63
549.043	19.08
549.24	18.64
549.437	17.99
549.633	18.14
549.83	19.05
550.027	19.18
550.224	19.04
550.421	18.79
550.618	19.6
550.814	19.2
551.011	19.09
551.208	19.41
551.405	19.57
551.601	19.85
551.798	20.11
551.995	19.79
552.191	19.28
552.388	19.29
552.585	19.79
552.781	19.43
552.978	19.82
553.175	20.18
553.371	20.2
553.568	20.38
553.764	20.74
553.961	21
554.157	20.53
554.354	21.02
554.55	21.67
554.747	21.95
554.943	22.55
555.14	22.12
555.336	22.21
555.533	22.4
555.729	22.76
555.926	22.38
556.122	22.5
556.318	22.72
556.515	22.85
556.711	22.44
556.907	22.77
557.104	23.12
557.3	23.35
557.496	23.5
557.693	23.67
557.889	24.02
558.085	24.51
558.281	24.61
558.478	25.17
558.674	25.03
558.87	24.64
559.066	23.9
559.262	23.37
559.459	23.55
559.655	23.84
559.851	24.17
560.047	23.86
560.243	23.74
560.439	23.44
560.635	23.34
560.831	23.84
561.027	24.66
561.223	24.83
561.419	25.52
561.615	25.69
561.811	25.45
562.007	24.9
562.203	24.69
562.399	24.66
562.595	25.11
562.791	25.29
562.987	24.69
563.183	24.05
563.379	23.98
563.575	23.57
563.771	23.46
563.966	23.17
564.162	23.68
564.358	23.87
564.554	24.52
564.75	23.79
564.945	23.99
565.141	24.59
565.337	24.66
565.533	25.09
565.728	25.24
565.924	24.78
566.12	25.68
566.315	25.34
566.511	25.33
566.707	25.2
566.902	25.3
567.098	25.55
567.293	25.66
567.489	26.32
567.684	26.22
567.88	25.73
568.076	26.06
568.271	25.93
568.467	26.35
568.662	26.39
568.858	26.16
569.053	25.92
569.248	25.36
569.444	24.57
569.639	24.04
569.835	24.4
570.03	24.4
570.225	24.39
570.421	23.99
570.616	23.92
570.812	24.35
571.007	24.51
571.202	24.29
571.397	24.48
571.593	25.19
571.788	25.38
571.983	25.05
572.178	25.82
572.374	26.21
572.569	26.25
572.764	26.43
572.959	26.17
573.154	26.17
573.35	27.24
573.545	27.64
573.74	27.61
573.935	27.73
574.13	27.76
574.325	26.86
574.52	26.53
574.715	26.63
574.91	26.14
575.105	26.27
575.3	26.78
575.495	26.73
575.69	26.82
575.885	27.02
576.08	27.03
576.275	27.13
576.47	27.44
576.665	27.68
576.86	27.81
577.055	27.69
577.25	27.49
577.444	27.36
577.639	27.79
577.834	27.3
578.029	27.14
578.224	27.09
578.418	27.54
578.613	27.51
578.808	27.56
579.003	27.24
579.197	28.22
579.392	28.76
579.587	28.27
579.781	27.7
579.976	28.62
580.171	27.77
580.365	28.61
580.56	28.32
580.755	29.16
580.949	29.69
581.144	29.45
581.338	29.34
581.533	29.53
581.727	29.4
581.922	29.24
582.116	28.92
582.311	30.13
582.505	29.78
582.7	29.87
582.894	29.75
583.089	28.43
583.283	29.85
583.478	29.64
583.672	28.86
583.866	29.65
584.061	30.39
584.255	30.4
584.449	30.15
584.644	30.37
584.838	30.45
585.032	30.09
585.226	30.98
585.421	30.3
585.615	29.99
585.809	30.76
586.003	30.44
586.198	30.37
586.392	29.59
586.586	29.62
586.78	29.57
586.974	29.45
587.168	29.87
587.363	29.63
587.557	29.99
587.751	30.52
587.945	30.8
588.139	31.17
588.333	30.91
588.527	32.15
588.721	31.38
588.915	31.52
589.109	31.41
589.303	31.41
589.497	31.28
589.691	31.24
589.885	31.27
590.079	31.05
590.273	30.42
590.466	29.84
590.66	29.11
590.854	30
591.048	29.86
591.242	30.68
591.436	31.46
591.629	31.96
591.823	31.98
592.017	31.97
592.211	31.61
592.404	31.62
592.598	32.35
592.792	32.37
592.986	31.95
593.179	31.21
593.373	30.42
593.567	30.34
593.76	30.13
593.954	29.73
594.147	30.68
594.341	30.97
594.535	31.24
594.728	31.21
594.922	30.92
595.115	31.08
595.309	31.39
595.502	32.03
595.696	30.82
595.889	30.84
596.083	30.97
596.276	30.28
596.47	30.15
596.663	30.26
596.856	30.2
597.05	30.72
597.243	30.72
597.437	30.7
597.63	30.17
597.823	30.94
598.017	31.16
598.21	30.65
598.403	30.81
598.596	30.84
598.79	30.91
598.983	30.54
599.176	30.65
599.369	31.06
599.563	31.75
599.756	32.88
599.949	33.65
600.142	33.79
600.335	33.91
600.528	33.64
600.722	34.42
600.915	34.06
601.108	34.95
601.301	34.45
601.494	33.9
601.687	33.51
601.88	33.04
602.073	32.14
602.266	31.89
602.459	32.51
602.652	32.56
602.845	31.64
603.038	32.05
603.231	31.7
603.424	32.15
603.617	32.4
603.809	32.11
604.002	31.92
604.195	31.77
604.388	32.17
604.581	32.12
604.774	32.55
604.966	32.72
605.159	32.83
605.352	33.17
605.545	32.93
605.737	33.29
605.93	33.73
606.123	33.36
606.316	34.1
606.508	33.85
606.701	33.81
606.894	32.99
607.086	33.45
607.279	33.68
607.471	34.51
607.664	34.09
607.857	33.71
608.049	33.83
608.242	34.3
608.434	33.97
608.627	34.1
608.819	34.29
609.012	34.69
609.204	34.61
609.397	34.09
609.589	33.65
609.782	34.02
609.974	34.3
610.166	34.37
610.359	34.71
610.551	34.9
610.743	35.3
610.936	35.49
611.128	35.81
611.32	36.36
611.513	36.32
611.705	35.57
611.897	35.81
612.09	35.99
612.282	36.51
612.474	35.86
612.666	36.01
612.858	36.04
613.051	35.71
613.243	35.81
613.435	34.86
613.627	35.13
613.819	35.72
614.011	35.69
614.203	35.49
614.395	34.98
614.588	35.26
614.78	36.24
614.972	36.53
615.164	36.68
615.356	36.88
615.548	37.19
615.74	37.17
615.932	36.68
616.124	36.47
616.315	36.89
616.507	37.35
616.699	37.49
616.891	36.36
617.083	35.97
617.275	35.85
617.467	35.67
617.659	36.38
617.85	36.97
618.042	37.6
618.234	37.98
618.426	38.23
618.618	37.99
618.809	37.36
619.001	36.82
619.193	37.48
619.384	37.92
619.576	37.46
619.768	37
619.959	37.05
620.151	36.89
620.343	37.31
620.534	36.73
620.726	36.51
620.917	38.18
621.109	38.82
621.301	38
621.492	38.14
621.684	37.89
621.875	37.66
622.067	37.02
622.258	36.61
622.45	35.82
622.641	36.23
622.832	36.26
623.024	35.44
623.215	35.85
623.407	36.3
623.598	35.67
623.789	35.32
623.981	35.23
624.172	35.63
624.363	36.07
624.555	37.26
624.746	36.97
624.937	37.21
625.129	37.19
625.32	36.72
625.511	36.59
625.702	36.35
625.893	36.8
626.085	36.9
626.276	36.4
626.467	35.7
626.658	34.79
626.849	35.39
627.04	35.29
627.231	34.73
627.422	35.45
627.614	35.11
627.805	35.82
627.996	35.22
628.187	35.55
628.378	36.32
628.569	36.46
628.76	35.68
628.951	33.9
629.142	33.94
629.332	34.44
629.523	33.54
629.714	33.22
629.905	33.04
630.096	33.39
630.287	33.85
630.478	33.13
630.669	34.1
630.859	35.4
631.05	36.21
631.241	36.25
631.432	36.14
631.623	36.91
631.813	37.22
632.004	36.48
632.195	36.69
632.385	36.08
632.576	37.2
632.767	37.22
632.957	36.74
633.148	36.62
633.339	36.78
633.529	36.22
633.72	35.08
633.91	34.93
634.101	36.33
634.292	36.82
634.482	36.89
634.673	35.83
634.863	35.89
635.054	36.58
635.244	36.9
635.435	36.51
635.625	37.19
635.815	38.73
636.006	39.24
636.196	38.66
636.387	38.94
636.577	38.72
636.767	39.65
636.958	38.32
637.148	38.11
637.338	38.21
637.529	39.35
637.719	39.53
637.909	39.9
638.099	39.45
638.29	39.24
638.48	38.51
638.67	38.09
638.86	38.45
639.05	39.54
639.241	40.03
639.431	40.47
639.621	39.16
639.811	39.01
640.001	38.74
640.191	38.93
640.381	39.32
640.571	39.91
640.761	41.04
640.951	40.67
641.141	40.56
641.331	39.58
641.521	39.12
641.711	39.8
641.901	40.56
642.091	41.43
642.281	41.71
642.471	41.24
642.661	41.66
642.851	40.41
643.041	40.13
643.231	40.95
643.42	41.38
643.61	41.91
643.8	42.07
643.99	41.14
644.18	40.18
644.369	41.05
644.559	41.19
644.749	40.86
644.939	43.16
645.128	42.85
645.318	42.48
645.508	42.62
645.697	42.67
645.887	43.24
646.076	44.09
646.266	44.36
646.456	44.11
646.645	44.38
646.835	43.94
647.024	42.46
647.214	42.84
647.403	41.42
647.593	41.75
647.782	41.26
647.972	40.19
648.161	39.98
648.351	39.42
648.54	38.69
648.73	39.1
648.919	38.78
649.108	39.09
649.298	39.1
649.487	39.9
649.677	39.98
649.866	40.21
650.055	40.81
650.244	40.61
650.434	40.5
650.623	41
650.812	40.72
651.002	40.66
651.191	41.8
651.38	41.9
651.569	42.69
651.758	41.84
651.947	42.04
652.137	42.51
652.326	43.4
652.515	43.95
652.704	44.34
652.893	45.32
653.082	46.64
653.271	45.37
653.46	44.5
653.649	44.38
653.838	45.6
654.027	44.52
654.216	43.86
654.405	42.87
654.594	42.84
654.783	41.87
654.972	40.09
655.161	39.49
655.35	40.42
655.539	40.49
655.728	40.93
655.916	40.02
656.105	41.3
656.294	41.58
656.483	41.45
656.672	40.37
656.86	40.42
657.049	41.16
657.238	40.55
657.427	39.61
657.615	40.04
657.804	38.9
657.993	38.6
658.181	38.26
658.37	38.69
658.559	38.51
658.747	39.16
658.936	39.03
659.125	38.91
659.313	39.85
659.502	39.87
659.69	40.1
659.879	40.34
660.067	41.2
660.256	40.92
660.444	40.03
660.633	41.4
660.821	41.41
661.01	41.99
661.198	42.61
661.387	41.4
661.575	42.47
661.763	43.19
661.952	43.77
662.14	43.65
662.328	44.89
662.517	45.54
662.705	44.58
662.893	44.35
663.082	43.54
663.27	43.55
663.458	44.86
663.646	43.59
663.834	43.62
664.023	43.2
664.211	41.92
664.399	41.45
664.587	40.51
664.775	40.44
664.963	40.8
665.152	41.88
665.34	41.98
665.528	43.16
665.716	44.07
665.904	43.58
666.092	44.22
666.28	45.26
666.468	44.4
666.656	44.56
666.844	43.97
667.032	44.14
667.22	43.52
667.408	43.8
667.596	41.48
667.784	40.72
667.971	40.98
668.159	41.16
668.347	40.92
668.535	42.05
668.723	42.62
668.911	44.05
669.098	44.54
669.286	45.81
669.474	44.44
669.662	45.37
669.849	46.52
670.037	45.96
670.225	45.84
670.413	46.01
670.6	46.45
670.788	45.62
670.976	43.77
671.163	42.45
671.351	41.48
671.538	42.72
671.726	42.56
671.913	43.3
672.101	44.06
672.289	43.37
672.476	43.74
672.664	43.24
672.851	44.53
673.039	44.78
673.226	45.95
673.413	45.93
673.601	45.28
673.788	46.14
673.976	45.89
674.163	45.61
674.35	45.74
674.538	46.43
674.725	46.13
674.912	45.49
675.1	47.48
675.287	47.34
675.474	47.34
675.662	47.79
675.849	46.82
676.036	44.77
676.223	43.82
676.411	44.61
676.598	44.1
676.785	43.83
676.972	43.91
677.159	42.22
677.346	41.69
677.533	40.93
677.721	40.66
677.908	41.17
678.095	41.99
678.282	43.65
678.469	44.58
678.656	44.97
678.843	45.2
679.03	45.58
679.217	45.21
679.404	44.92
679.591	45.13
679.778	44.77
679.964	44.25
680.151	43.41
680.338	42.04
680.525	41.92
680.712	41.8
680.899	41.99
681.086	41.06
681.272	42.1
681.459	43.39
681.646	44.31
681.833	44.9
682.02	45.06
682.206	44.81
682.393	45.18
682.58	44.44
682.766	44.07
682.953	43.64
683.14	44.79
683.326	44.68
683.513	43.07
683.7	41.58
683.886	40.98
684.073	41.58
684.259	43.63
684.446	44.09
684.632	44.25
684.819	44.01
685.005	43.81
685.192	44.22
685.378	43.98
685.565	45.26
685.751	46.34
685.938	46.22
686.124	45.89
686.31	44.83
686.497	44.05
686.683	42.44
686.87	42.31
687.056	40.72
687.242	40.21
687.429	39.3
687.615	38.15
687.801	37.75
687.987	37.75
688.174	37.42
688.36	37.41
688.546	39
688.732	40.48
688.918	41.17
689.105	42.85
689.291	42.06
689.477	43.31
689.663	44.06
689.849	44.44
690.035	46.29
690.221	47.01
690.407	47.22
690.593	46.94
690.779	46.62
690.965	46.45
691.151	45.89
691.337	47.42
691.523	47.3
691.709	47.62
691.895	48.01
692.081	46.81
692.267	46.08
692.453	46.47
692.639	46.45
692.825	47.13
693.011	44.8
693.196	45.43
693.382	44.16
693.568	43.88
693.754	43.37
693.94	43.47
694.125	44.88
694.311	44.49
694.497	44.54
694.682	44.64
694.868	43.15
695.054	45.91
695.239	47.6
695.425	48.33
695.611	46.8
695.796	47.65
695.982	47
696.168	44.69
696.353	45.15
696.539	44.88
696.724	43.62
696.91	44.16
697.095	43.77
697.281	41.66
697.466	41.25
697.652	42.47
697.837	42.12
698.023	42.21
698.208	42.66
698.393	42.41
698.579	42.73
698.764	43.09
698.949	42.54
699.135	42.61
699.32	43.04
699.505	43.38
699.691	43.18
699.876	43.43
700.061	42.91
700.246	43.05
700.432	43.74
700.617	43.43
700.802	42.56
700.987	44.52
701.172	46.58
701.358	46.68
701.543	45.37
701.728	46.65
701.913	46.52
702.098	47.72
702.283	48.42
702.468	48.78
702.653	49.69
702.838	51.62
703.023	51.98
703.208	50.94
703.393	52.77
703.578	54.13
703.763	56.9
703.948	56.2
704.133	56.63
704.318	58.17
704.503	58.78
704.688	59.03
704.873	57.05
705.057	55.67
705.242	55.36
705.427	55.55
705.612	55.85
705.797	52.88
705.981	53.65
706.166	52.49
706.351	51.75
706.536	51.45
706.72	49.74
706.905	50.6
707.09	50.33
707.274	50.27
707.459	49.53
707.644	49.15
707.828	49.22
708.013	47.31
708.197	47.89
708.382	46.75
708.567	48.38
708.751	49.14
708.936	50.9
709.12	51.44
709.305	50.09
709.489	48.86
709.673	49.92
709.858	50.56
710.042	52.26
710.227	50.55
710.411	51.6
710.596	48.26
710.78	48.68
710.964	47.72
711.149	48.04
711.333	48.85
711.517	48.93
711.702	48.21
711.886	46.46
712.07	46.48
712.254	47.93
712.438	46.86
712.623	48.13
712.807	48.29
712.991	49.6
713.175	49.12
713.359	49.75
713.544	50.65
713.728	49.24
713.912	48.41
714.096	47.93
714.28	47.65
714.464	48.38
714.648	48.21
714.832	46.05
715.016	43.83
715.2	42.71
715.384	41.73
715.568	40.7
715.752	41.24
715.936	41.3
716.12	40.27
716.304	39.42
716.488	37.53
716.671	36.6
716.855	36.82
717.039	35
717.223	35.53
717.407	33.33
717.59	33.79
717.774	34.77
717.958	35.09
718.142	34.78
718.325	38.79
718.509	40.69
718.693	40.33
718.877	41.03
719.06	43.69
719.244	43.8
719.428	45.12
719.611	47.67
719.795	46.92
719.978	49.56
720.162	50.11
720.345	49.47
720.529	48.23
720.713	49.4
720.896	48.78
721.08	49.53
721.263	49.18
721.446	50.25
721.63	48.96
721.813	48.58
721.997	47.86
722.18	48.89
722.364	46.93
722.547	48.11
722.73	47.48
722.914	51.14
723.097	49
723.28	49.13
723.464	47.93
723.647	49.81
723.83	49.54
724.013	49.42
724.197	50.07
724.38	50.88
724.563	50.77
724.746	52.57
724.929	50.93
725.112	51.96
725.296	52.73
725.479	53
725.662	49.59
725.845	49.4
726.028	48.49
726.211	46.98
726.394	45.54
726.577	45.85
726.76	43.63
726.943	42.37
727.126	43.86
727.309	44.45
727.492	43.7
727.675	44.13
727.858	46.23
728.041	45.66
728.224	46.16
728.407	45.7
728.589	45.19
728.772	47.37
728.955	49.13
729.138	46.29
729.321	46.74
729.503	48.92
729.686	48.64
729.869	47.16
730.052	48.3
730.234	49.85
730.417	49.69
730.6	50.33
730.782	50.69
730.965	52.81
731.148	56.81
731.33	56.09
731.513	56.98
731.695	57.59
731.878	58.07
732.061	57.05
732.243	55.45
732.426	56.15
732.608	55.52
732.791	54.07
732.973	52.76
733.156	50.71
733.338	50.61
733.52	48.12
733.703	47.97
733.885	48.17
734.068	50.45
734.25	51.42
734.432	53.16
734.615	52.96
734.797	53.52
734.979	50.18
735.162	49.37
735.344	50.6
735.526	51.69
735.708	54.41
735.891	54.94
736.073	53.69
736.255	55.87
736.437	54.16
736.619	53.18
736.802	54.8
736.984	59.21
737.166	60.57
737.348	61.77
737.53	62.31
737.712	61.03
737.894	61.73
738.076	60.12
738.258	57.86
738.44	59.57
738.622	63.55
738.804	62.82
738.986	60.12
739.168	59.62
739.35	59.2
739.532	58.58
739.714	59.02
739.896	58.91
740.078	61.48
740.259	62.14
740.441	60.23
740.623	57.63
740.805	55.02
740.987	57.15
741.168	55.85
741.35	54.58
741.532	53.47
741.714	51.83
741.895	54.5
742.077	55.8
742.259	56.62
742.44	57.57
742.622	57.95
742.804	61.37
742.985	62.47
743.167	64.05
743.348	63.89
743.53	65.66
743.711	69.97
743.893	65.96
744.075	64.91
744.256	61.4
744.438	61.85
744.619	61.23
744.8	61.19
744.982	59.38
745.163	58.92
745.345	63.89
745.526	65.39
745.707	61.44
745.889	64.25
746.07	63.58
746.252	69.42
746.433	69.77
746.614	71.23
746.795	70.95
746.977	71.05
747.158	74.38
747.339	69.62
747.52	66.59
747.702	67.68
747.883	61.93
748.064	61.9
748.245	57.72
748.426	56.58
748.607	53.25
748.788	54.88
748.97	56.29
749.151	53.75
749.332	54.49
749.513	54.65
749.694	55.59
749.875	59.16
750.056	58.91
750.237	58.93
750.418	62.28
750.599	64.36
750.78	63.07
750.96	62.34
751.141	62.14
751.322	59.33
751.503	61.38
751.684	59.88
751.865	59.45
752.046	58.55
752.226	60.92
752.407	60.55
752.588	62.6
752.769	63.45
752.949	65.24
753.13	64.16
753.311	65.25
753.492	65.6
753.672	65.51
753.853	67.25
754.034	71.04
754.214	67.59
754.395	66.26
754.575	66.18
754.756	64.81
754.937	63.14
755.117	63.98
755.298	63.89
755.478	61.67
755.659	61.64
755.839	58.34
756.02	56.37
756.2	62.13
756.381	63.13
756.561	63.82
756.741	64.23
756.922	62.96
757.102	66.31
757.283	65.58
757.463	67.38
757.643	65.69
757.823	62.3
758.004	59.63
758.184	55.25
758.364	52.24
758.545	46.13
758.725	46.2
758.905	45.23
759.085	42.29
759.265	43.03
759.446	42.59
759.626	41.99
759.806	44.3
759.986	46.25
760.166	46.13
760.346	46
760.526	49.59
760.706	48.75
760.886	51.77
761.066	50.19
761.246	48.64
761.426	44.33
761.606	42.67
761.786	41.2
761.966	41.33
762.146	41.21
762.326	40.08
762.506	39.03
762.686	37.74
762.866	36.01
763.046	35.49
763.225	35.38
763.405	38.33
763.585	39.9
763.765	41.75
763.945	40.91
764.124	41.5
764.304	44.89
764.484	47.15
764.664	50.2
764.843	52.24
765.023	56.17
765.203	56.71
765.382	58.67
765.562	60.57
765.741	60.65
765.921	59.94
766.101	59.36
766.28	57.19
766.46	56.07
766.639	53.3
766.819	54.04
766.998	51.86
767.178	55.02
767.357	53.87
767.537	54.82
767.716	56.55
767.896	59.91
768.075	63.5
768.254	63.82
768.434	64.91
768.613	68.19
768.792	65.99
768.972	71.98
769.151	73.31
769.33	75.42
769.51	74.42
769.689	73.78
769.868	75.48
770.047	72.12
770.226	71.82
770.406	73.68
770.585	72.2
770.764	74.34
770.943	65.45
771.122	66.31
771.301	65.72
771.48	62.12
771.66	61.78
771.839	60.06
772.018	63.9
772.197	66.79
772.376	67.64
772.555	70.15
772.734	70.21
772.913	72.55
773.092	71.48
773.271	76.6
773.449	79.45
773.628	82.61
773.807	81.84
773.986	80.8
774.165	83.67
774.344	82.49
774.523	80.82
774.701	79.46
774.88	78.38
775.059	80.09
775.238	73.29
775.417	73.47
775.595	71.02
775.774	72.23
775.953	72.31
776.131	72.35
776.31	70.57
776.489	70.24
776.667	72.81
776.846	73.05
777.025	73.52
777.203	72.88
777.382	71.49
777.56	75.64
777.739	75.37
777.917	75.47
778.096	73.4
778.274	74.45
778.453	72.58
778.631	72.85
778.81	75.81
778.988	72.85
779.166	76.28
779.345	79.74
779.523	74.91
779.702	73.33
779.88	71.74
780.058	69.18
780.237	70.95
780.415	72.94
780.593	66.99
780.771	66.68
780.95	68.76
781.128	68.97
781.306	70.02
781.484	70.99
781.662	73.5
781.841	77.52
782.019	79.85
782.197	77.86
782.375	75.23
782.553	79.9
782.731	78.15
782.909	78.13
783.087	73.66
783.265	72.34
783.443	74.87
783.621	71.92
783.799	67.49
783.977	75.02
784.155	79.91
784.333	81.67
784.511	80.98
784.689	88.3
784.867	81.17
785.045	82.83
785.223	81.03
785.4	86.49
785.578	86.25
785.756	84.68
785.934	78.46
786.112	70.88
786.289	69.38
786.467	69.02
786.645	64.95
786.823	68.45
787	67.57
787.178	67.66
787.356	56.45
787.533	55.06
787.711	59.88
787.889	57.37
788.066	58.15
788.244	58.62
788.421	58.42
788.599	53.41
788.776	52.07
788.954	52.34
789.131	49.28
789.309	51.83
789.486	58.26
789.664	57.4
789.841	58.54
790.019	61.56
790.196	61.33
790.373	60.54
790.551	67.67
790.728	68.44
790.906	71.68
791.083	69.97
791.26	69.45
791.437	71.31
791.615	68.8
791.792	71.13
791.969	70.08
792.146	69.54
792.324	72.33
792.501	71.64
792.678	73.25
792.855	66.74
793.032	70.01
793.209	74.49
793.387	71.73
793.564	75.32
793.741	71.27
793.918	74.84
794.095	79.05
794.272	80.48
794.449	81.76
794.626	79.89
794.803	78.71
794.98	82.8
795.157	82.05
795.334	78.33
795.511	75.99
795.688	83.21
795.864	80.55
796.041	75.4
796.218	74.88
796.395	72.31
796.572	72.26
796.749	79.73
796.925	80.44
797.102	74.6
797.279	69.67
797.456	70.09
797.632	66.19
797.809	66
797.986	69.43
798.162	67.61
798.339	70.85
798.516	78.15
798.692	72.99
798.869	67.7
799.046	74.17
799.222	78.44
799.399	76.26
799.575	75.3
799.752	75.06
799.928	72.66
800.105	75.52
800.281	73.84
800.458	67.91
800.634	73.26
800.811	77.24
800.987	80.2
801.163	81.08
801.34	76.98
801.516	81.48
801.692	78.24
801.869	81.55
802.045	80.77
802.221	83.64
802.398	91.06
802.574	86.51
802.75	82.68
802.926	78.96
803.103	82.17
803.279	88.25
803.455	79.48
803.631	81.34
803.807	80.43
803.983	76.47
804.16	66.51
804.336	62.37
804.512	67.21
804.688	74.89
804.864	69.77
805.04	69.44
805.216	65.56
805.392	70.7
805.568	70.16
805.744	72.2
805.92	68.6
806.096	74.05
806.272	67.58
806.448	68.94
806.623	63.69
806.799	60.7
806.975	51.94
807.151	60.15
807.327	66.44
807.503	64.38
807.678	64.88
807.854	74.51
808.03	74.11
808.206	75.61
808.381	67.34
808.557	65.52
808.733	70.76
808.908	75.68
809.084	76.57
809.26	68.6
809.435	71.4
809.611	72.14
809.787	70.6
809.962	66.04
810.138	66.6
810.313	65.21
810.489	65.95
810.664	64.29
810.84	63.23
811.015	61.97
811.191	68.15
811.366	64.83
811.542	62
811.717	61.96
811.892	68.85
812.068	68.27
812.243	72.17
812.419	76
812.594	80.5
812.769	74.88
812.944	70.03
813.12	59.74
813.295	63.13
813.47	61.73
813.645	54.9
813.821	48.24
813.996	49.8
814.171	45.87
814.346	39.7
814.521	37.43
814.697	35.38
814.872	44.02
815.047	53.43
815.222	59.68
815.397	61.98
815.572	62.62
815.747	62.74
815.922	61.23
816.097	57.01
816.272	51.82
816.447	50.98
816.622	52.96
816.797	45.43
816.972	32.71
817.147	26.32
817.322	28.6
817.496	31.58
817.671	32.38
817.846	28.7
818.021	32.41
818.196	35.53
818.371	39.54
818.545	44.81
818.72	51.42
818.895	56.16
819.069	54.09
819.244	53.17
819.419	50.96
819.594	49.01
819.768	50.21
819.943	48.15
820.117	49.88
820.292	46.71
820.467	46.17
820.641	41
820.816	38.13
820.99	36.97
821.165	35.32
821.339	35.16
821.514	34.93
821.688	34.12
821.863	34.89
822.037	32.73
822.212	31.32
822.386	30.15
822.56	31.41
822.735	31.51
822.909	31.49
823.084	31.1
823.258	30.89
823.432	31.28
823.606	31.09
823.781	30.83
823.955	31.34
824.129	34.75
824.303	35.36
824.478	33.68
824.652	33.09
824.826	31.19
825	35.74
825.174	36.95
825.348	35.29
825.523	32.93
825.697	34.32
825.871	35.14
826.045	31.92
826.219	31.75
826.393	32.19
826.567	31.73
826.741	33.53
826.915	31.51
827.089	31.91
827.263	34.29
827.437	35.49
827.611	34.87
827.784	36.37
827.958	37.32
828.132	37.18
828.306	40.02
828.48	43.98
828.654	48.03
828.827	46.75
829.001	49.17
829.175	52.88
829.349	59.18
829.522	60.85
829.696	60.1
829.87	64.02
830.044	66.25
830.217	63.48
830.391	63.17
830.565	66.67
830.738	69.62
830.912	63.46
831.085	54.86
831.259	50.77
831.432	50.33
831.606	51.95
831.779	50.29
831.953	47.22
832.126	47.53
832.3	47.64
832.473	45.86
832.647	48.06
832.82	53.36
832.994	53.61
833.167	50.65
833.34	50.4
833.514	50.95
833.687	49.6
833.86	49.55
834.034	49.48
834.207	48.78
834.38	47.8
834.553	46.2
834.727	44.33
834.9	46.52
835.073	48.35
835.246	46.38
835.419	43.8
835.593	44.76
835.766	43.97
835.939	47.52
836.112	49.35
836.285	48.91
836.458	50.42
836.631	56.63
836.804	54.6
836.977	58.96
837.15	60.95
837.323	64.51
837.496	64.45
837.669	66.28
837.842	63.61
838.015	60.96
838.188	68.26
838.361	68.62
838.533	61.02
838.706	62.64
838.879	54.67
839.052	58.52
839.225	70.29
839.398	78.93
839.57	79.59
839.743	79.35
839.916	73.22
840.088	69.71
840.261	66.77
840.434	60.48
840.607	65.3
840.779	71.2
840.952	71.38
841.124	66.46
841.297	61.59
841.47	67.63
841.642	81.47
841.815	94.71
841.987	93.17
842.16	97.25
842.332	108.55
842.505	104.52
842.677	103.36
842.85	103.78
843.022	109.24
843.194	106.3
843.367	113.05
843.539	96.46
843.712	93.28
843.884	96.66
844.056	101.12
844.229	99.31
844.401	109.49
844.573	112.19
844.745	112.59
844.918	101.74
845.09	115.9
845.262	107.46
845.434	102.42
845.606	101.54
845.779	116.01
845.951	116.41
846.123	125.67
846.295	109.76
846.467	111.52
846.639	109.8
846.811	126.49
846.983	126.97
847.155	111.74
847.327	114.93
847.499	120.97
847.671	91.25
847.843	94.7
848.015	84.06
848.187	103.32
848.359	104.17
848.531	108.79
848.703	106.41
848.875	98.61
849.047	129.97
849.218	139.24
849.39	207.23
849.562	259.42
849.734	309.87
849.905	365.57
850.077	281.11
850.249	183.71
850.421	156.21
850.592	112.95
850.764	125.22
850.936	101.61
851.107	116.27
851.279	98.89
851.451	102.77
851.622	96.94
851.794	109.04
851.965	103.76
852.137	103.75
852.308	126.36
852.48	179.83
852.651	170.38
852.823	202.31
852.994	184.73
853.166	213.73
853.337	185.56
853.509	186.55
853.68	176.71
853.851	197.51
854.023	226.55
854.194	237.6
854.365	198.86
854.537	209.84
854.708	178.63
854.879	170.65
855.05	159.07
855.222	185.49
855.393	153.18
855.564	148.8
855.735	134.82
855.906	135.51
856.078	144.57
856.249	135.47
856.42	135.28
856.591	169.44
856.762	195.99
856.933	220.8
857.104	302.15
857.275	591.61
857.446	1113.1
857.617	420.91
857.788	436.93
857.959	356.71
858.13	454.48
858.301	225.9
858.472	175.14
858.643	121.44
858.814	118.2
858.985	83.58
859.155	79.19
859.326	53.19
859.497	49.26
859.668	52.27
859.839	47.13
860.009	59
860.18	61.46
860.351	50.99
860.522	69.71
860.692	64.2
860.863	80.6
861.034	78.54
861.204	94.81
861.375	119.57
861.546	140.96
861.716	179.15
861.887	183.85
862.057	168.06
862.228	222.96
862.398	127.3
862.569	114.15
862.739	101.4
862.91	95.11
863.08	86.05
863.251	86.72
863.421	84.09
863.592	93.96
863.762	89.64
863.932	90.01
864.103	90.51
864.273	117.18
864.443	125.06
864.614	146.3
864.784	155.42
864.954	176.38
865.125	167.13
865.295	207.37
865.465	212.6
865.635	199.79
865.805	210.98
865.976	172.42
866.146	133.94
866.316	126.49
866.486	103.13
866.656	92.37
866.826	87.92
866.996	83.46
867.166	65.37
867.336	67.42
867.506	78.38
867.676	90.49
867.846	80.52
868.016	65.02
868.186	57.33
868.356	61.37
868.526	55.54
868.696	73.24
868.866	79.23
869.036	70.63
869.206	59.68
869.376	49.27
869.545	62.42
869.715	74.57
869.885	81.15
870.055	100.27
870.224	116.51
870.394	123.77
870.564	118.41
870.734	109.67
870.903	99.63
871.073	99.11
871.243	112.03
871.412	108.64
871.582	128.08
871.751	143.74
871.921	131.93
872.091	119.89
872.26	130.53
872.43	146.88
872.599	175.66
872.769	244.61
872.938	235.87
873.108	200.16
873.277	207.31
873.446	160.47
873.616	138.93
873.785	142.26
873.955	155.7
874.124	171.43
874.293	140.99
874.463	150.76
874.632	120.96
874.801	143.13
874.971	194.04
875.14	145.72
875.309	191.47
875.478	191.27
875.647	217.78
875.817	389.12
875.986	446.57
876.155	278.63
876.324	116.48
876.493	181.06
876.662	151.41
876.831	102.7
877	109.15
877.17	107.13
877.339	100.59
877.508	95.2
877.677	87.36
877.846	74.67
878.015	93.38
878.184	103.52
878.352	62.83
878.521	57.47
878.69	73.03
878.859	58.18
879.028	55.15
879.197	68.38
879.366	48.66
879.534	38.97
879.703	35.56
879.872	27.58
880.041	26.89
880.21	32.87
880.378	33.16
880.547	30.27
880.716	27.71
880.884	32.35
881.053	26.38
881.222	29.92
881.39	29.73
881.559	31.21
881.727	34.93
881.896	35.94
882.065	34.29
882.233	33.33
882.402	28.68
882.57	26.76
882.739	26.04
882.907	25.1
883.076	25.97
883.244	25.55
883.412	26.83
883.581	23.69
883.749	18.11
883.918	16.47
884.086	17.61
884.254	23.28
884.423	34.89
884.591	32.08
884.759	40.2
884.927	35.7
885.096	32.12
885.264	19.71
885.432	22.25
885.6	23.5
885.769	24
885.937	17.49
886.105	21.25
886.273	8.47
886.441	8.69
886.609	3.02
886.777	23.29
886.945	17.9
887.113	37.91
887.281	54.92
887.449	61
887.617	108.94
887.785	87.85
887.953	65.37
888.121	64.69
888.289	49.82
888.457	56.3
888.625	48.83
888.793	92.42
888.961	162.61
889.129	115.85
889.296	172.92
889.464	68.12
889.632	104.74
889.8	166.89
889.967	160.67
890.135	193.02
