Data from JASIL_3080_Reflection_02.txt Node
Date: Mon Nov 09 11:55:11 EST 2015
User: Geneva
Spectrometer: USB4E03002
Autoset integration time: false
Trigger mode: 4
Integration Time (sec): 1.000000E-1
Scans to average: 10
Electric dark correction enabled: false
Nonlinearity correction enabled: false
Boxcar width: 5
Stray light correction enabled: false
XAxis mode: Wavelengths
Stop averaging: false
Number of Pixels in Spectrum: 3648
>>>>>Begin Spectral Data<<<<<
177.575	-29.13
177.794	778.95
178.014	-377.55
178.233	-68.79
178.452	-118.84
178.672	-36.36
178.891	-58.69
179.11	-234.37
179.33	-115.08
179.549	-41.27
179.768	-82.29
179.987	-11.35
180.207	20.37
180.426	11.15
180.645	31.41
180.864	8.93
181.084	-42.01
181.303	4.27
181.522	34.11
181.741	-1209.09
181.96	127.63
182.179	323.08
182.398	62.01
182.618	69.92
182.837	72.69
183.056	172.49
183.275	236.11
183.494	37.68
183.713	-6575
183.932	-3372.73
184.151	-111.76
184.37	-40.87
184.589	-20.83
184.808	-38.96
185.027	-3.71
185.246	4.13
185.465	23.47
185.684	-11.19
185.903	-317.02
186.122	-528.3
186.341	-143.02
186.56	-557.89
186.779	131.69
186.998	201.12
187.216	616
187.435	187.68
187.654	-4428.57
187.873	-649.02
188.092	-159
188.311	48.76
188.53	111.9
188.748	95.17
188.967	117.34
189.186	107.52
189.405	115.95
189.623	127.02
189.842	120.99
190.061	208.95
190.28	206.91
190.498	469.7
190.717	168.42
190.936	55.83
191.154	20.47
191.373	-213.91
191.592	-126.57
191.81	-177.01
192.029	-35.92
192.248	-7.28
192.466	5.66
192.685	14.63
192.904	11.48
193.122	25
193.341	34.66
193.559	34.18
193.778	40.24
193.996	48.8
194.215	35.35
194.433	113.56
194.652	95.29
194.87	116.24
195.089	140.24
195.307	270.1
195.526	344.44
195.744	871.43
195.963	342.66
196.181	583.87
196.399	177.15
196.618	143.87
196.836	118.16
197.055	153.11
197.273	155.86
197.491	113.25
197.71	96.46
197.928	106.48
198.146	115.15
198.365	78.29
198.583	95.11
198.801	117.76
199.019	129.71
199.238	319.44
199.456	371.56
199.674	962.5
199.892	-4827.27
200.111	-506.49
200.329	15500
200.547	306.25
200.765	244.41
200.983	240.61
201.202	282.57
201.42	253.51
201.638	174.34
201.856	149.1
202.074	117.52
202.292	133.33
202.51	148.74
202.728	129.99
202.946	139.19
203.165	121.57
203.383	97
203.601	51.13
203.819	44.74
204.037	22.02
204.255	34.49
204.473	63.52
204.691	61.35
204.909	33.81
205.127	43.53
205.345	30.51
205.562	24.19
205.78	49.27
205.998	71.7
206.216	66.67
206.434	99
206.652	67.73
206.87	59.24
207.088	42.88
207.306	46.9
207.523	44.44
207.741	59.17
207.959	278.79
208.177	60.94
208.395	368.75
208.612	1255.56
208.83	152.44
209.048	264.08
209.266	12033.33
209.483	-422.73
209.701	-103.54
209.919	-59.54
210.136	-72.94
210.354	638.71
210.572	994.12
210.79	-203.48
211.007	-275
211.225	-35.58
211.442	29.56
211.66	86.82
211.878	111.44
212.095	1846.77
212.313	-1232.05
212.53	-2600
212.748	1121.11
212.966	3140
213.183	-7875
213.401	744.06
213.618	549.32
213.836	1142.99
214.053	872.93
214.271	1990.38
214.488	110.75
214.705	121.39
214.923	174.74
215.14	232.61
215.358	172.29
215.575	199.38
215.793	211.89
216.01	290.84
216.227	204.39
216.445	184.84
216.662	243.96
216.879	198.72
217.097	199.33
217.314	180.36
217.531	25
217.749	-337.5
217.966	710
218.183	4600
218.4	75.93
218.618	232.35
218.835	-567.65
219.052	-43.35
219.269	-8.54
219.487	-51.7
219.704	-616
219.921	-87.88
220.138	300.88
220.355	598.39
220.572	183.57
220.79	151.13
221.007	152.41
221.224	129.38
221.441	158.56
221.658	138.76
221.875	104.34
222.092	106.18
222.309	127.16
222.526	80.47
222.743	68.13
222.96	42.21
223.177	34.24
223.394	9.52
223.611	11.36
223.828	1.21
224.045	-0.37
224.262	-12.32
224.479	0
224.696	-11.91
224.913	-23.12
225.13	-23.48
225.347	-9.18
225.564	-0.83
225.781	6.83
225.997	-1.7
226.214	3.77
226.431	-1.27
226.648	-2.07
226.865	-2.42
227.082	3.02
227.298	9.88
227.515	9.21
227.732	9.94
227.949	12.31
228.165	9.25
228.382	17.12
228.599	18.48
228.816	24.85
229.032	32.69
229.249	29.33
229.466	27.67
229.682	24.44
229.899	21.96
230.116	27.47
230.332	15.21
230.549	6.44
230.765	11.94
230.982	7.44
231.199	-2.72
231.415	-6.21
231.632	0.51
231.848	-2.68
232.065	-1.85
232.281	-0.87
232.498	-12.58
232.714	-6.64
232.931	6.77
233.147	-10.59
233.364	-10.47
233.58	2.24
233.797	3.03
234.013	-2.59
234.23	-7.46
234.446	-6.07
234.662	0.67
234.879	0.77
235.095	5.7
235.312	5.98
235.528	21.63
235.744	22.06
235.961	17.08
236.177	20.1
236.393	22.15
236.61	23.4
236.826	15.88
237.042	6.26
237.258	8.93
237.475	7.25
237.691	9.57
237.907	2.32
238.123	2.83
238.339	1.06
238.556	-7.23
238.772	-6.88
238.988	-0.31
239.204	-7.63
239.42	0.34
239.636	4.59
239.853	10.1
240.069	12.31
240.285	13.12
240.501	14.7
240.717	17.27
240.933	17.11
241.149	15.07
241.365	15.69
241.581	14.32
241.797	14.59
242.013	11.98
242.229	10.21
242.445	5.54
242.661	5.02
242.877	3.03
243.093	1.99
243.309	-0.27
243.525	0.38
243.741	3.84
243.957	2.51
244.173	-5.67
244.388	-3.9
244.604	-0.84
244.82	2.73
245.036	2.26
245.252	1.01
245.468	-0.2
245.683	0.5
245.899	6.86
246.115	4.65
246.331	8.14
246.547	9.15
246.762	9.39
246.978	9.11
247.194	6.81
247.409	6.83
247.625	8.86
247.841	8.97
248.057	11.3
248.272	2.56
248.488	3.33
248.703	-1.76
248.919	1.21
249.135	3.24
249.35	-3.26
249.566	5.67
249.782	0.32
249.997	-3.32
250.213	0.14
250.428	-4.72
250.644	3.84
250.859	3.25
251.075	4.31
251.29	5.76
251.506	8.2
251.721	10.66
251.937	9.31
252.152	15.26
252.368	14.81
252.583	16.26
252.798	18.86
253.014	16.45
253.229	17.62
253.445	15.92
253.66	11.7
253.875	7.05
254.091	11.6
254.306	13.82
254.521	4.49
254.737	8.34
254.952	4.67
255.167	5.84
255.383	7.24
255.598	6.87
255.813	15.06
256.028	12.81
256.244	13.92
256.459	14
256.674	8.61
256.889	11.52
257.104	8.78
257.32	9.86
257.535	8.2
257.75	4.36
257.965	3.11
258.18	0.49
258.395	0.09
258.61	-0.04
258.826	-1.73
259.041	0.47
259.256	-0.2
259.471	0.03
259.686	-0.49
259.901	1.16
260.116	3.44
260.331	3.9
260.546	3.05
260.761	5.29
260.976	3.05
261.191	2.85
261.406	0.71
261.621	0.76
261.836	1.84
262.05	-0.61
262.265	0.11
262.48	-0.95
262.695	-0.22
262.91	0.83
263.125	2.83
263.34	5.81
263.555	5.16
263.769	3.46
263.984	6.42
264.199	1.76
264.414	6.85
264.629	3.45
264.843	2.07
265.058	1.32
265.273	1.16
265.488	-0.7
265.702	2.3
265.917	6.78
266.132	10.73
266.346	11.36
266.561	15.73
266.776	19.78
266.99	18.35
267.205	20.8
267.42	21.39
267.634	22.63
267.849	23.39
268.063	17.08
268.278	12.99
268.492	11.61
268.707	9.35
268.922	4.44
269.136	-3.41
269.351	1.19
269.565	2.82
269.78	1.96
269.994	1.4
270.209	2.28
270.423	7.57
270.637	10.74
270.852	7.52
271.066	6.8
271.281	8.14
271.495	6.8
271.709	3.54
271.924	-0.42
272.138	-0.9
272.353	0.18
272.567	-1.13
272.781	-4.77
272.996	-9.4
273.21	-6.55
273.424	-4.88
273.638	-4.72
273.853	-1.3
274.067	-2.35
274.281	-0.81
274.495	-0.09
274.71	0.83
274.924	-0.78
275.138	0.66
275.352	-1.66
275.566	-3.72
275.781	-6.11
275.995	-2.17
276.209	1.39
276.423	8.79
276.637	8.87
276.851	6.06
277.065	6.85
277.279	6.15
277.493	3.3
277.707	5.35
277.921	5.39
278.135	7.62
278.349	2.59
278.563	-0.11
278.777	-2.09
278.991	-4.08
279.205	-1.72
279.419	-6.25
279.633	-6.4
279.847	-4.07
280.061	-0.68
280.275	0.97
280.489	1.64
280.703	-0.02
280.917	1.84
281.131	1.01
281.344	4.2
281.558	1.78
281.772	4.28
281.986	5.18
282.2	3.67
282.414	1.13
282.627	0.73
282.841	-2.3
283.055	-1.97
283.269	-3.49
283.482	-2.6
283.696	-4.16
283.91	-0.03
284.123	-1.81
284.337	-0.09
284.551	1.22
284.764	0.8
284.978	1.37
285.192	0.84
285.405	4.73
285.619	1.72
285.833	0.84
286.046	1.17
286.26	-0.15
286.473	1.46
286.687	-0.7
286.9	2.56
287.114	2.01
287.327	1.14
287.541	2.03
287.754	-2.21
287.968	-1.08
288.181	-1.02
288.395	-1.29
288.608	-1.58
288.822	-1.96
289.035	-0.06
289.248	-3.72
289.462	-4.06
289.675	-4.13
289.889	-2.81
290.102	-2.09
290.315	1.64
290.529	0.76
290.742	0.25
290.955	-0.58
291.169	1.42
291.382	0.66
291.595	-0.6
291.808	-0.93
292.022	-1.29
292.235	0.37
292.448	-0.17
292.661	-2.11
292.875	-0.93
293.088	-1.57
293.301	0.54
293.514	-0.69
293.727	0.86
293.94	2.92
294.153	5.93
294.367	7.22
294.58	4.89
294.793	6.33
295.006	6.04
295.219	4.94
295.432	6
295.645	5.86
295.858	4.57
296.071	3.93
296.284	3.78
296.497	2.93
296.71	4.36
296.923	5.2
297.136	6
297.349	8.44
297.562	8.31
297.775	7.33
297.988	7.56
298.201	9.21
298.414	9.4
298.626	9
298.839	9.91
299.052	6.47
299.265	7.32
299.478	7.08
299.691	2.38
299.903	4.32
300.116	4.5
300.329	5.95
300.542	5.96
300.755	5.28
300.967	5.99
301.18	6.41
301.393	8.53
301.605	7.27
301.818	6.04
302.031	9.58
302.243	11.61
302.456	9.76
302.669	8.25
302.881	8.75
303.094	7.13
303.307	9
303.519	9.61
303.732	7.93
303.944	9.73
304.157	10.06
304.37	7.1
304.582	4.06
304.795	7.23
305.007	5.68
305.22	7.9
305.432	11.69
305.645	9.7
305.857	5.34
306.069	7.34
306.282	6.79
306.494	9.43
306.707	9.58
306.919	13.24
307.132	13.45
307.344	16.36
307.556	13.71
307.769	9.61
307.981	7.86
308.193	11.87
308.406	11.3
308.618	10.69
308.83	9.35
309.043	9.13
309.255	7.09
309.467	5.93
309.679	4.87
309.892	3.64
310.104	6.12
310.316	7.04
310.528	6.38
310.74	4.71
310.953	4.6
311.165	6.02
311.377	6.32
311.589	7.16
311.801	7.01
312.013	4.57
312.225	5.04
312.437	1.72
312.649	1.27
312.862	-1.59
313.074	-2.69
313.286	-4.08
313.498	-7.04
313.71	-4.29
313.922	-2.1
314.134	0.3
314.346	2.93
314.558	3.17
314.77	6.94
314.982	6.93
315.193	8.23
315.405	8.72
315.617	9.88
315.829	9.41
316.041	9.08
316.253	5.82
316.465	4.89
316.677	4.61
316.888	3.16
317.1	3.72
317.312	4.56
317.524	2.64
317.736	4.08
317.947	3.9
318.159	4.23
318.371	2.71
318.583	5.61
318.794	5.72
319.006	6.25
319.218	6.32
319.43	5.21
319.641	7.22
319.853	9.97
320.064	12.51
320.276	12.29
320.488	10.26
320.699	12.64
320.911	10.73
321.123	9.83
321.334	10.59
321.546	15
321.757	15.58
321.969	13.1
322.18	12.48
322.392	11.97
322.603	11.16
322.815	11.49
323.026	10.12
323.238	7.84
323.449	8.31
323.661	7.04
323.872	3.18
324.083	2.4
324.295	0.08
324.506	1.65
324.718	-0.63
324.929	1.22
325.14	1.66
325.352	-0
325.563	3.1
325.774	5.32
325.986	6.25
326.197	8.55
326.408	9.27
326.62	10.9
326.831	10.5
327.042	12.03
327.253	12.06
327.464	15.57
327.676	19.19
327.887	15.27
328.098	12.38
328.309	11.15
328.52	10.93
328.732	6.59
328.943	11.04
329.154	9.92
329.365	9.07
329.576	9.07
329.787	4.57
329.998	3.32
330.209	6.16
330.42	8.38
330.631	8.65
330.842	8.92
331.053	13.35
331.264	9.99
331.475	11.2
331.686	12.04
331.897	12.28
332.108	13.37
332.319	12.6
332.53	15.58
332.741	13.63
332.952	11.59
333.163	13.37
333.374	12.3
333.585	13.86
333.795	13.3
334.006	11.57
334.217	8.61
334.428	10.14
334.639	10.1
334.849	7.96
335.06	7.11
335.271	11.34
335.482	8
335.692	7.41
335.903	5.45
336.114	4.83
336.325	5.87
336.535	7.45
336.746	7.6
336.957	8.27
337.167	7.04
337.378	9.51
337.589	7.87
337.799	11.12
338.01	10.24
338.22	9.84
338.431	9.35
338.642	6.62
338.852	7.31
339.063	6.4
339.273	4.56
339.484	7.87
339.694	7.27
339.905	8.05
340.115	7.09
340.326	6.72
340.536	6.01
340.746	5.05
340.957	8.03
341.167	7.95
341.378	5.41
341.588	6.2
341.799	5.11
342.009	5.63
342.219	3.22
342.43	1.87
342.64	3.34
342.85	6.29
343.061	7.29
343.271	7.47
343.481	7.83
343.691	10.97
343.902	10.56
344.112	9.22
344.322	8.07
344.532	7.71
344.743	6.25
344.953	6.81
345.163	5.4
345.373	6.53
345.583	5.81
345.793	4.87
346.004	2.29
346.214	1.14
346.424	0
346.634	1.04
346.844	2.31
347.054	3.28
347.264	2.89
347.474	1.92
347.684	0.97
347.894	0.07
348.104	0.43
348.314	1.04
348.524	0.79
348.734	1.61
348.944	-0.03
349.154	0.84
349.364	2.21
349.574	3.19
349.784	3.71
349.994	2.98
350.204	4.5
350.413	3.14
350.623	2.61
350.833	4.01
351.043	3.45
351.253	5.62
351.463	6.01
351.672	4.83
351.882	3.03
352.092	3.31
352.302	4.66
352.511	4.3
352.721	5.36
352.931	5.89
353.141	5.16
353.35	5.04
353.56	5.09
353.77	5.05
353.979	5.63
354.189	6.75
354.399	7.18
354.608	6.98
354.818	7.12
355.027	8.38
355.237	8.33
355.447	9.79
355.656	9.15
355.866	7.91
356.075	6.61
356.285	6.84
356.494	6.1
356.704	6.04
356.913	5.68
357.123	5.52
357.332	3.48
357.542	4.23
357.751	3.79
357.96	5.24
358.17	6.15
358.379	5.41
358.589	5.98
358.798	6.61
359.007	6.85
359.217	7.85
359.426	7.01
359.635	8.77
359.845	8.12
360.054	7.93
360.263	7.86
360.472	6.64
360.682	7.47
360.891	6.53
361.1	4.62
361.309	4.04
361.519	2.48
361.728	3.12
361.937	1.79
362.146	2.3
362.355	3.18
362.564	3.08
362.774	3.25
362.983	4.63
363.192	5.16
363.401	8.09
363.61	9.39
363.819	12.1
364.028	11.3
364.237	11.35
364.446	12.09
364.655	10.94
364.864	10.08
365.073	11.25
365.282	9.34
365.491	8.98
365.7	7.6
365.909	7.61
366.118	5.09
366.327	7.63
366.536	8.01
366.745	4.95
366.954	4.81
367.162	7.01
367.371	5.93
367.58	8
367.789	8.91
367.998	8.87
368.207	7.15
368.415	7.17
368.624	4.59
368.833	3.87
369.042	5.07
369.25	5.1
369.459	3.53
369.668	4.49
369.877	2.14
370.085	-0.08
370.294	0.42
370.503	1.43
370.711	1.79
370.92	2.28
371.129	3.96
371.337	3.68
371.546	4.31
371.754	5.23
371.963	3.66
372.171	5.39
372.38	6.93
372.589	7.28
372.797	6.64
373.006	6.64
373.214	5.4
373.423	5.71
373.631	6.47
373.84	4.48
374.048	4.65
374.256	6.14
374.465	4.55
374.673	4.1
374.882	3.29
375.09	1.59
375.298	1.72
375.507	2.28
375.715	0.49
375.923	2.33
376.132	2.65
376.34	2.02
376.548	1.99
376.757	3.91
376.965	4.84
377.173	5.58
377.381	7.11
377.59	8.35
377.798	8.81
378.006	8.73
378.214	7.83
378.423	8.59
378.631	9.01
378.839	8.26
379.047	7.6
379.255	7.5
379.463	7.24
379.671	8.63
379.879	8.58
380.088	8.25
380.296	8.38
380.504	7.63
380.712	8.33
380.92	6.84
381.128	6.22
381.336	4.64
381.544	3.69
381.752	2.51
381.96	1.04
382.168	0.13
382.376	0.92
382.584	0.51
382.791	0.96
382.999	-0.13
383.207	1.75
383.415	1.98
383.623	2.24
383.831	3.61
384.039	5.83
384.247	6.57
384.454	5.5
384.662	5.32
384.87	5.91
385.078	6.81
385.285	6.91
385.493	6.42
385.701	7.52
385.909	8.36
386.116	7.37
386.324	6.58
386.532	5.89
386.739	7.13
386.947	7.63
387.155	7.39
387.362	6.97
387.57	6.05
387.778	5.1
387.985	3.46
388.193	4.07
388.4	3.84
388.608	4.06
388.816	3.91
389.023	3.85
389.231	2.81
389.438	3.68
389.646	3.43
389.853	4.15
390.061	4.8
390.268	5.95
390.475	6.22
390.683	6
390.89	5.13
391.098	5.18
391.305	4.38
391.512	4.68
391.72	5.14
391.927	3.6
392.135	4.51
392.342	4.58
392.549	4.16
392.756	2.39
392.964	3.12
393.171	2.22
393.378	2.24
393.586	3.51
393.793	3.28
394	2.02
394.207	2.75
394.414	3.99
394.622	3.96
394.829	3.54
395.036	4.74
395.243	3.79
395.45	4.4
395.657	4.84
395.864	3.91
396.072	4.09
396.279	4.91
396.486	7.5
396.693	5.61
396.9	5.76
397.107	6.11
397.314	6.89
397.521	7.01
397.728	6.73
397.935	6.59
398.142	7.43
398.349	7.92
398.556	7.28
398.763	5.6
398.97	6.35
399.177	6.04
399.383	6.42
399.59	5.3
399.797	5.47
400.004	6.18
400.211	5.77
400.418	5.59
400.625	5.25
400.831	5.3
401.038	5.96
401.245	6.66
401.452	7.07
401.658	6.6
401.865	7.86
402.072	8.23
402.279	7.35
402.485	8.02
402.692	7.55
402.899	7.89
403.105	7.64
403.312	7.55
403.519	5.75
403.725	5.87
403.932	6.2
404.138	5.22
404.345	4.5
404.552	5.62
404.758	4.99
404.965	6.05
405.171	6.23
405.378	6.31
405.584	6.22
405.791	7.53
405.997	7.02
406.204	7.41
406.41	7.07
406.617	8.24
406.823	7.91
407.029	8.63
407.236	7.83
407.442	7.21
407.649	7.72
407.855	6.88
408.061	6.23
408.268	5.99
408.474	5.3
408.68	6.12
408.887	6.28
409.093	6.34
409.299	6.07
409.505	5.78
409.712	6.56
409.918	6.31
410.124	7.49
410.33	7.5
410.537	8.14
410.743	9.11
410.949	9.66
411.155	8.83
411.361	9.17
411.567	10.1
411.773	10.09
411.98	8.85
412.186	8.6
412.392	7.58
412.598	7.83
412.804	7.68
413.01	7.03
413.216	6.22
413.422	6.53
413.628	6.47
413.834	5.38
414.04	5.2
414.246	4.85
414.452	5.66
414.658	5.81
414.864	5.75
415.07	5.2
415.275	5.28
415.481	5.73
415.687	5.69
415.893	5.56
416.099	5.5
416.305	5.3
416.511	5.8
416.716	5.79
416.922	6
417.128	6.41
417.334	6.36
417.539	6.64
417.745	5.85
417.951	5.9
418.157	6.36
418.362	6.52
418.568	6.64
418.774	6.46
418.979	6.45
419.185	6.34
419.391	5.71
419.596	6.24
419.802	6.38
420.008	7.05
420.213	2.46
420.419	2.37
420.624	2.53
420.83	2.44
421.035	3.01
421.241	2.77
421.446	2.46
421.652	2.76
421.857	2.84
422.063	2.3
422.268	2.58
422.474	7.33
422.679	7.39
422.885	7.45
423.09	7.81
423.295	7.18
423.501	6.82
423.706	6.9
423.911	7.18
424.117	6.73
424.322	6.26
424.527	5.78
424.733	5.96
424.938	5.22
425.143	4.87
425.349	4.89
425.554	5.16
425.759	6.09
425.964	6.26
426.169	6.14
426.375	6.08
426.58	6.3
426.785	6.51
426.99	6.2
427.195	6.5
427.4	6.57
427.605	6.91
427.811	7.65
428.016	7.07
428.221	7.37
428.426	7.53
428.631	7.98
428.836	8.82
429.041	8.66
429.246	9.58
429.451	10.21
429.656	10.18
429.861	10.34
430.066	9.81
430.271	9.18
430.476	9.57
430.681	8.99
430.886	8.63
431.09	8.27
431.295	9.19
431.5	8.52
431.705	8.51
431.91	8.96
432.115	8.44
432.32	8.5
432.524	8.76
432.729	8.7
432.934	8.59
433.139	8.98
433.343	9.14
433.548	8.17
433.753	8.52
433.958	9
434.162	8.99
434.367	8.99
434.572	9.51
434.776	9.65
434.981	9.15
435.186	9.4
435.39	9.39
435.595	10.17
435.799	10.68
436.004	9.68
436.209	8.23
436.413	8.35
436.618	8.28
436.822	7.35
437.027	7.81
437.231	8.07
437.436	8.77
437.64	8.6
437.845	7.92
438.049	7.51
438.253	8.03
438.458	8.71
438.662	8.6
438.867	8.14
439.071	8.68
439.275	8.17
439.48	7.68
439.684	7.15
439.888	7.16
440.093	7.11
440.297	7.02
440.501	6.79
440.706	6.42
440.91	6.22
441.114	6.85
441.318	6.76
441.523	7.05
441.727	7.81
441.931	7.5
442.135	7.32
442.339	7.53
442.543	7.87
442.748	7.81
442.952	8.17
443.156	8.07
443.36	8.11
443.564	7.93
443.768	7.9
443.972	8.28
444.176	7.95
444.38	8.17
444.584	7.9
444.788	7.87
444.992	8.2
445.196	7.75
445.4	7.69
445.604	7.52
445.808	7.67
446.012	7.62
446.216	6.93
446.42	7.27
446.624	7.39
446.828	7.88
447.032	7.26
447.235	6.96
447.439	7.35
447.643	7.52
447.847	7.58
448.051	7.11
448.254	7.21
448.458	7.57
448.662	7.75
448.866	7.34
449.069	6.85
449.273	7.93
449.477	7.71
449.681	7.78
449.884	7.8
450.088	7.53
450.292	8.07
450.495	7.97
450.699	7.67
450.902	6.99
451.106	6.89
451.31	7.37
451.513	7.41
451.717	7.39
451.92	7.31
452.124	7.14
452.327	7.45
452.531	7.43
452.734	7.26
452.938	7.26
453.141	8.16
453.345	8.95
453.548	8.76
453.752	8.1
453.955	8.52
454.158	8.93
454.362	8.42
454.565	7.92
454.769	7.34
454.972	6.85
455.175	6.6
455.379	6.02
455.582	5.4
455.785	5.34
455.988	4.7
456.192	4.69
456.395	3.56
456.598	3.91
456.801	4.38
457.005	5.22
457.208	5.96
457.411	6.49
457.614	6.38
457.817	6.47
458.021	6.61
458.224	7.34
458.427	7.01
458.63	8.05
458.833	8.6
459.036	8.53
459.239	8.32
459.442	8.54
459.645	8.44
459.848	8.79
460.051	9.04
460.254	8.85
460.457	8.16
460.66	7.94
460.863	7.24
461.066	6.75
461.269	7.08
461.472	6.7
461.675	6.87
461.878	7.13
462.081	7.28
462.284	7.18
462.486	7.24
462.689	7.24
462.892	9.08
463.095	9.39
463.298	10.06
463.5	9.89
463.703	10.13
463.906	9.82
464.109	9.63
464.311	9.65
464.514	8.88
464.717	9.04
464.92	9.67
465.122	8.98
465.325	8.83
465.528	8.66
465.73	8.33
465.933	8.34
466.135	7.89
466.338	8.09
466.541	8.45
466.743	8.94
466.946	8.31
467.148	8.38
467.351	8.51
467.553	8.45
467.756	8.12
467.958	8.39
468.161	8.3
468.363	8.6
468.566	8.11
468.768	7.75
468.971	8.51
469.173	9.18
469.375	9.02
469.578	8.5
469.78	8.34
469.983	8.31
470.185	8.17
470.387	8.41
470.59	8.23
470.792	8.35
470.994	8.82
471.196	8.31
471.399	8.43
471.601	8.61
471.803	9.06
472.005	8.91
472.208	9.21
472.41	9.12
472.612	9.03
472.814	9.08
473.016	8.94
473.218	8.52
473.421	8.89
473.623	8.95
473.825	8.78
474.027	8.64
474.229	8.65
474.431	8.05
474.633	8.51
474.835	8.84
475.037	8.53
475.239	8.43
475.441	8.54
475.643	8.09
475.845	8.43
476.047	8.17
476.249	7.29
476.451	7.76
476.653	7.76
476.855	6.77
477.057	6.29
477.258	6.57
477.46	6.95
477.662	7.06
477.864	7.25
478.066	6.19
478.268	6.83
478.469	7.49
478.671	7.22
478.873	7.15
479.075	7.63
479.276	7.85
479.478	8.02
479.68	7.8
479.882	7.16
480.083	6.77
480.285	7.44
480.487	6.61
480.688	6.68
480.89	6.68
481.091	6.86
481.293	7
481.495	6.87
481.696	6.76
481.898	6.85
482.099	7.05
482.301	7.02
482.502	6.91
482.704	7.17
482.905	7.14
483.107	7.16
483.308	7.19
483.51	7.18
483.711	7.26
483.913	7.27
484.114	7.37
484.315	7.5
484.517	7.8
484.718	7.85
484.92	7.82
485.121	7.88
485.322	8.08
485.524	8.17
485.725	8.07
485.926	8.18
486.127	8.24
486.329	7.99
486.53	7.73
486.731	7.67
486.932	7.89
487.134	8.05
487.335	7.95
487.536	7.76
487.737	7.65
487.938	7.72
488.139	7.69
488.341	7.78
488.542	7.99
488.743	8.16
488.944	8.07
489.145	7.74
489.346	7.6
489.547	7.52
489.748	7.52
489.949	7.57
490.15	7.73
490.351	7.58
490.552	7.61
490.753	7.47
490.954	7.23
491.155	7.12
491.356	7.16
491.557	7.15
491.758	7.54
491.959	7.59
492.159	7.56
492.36	7.38
492.561	7.42
492.762	7.31
492.963	7.49
493.164	7.74
493.364	8.45
493.565	8.62
493.766	8.89
493.967	8.54
494.167	8.42
494.368	8.55
494.569	8.42
494.769	8.91
494.97	8.78
495.171	8.74
495.371	8.83
495.572	8.43
495.773	8.67
495.973	8.23
496.174	8.38
496.375	8.04
496.575	8.31
496.776	8.52
496.976	8.22
497.177	8.54
497.377	8.39
497.578	8.55
497.778	8.6
497.979	7.85
498.179	7.87
498.38	7.89
498.58	8.36
498.78	8.14
498.981	8.27
499.181	8.16
499.382	8.18
499.582	8.68
499.782	8.39
499.983	8.41
500.183	9.11
500.383	9.05
500.584	9.15
500.784	9.52
500.984	9.58
501.184	9.89
501.385	10.24
501.585	10.48
501.785	10.49
501.985	11.18
502.185	11.32
502.386	11.46
502.586	11.97
502.786	11.91
502.986	11.97
503.186	11.63
503.386	11.19
503.586	11.24
503.786	10.34
503.987	10.39
504.187	10.1
504.387	9.88
504.587	9.56
504.787	9.85
504.987	9.32
505.187	9.18
505.387	9.51
505.587	9.64
505.786	9.35
505.986	9.99
506.186	10.01
506.386	10.45
506.586	10.88
506.786	11.11
506.986	10.64
507.186	11.17
507.386	11.41
507.585	11.76
507.785	12.12
507.985	12.66
508.185	12.33
508.384	12.42
508.584	12.01
508.784	11.81
508.984	11.86
509.183	11.9
509.383	11.7
509.583	11.55
509.782	11.61
509.982	11.62
510.182	10.98
510.381	11.36
510.581	10.63
510.781	10.46
510.98	10.72
511.18	10.39
511.379	11.14
511.579	11.32
511.778	11.36
511.978	11
512.177	11.18
512.377	11.45
512.576	11.97
512.776	12.57
512.975	12.81
513.175	13.16
513.374	13.66
513.573	12.94
513.773	13.54
513.972	13.29
514.172	13.25
514.371	13.54
514.57	13.86
514.77	13.44
514.969	13.57
515.168	13.61
515.367	13.47
515.567	13.7
515.766	14.05
515.965	14.02
516.164	14.14
516.364	14.3
516.563	13.94
516.762	13.71
516.961	13.81
517.16	13.81
517.359	13.86
517.559	13.8
517.758	13.93
517.957	13.9
518.156	13.8
518.355	14.34
518.554	14.49
518.753	14.49
518.952	14.74
519.151	14.76
519.35	14.81
519.549	15.32
519.748	15.05
519.947	15.01
520.146	15.34
520.345	15.37
520.544	15.73
520.743	15.8
520.942	16.01
521.141	15.96
521.339	16.24
521.538	16.88
521.737	16.63
521.936	16.95
522.135	17.1
522.333	17.4
522.532	17.57
522.731	17.29
522.93	17.68
523.129	17.42
523.327	17.94
523.526	17.91
523.725	17.74
523.923	18.25
524.122	18.39
524.321	18.31
524.519	17.98
524.718	18.03
524.917	17.92
525.115	17.74
525.314	17.77
525.512	17.56
525.711	17.86
525.909	17.81
526.108	17.48
526.306	17.36
526.505	17.14
526.703	17.15
526.902	16.89
527.1	16.94
527.299	17.04
527.497	17.34
527.696	17.21
527.894	17.11
528.092	17.07
528.291	17.22
528.489	17.31
528.688	17.57
528.886	17.96
529.084	18.51
529.283	18.58
529.481	18.71
529.679	18.75
529.877	19.29
530.076	19.62
530.274	20.06
530.472	20.41
530.67	21.03
530.869	21.29
531.067	21.01
531.265	20.85
531.463	21.07
531.661	21.34
531.859	21.41
532.057	21.77
532.255	21.81
532.454	21.87
532.652	21.74
532.85	21.29
533.048	21.56
533.246	22.1
533.444	22.36
533.642	22.49
533.84	22.54
534.038	22.58
534.236	22.22
534.434	22.45
534.632	22.33
534.83	22.62
535.027	23.24
535.225	23.15
535.423	23.07
535.621	23.17
535.819	23.54
536.017	23.79
536.215	24.04
536.412	24.42
536.61	24.73
536.808	25.08
537.006	25.42
537.203	25.57
537.401	25.79
537.599	25.91
537.797	26.09
537.994	26.21
538.192	26.18
538.39	26.53
538.587	26.52
538.785	26.15
538.983	25.69
539.18	25.71
539.378	25.68
539.575	25.81
539.773	25.66
539.97	25.71
540.168	25.54
540.366	25.53
540.563	25.42
540.761	25.46
540.958	25.51
541.155	26.21
541.353	26.14
541.55	26.33
541.748	26.36
541.945	26.72
542.143	26.9
542.34	26.91
542.537	27.3
542.735	27.89
542.932	28.1
543.129	28.57
543.327	28.75
543.524	29.58
543.721	29.62
543.919	29.81
544.116	30.01
544.313	30.16
544.51	30.83
544.708	31.1
544.905	30.91
545.102	31.23
545.299	31.47
545.496	31.84
545.693	31.53
545.891	32.1
546.088	32.55
546.285	32.98
546.482	33.93
546.679	34.26
546.876	34.83
547.073	34.77
547.27	35.15
547.467	35.36
547.664	35.24
547.861	36.18
548.058	36.78
548.255	37.23
548.452	37.11
548.649	37.01
548.846	37.3
549.043	37.04
549.24	37.43
549.437	37.89
549.633	37.96
549.83	38.49
550.027	38.14
550.224	38.21
550.421	37.82
550.618	37.58
550.814	37.51
551.011	37.11
551.208	37.26
551.405	37.53
551.601	37.61
551.798	37.92
551.995	37.59
552.191	37.43
552.388	37.37
552.585	37.63
552.781	38.37
552.978	38.68
553.175	39.04
553.371	39.13
553.568	39.32
553.764	39.61
553.961	40.28
554.157	40.65
554.354	41.36
554.55	41.56
554.747	42.44
554.943	42.45
555.14	42.98
555.336	43.25
555.533	43.76
555.729	44.4
555.926	44.01
556.122	43.69
556.318	44.14
556.515	44.42
556.711	44.17
556.907	43.72
557.104	43.57
557.3	43.19
557.496	44
557.693	43.76
557.889	44.53
558.085	44.88
558.281	45.07
558.478	44.73
558.674	44.66
558.87	45.19
559.066	45.5
559.262	46.27
559.459	45.68
559.655	45.15
559.851	45.43
560.047	44.85
560.243	44.78
560.439	45.26
560.635	45.13
560.831	45.15
561.027	44.96
561.223	45.19
561.419	45.36
561.615	45.58
561.811	46.15
562.007	46.65
562.203	46.77
562.399	47.29
562.595	47.19
562.791	47
562.987	46.79
563.183	46.91
563.379	46.59
563.575	46.46
563.771	46.75
563.966	46.12
564.162	45.5
564.358	45.29
564.554	45.11
564.75	44.78
564.945	45.41
565.141	45.69
565.337	45.78
565.533	45.73
565.728	45.71
565.924	45.56
566.12	46.19
566.315	46.88
566.511	46.86
566.707	47.51
566.902	47.15
567.098	47.16
567.293	47.05
567.489	46.78
567.684	46.98
567.88	47.37
568.076	47.18
568.271	47.31
568.467	46.65
568.662	46.37
568.858	45.27
569.053	45.61
569.248	45.13
569.444	44.71
569.639	44.81
569.835	45.19
570.03	44.8
570.225	45.27
570.421	44.69
570.616	44.79
570.812	45.28
571.007	45.9
571.202	46.26
571.397	46.43
571.593	46.97
571.788	46.95
571.983	46.32
572.178	46.39
572.374	46.49
572.569	46.6
572.764	46.48
572.959	46.44
573.154	46.29
573.35	46.11
573.545	46.31
573.74	45.62
573.935	45.79
574.13	46.11
574.325	45.95
574.52	45.99
574.715	45.83
574.91	46.94
575.105	47.17
575.3	47.47
575.495	48.07
575.69	48.54
575.885	49.28
576.08	49.33
576.275	49.47
576.47	49.69
576.665	50
576.86	50.51
577.055	50.44
577.25	51.26
577.444	51.68
577.639	51.59
577.834	51.55
578.029	52.94
578.224	54.45
578.418	54.92
578.613	55.63
578.808	56.08
579.003	56.85
579.197	56.77
579.392	56.3
579.587	56.19
579.781	56.84
579.976	57.63
580.171	56.94
580.365	56.4
580.56	56.83
580.755	56.24
580.949	56.31
581.144	56.45
581.338	56.23
581.533	56.67
581.727	57.13
581.922	55.98
582.116	56.15
582.311	55.42
582.505	55.96
582.7	55.28
582.894	56.31
583.089	56.93
583.283	56.54
583.478	56.39
583.672	56.49
583.866	56.33
584.061	57.44
584.255	57.45
584.449	58.36
584.644	58.18
584.838	58.68
585.032	58.64
585.226	57.66
585.421	57.73
585.615	57.99
585.809	57.22
586.003	56.52
586.198	56.04
586.392	54.98
586.586	53.98
586.78	53.07
586.974	53.06
587.168	53.04
587.363	52.77
587.557	51.79
587.751	50.88
587.945	51.07
588.139	51.13
588.333	50.63
588.527	50.94
588.721	51.49
588.915	51.8
589.109	51.13
589.303	51.33
589.497	51.69
589.691	53.16
589.885	54.14
590.079	54.04
590.273	54.2
590.466	53.41
590.66	53.37
590.854	53.33
591.048	53.5
591.242	54.44
591.436	53.67
591.629	54.06
591.823	52.94
592.017	52.26
592.211	51.51
592.404	51.78
592.598	52.72
592.792	52.92
592.986	52.69
593.179	52.37
593.373	52.09
593.567	52.56
593.76	52.35
593.954	52.01
594.147	52.38
594.341	52.94
594.535	52.54
594.728	52.53
594.922	52.59
595.115	52.29
595.309	52.65
595.502	52.42
595.696	51.8
595.889	51.94
596.083	52.66
596.276	52.98
596.47	53
596.663	52.99
596.856	53.46
597.05	53.01
597.243	53.44
597.437	53.56
597.63	53.51
597.823	54.6
598.017	55.49
598.21	55.63
598.403	55.43
598.596	56.03
598.79	56.08
598.983	56.02
599.176	56.4
599.369	58.01
599.563	58.35
599.756	59.72
599.949	59.95
600.142	58.84
600.335	59.46
600.528	60.61
600.722	60.59
600.915	61.71
601.108	61.82
601.301	62.35
601.494	61.25
601.687	60.23
601.88	59.01
602.073	58.37
602.266	57.77
602.459	57.7
602.652	57.09
602.845	56.7
603.038	56.16
603.231	55.93
603.424	55.44
603.617	55.43
603.809	55.79
604.002	56.2
604.195	56.79
604.388	57.54
604.581	57.24
604.774	57.46
604.966	57.81
605.159	58.66
605.352	59.04
605.545	59.81
605.737	59.98
605.93	60.47
606.123	60.72
606.316	60.5
606.508	60.17
606.701	60.15
606.894	59.62
607.086	59.45
607.279	58.97
607.471	58.62
607.664	58.33
607.857	58.35
608.049	58.19
608.242	57.32
608.434	57.71
608.627	57.88
608.819	58.23
609.012	59.26
609.204	59.67
609.397	59.89
609.589	59.95
609.782	60.15
609.974	60.57
610.166	60.32
610.359	61.99
610.551	61.85
610.743	62.7
610.936	63.17
611.128	62.22
611.32	62.45
611.513	63.09
611.705	64.92
611.897	65.32
612.09	64.87
612.282	66.42
612.474	65.69
612.666	66.58
612.858	67.38
613.051	67.04
613.243	68.11
613.435	69.86
613.627	69.94
613.819	68.9
614.011	68.74
614.203	70.39
614.395	70.41
614.588	71.36
614.78	70.96
614.972	69.99
615.164	70.77
615.356	70.54
615.548	69.6
615.74	68.61
615.932	68.6
616.124	68.96
616.315	68.34
616.507	68.91
616.699	67.98
616.891	67.69
617.083	67.56
617.275	67.23
617.467	67.83
617.659	68.81
617.85	69.31
618.042	69.33
618.234	69.03
618.426	68.5
618.618	67.6
618.809	67.93
619.001	67.24
619.193	67.22
619.384	67.04
619.576	66.16
619.768	65.53
619.959	65.51
620.151	65.52
620.343	65.6
620.534	66.67
620.726	66.56
620.917	67.83
621.109	69.22
621.301	69.14
621.492	70.2
621.684	71.27
621.875	71.68
622.067	72.57
622.258	72.89
622.45	73.14
622.641	71.81
622.832	72.18
623.024	71.14
623.215	71.23
623.407	70.86
623.598	70.73
623.789	70.02
623.981	69.21
624.172	68.43
624.363	68.78
624.555	67.75
624.746	67.72
624.937	66.87
625.129	67.77
625.32	67.2
625.511	68.13
625.702	66.69
625.893	66.28
626.085	66.63
626.276	67.18
626.467	67.13
626.658	67.54
626.849	68.19
627.04	68.21
627.231	68.08
627.422	67.59
627.614	67.45
627.805	68.64
627.996	68.64
628.187	69.25
628.378	68.04
628.569	67.48
628.76	67.82
628.951	67.61
629.142	69.3
629.332	69.88
629.523	70.91
629.714	70.39
629.905	70.46
630.096	71.91
630.287	70.99
630.478	72.29
630.669	72.23
630.859	72.39
631.05	73.58
631.241	72.95
631.432	71.86
631.623	70.98
631.813	71.88
632.004	71.25
632.195	69.47
632.385	68.61
632.576	68.06
632.767	68.77
632.957	69.43
633.148	69.48
633.339	70.1
633.529	69.78
633.72	70.75
633.91	70.75
634.101	70.68
634.292	72.45
634.482	73.6
634.673	74.31
634.863	73.85
635.054	73.98
635.244	73.64
635.435	72.74
635.625	73.79
635.815	74.88
636.006	75.34
636.196	76.02
636.387	75.05
636.577	76.81
636.767	76.44
636.958	76.76
637.148	76.01
637.338	75.98
637.529	77.66
637.719	77.77
637.909	77.32
638.099	77.14
638.29	76.83
638.48	77.87
638.67	77.22
638.86	78.26
639.05	78.96
639.241	79.69
639.431	79.77
639.621	78.75
639.811	78.89
640.001	79.36
640.191	78.61
640.381	79.87
640.571	79.29
640.761	79
640.951	80.27
641.141	80.01
641.331	80.49
641.521	80.84
641.711	80.42
641.901	80.04
642.091	80.42
642.281	81.35
642.471	81.11
642.661	82.49
642.851	82.39
643.041	81.25
643.231	82.07
643.42	82.21
643.61	81.11
643.8	82.37
643.99	82.85
644.18	82.07
644.369	82.09
644.559	81.55
644.749	80.87
644.939	81
645.128	79.93
645.318	79.38
645.508	78.33
645.697	79.14
645.887	77.4
646.076	77.31
646.266	76.83
646.456	75.07
646.645	75.54
646.835	75.81
647.024	74.43
647.214	74.29
647.403	74.57
647.593	74.16
647.782	74.63
647.972	76.15
648.161	76.8
648.351	77.22
648.54	77.38
648.73	76.2
648.919	75.55
649.108	76.95
649.298	76.75
649.487	75.88
649.677	77.2
649.866	76.78
650.055	75.87
650.244	75.01
650.434	74.41
650.623	75.4
650.812	75.97
651.002	76.44
651.191	76.2
651.38	78.28
651.569	78.41
651.758	78.63
651.947	80.31
652.137	80.8
652.326	81.05
652.515	82.33
652.704	81.92
652.893	82.08
653.082	81.17
653.271	81.11
653.46	79.06
653.649	79.91
653.838	80.44
654.027	78.73
654.216	78.65
654.405	78.93
654.594	78.43
654.783	80.32
654.972	80.33
655.161	81.41
655.35	79.51
655.539	80.93
655.728	80.62
655.916	79.76
656.105	79.23
656.294	77.34
656.483	76.86
656.672	75.02
656.86	72.74
657.049	72.4
657.238	71.56
657.427	73.08
657.615	71.04
657.804	69.81
657.993	68.3
658.181	68.39
658.37	69.97
658.559	70.36
658.747	71.39
658.936	72.21
659.125	72.1
659.313	72.08
659.502	72.57
659.69	73.41
659.879	75.22
660.067	76.74
660.256	78.39
660.444	78.61
660.633	78.43
660.821	80.04
661.01	81.61
661.198	84.31
661.387	85.2
661.575	84.94
661.763	86.89
661.952	87.64
662.14	88.91
662.328	88.44
662.517	89.21
662.705	90.79
662.893	90.41
663.082	90.21
663.27	88.73
663.458	88.78
663.646	90.38
663.834	90.16
664.023	88.66
664.211	87.36
664.399	88.16
664.587	87.12
664.775	85.49
664.963	86.45
665.152	86.01
665.34	86.64
665.528	87.6
665.716	87.25
665.904	87.13
666.092	86.51
666.28	87.93
666.468	87.69
666.656	87.89
666.844	88.59
667.032	87.48
667.22	87.79
667.408	87.22
667.596	85.72
667.784	85.75
667.971	85.08
668.159	85.91
668.347	85.27
668.535	85.21
668.723	84.27
668.911	84.91
669.098	85.99
669.286	86.79
669.474	86.75
669.662	88.86
669.849	88.03
670.037	88.98
670.225	90.01
670.413	91.16
670.6	90.14
670.788	92.56
670.976	92.58
671.163	91.56
671.351	92.07
671.538	91.69
671.726	92.08
671.913	92.79
672.101	93.43
672.289	92.82
672.476	93.3
672.664	94.19
672.851	94.36
673.039	94.3
673.226	96.77
673.413	94.32
673.601	95.94
673.788	95.4
673.976	94.39
674.163	93.5
674.35	93.34
674.538	91.55
674.725	92.02
674.912	90.58
675.1	90.77
675.287	88.2
675.474	89.6
675.662	89.63
675.849	89.98
676.036	90.52
676.223	91.51
676.411	90.93
676.598	92
676.785	91.15
676.972	91.22
677.159	89.99
677.346	88.41
677.533	87.38
677.721	85.91
677.908	82.4
678.095	81.37
678.282	81.21
678.469	80.1
678.656	80.93
678.843	81.51
679.03	80.44
679.217	80.25
679.404	80.36
679.591	80.08
679.778	80.28
679.964	81.74
680.151	82.9
680.338	81.82
680.525	83.69
680.712	82.5
680.899	82.12
681.086	82.26
681.272	83.09
681.459	84.55
681.646	83.88
681.833	84.31
682.02	84.68
682.206	84.14
682.393	83.54
682.58	82.05
682.766	81.17
682.953	80.83
683.14	81.55
683.326	82.75
683.513	82.18
683.7	83.87
683.886	83.84
684.073	82.56
684.259	82.68
684.446	84.55
684.632	86.15
684.819	85.94
685.005	84.74
685.192	84.27
685.378	81.91
685.565	81.17
685.751	79.6
685.938	80.08
686.124	80.6
686.31	80.24
686.497	79.23
686.683	78.31
686.87	80.16
687.056	81.63
687.242	82.09
687.429	82.1
687.615	82.97
687.801	84.28
687.987	84.36
688.174	84.21
688.36	83.77
688.546	85.4
688.732	86.67
688.918	84.58
689.105	83.77
689.291	83.66
689.477	83.94
689.663	82.78
689.849	81.1
690.035	80.01
690.221	82.26
690.407	83.09
690.593	81.61
690.779	81.15
690.965	81.74
691.151	83.18
691.337	83.58
691.523	82.23
691.709	82.14
691.895	84.92
692.081	85.91
692.267	83.99
692.453	82.91
692.639	82.44
692.825	81.68
693.011	82.49
693.196	81.79
693.382	82.1
693.568	83.05
693.754	84.21
693.94	82.22
694.125	83.65
694.311	82.65
694.497	84.55
694.682	84.6
694.868	85
695.054	84.5
695.239	84.68
695.425	83.7
695.611	83.3
695.796	82.84
695.982	82.79
696.168	80.31
696.353	80.03
696.539	77.96
696.724	77.5
696.91	74.94
697.095	73.32
697.281	70.83
697.466	70.75
697.652	70.64
697.837	69.86
698.023	69.76
698.208	69.37
698.393	70.15
698.579	70.54
698.764	70.2
698.949	72.37
699.135	73.01
699.32	76.11
699.505	77.34
699.691	78.86
699.876	81.29
700.061	82.33
700.246	84.23
700.432	87.11
700.617	89.19
700.802	87.61
700.987	89.42
701.172	93.38
701.358	94.01
701.543	94.95
701.728	96.69
701.913	97.58
702.098	97.81
702.283	98.26
702.468	97.1
702.653	95.98
702.838	101.8
703.023	101.85
703.208	100.65
703.393	99.77
703.578	96.74
703.763	95.76
703.948	92.62
704.133	91.86
704.318	92.39
704.503	92.46
704.688	92.84
704.873	91.11
705.057	91.11
705.242	91.95
705.427	92.46
705.612	95.32
705.797	95.17
705.981	98.15
706.166	99.86
706.351	100.72
706.536	100.71
706.72	100.96
706.905	100.7
707.09	102.13
707.274	101.77
707.459	104.59
707.644	104.19
707.828	105.73
708.013	106.45
708.197	104.18
708.382	103.29
708.567	103.71
708.751	104.93
708.936	105.43
709.12	105.7
709.305	107.14
709.489	106.06
709.673	106.57
709.858	105.37
710.042	102.11
710.227	104.48
710.411	106.77
710.596	107.02
710.78	106.57
710.964	107.7
711.149	104.44
711.333	105.32
711.517	106.09
711.702	107.27
711.886	104.17
712.07	106.67
712.254	105.07
712.438	103.28
712.623	104.96
712.807	103.39
712.991	102
713.175	100.86
713.359	97.28
713.544	94.86
713.728	92.01
713.912	93.03
714.096	92.86
714.28	92.03
714.464	88.99
714.648	85.28
714.832	85.99
715.016	84.39
715.2	84.73
715.384	85.21
715.568	83.8
715.752	83.86
715.936	82.28
716.12	80.59
716.304	78.57
716.488	80.24
716.671	78.58
716.855	75.54
717.039	74.25
717.223	76.08
717.407	73.22
717.59	72.82
717.774	72.49
717.958	75.12
718.142	73.92
718.325	75.66
718.509	76.07
718.693	80.81
718.877	85.55
719.06	90.68
719.244	92.74
719.428	96.17
719.611	100.4
719.795	101.63
719.978	101.33
720.162	105.79
720.345	108.4
720.529	108.7
720.713	107.95
720.896	107.61
721.08	107
721.263	101.94
721.446	100.83
721.63	97.29
721.813	97.09
721.997	99.11
722.18	96.54
722.364	94.84
722.547	92.91
722.73	91.05
722.914	86.68
723.097	84.18
723.28	85.46
723.464	83.04
723.647	85.31
723.83	85.24
724.013	86.74
724.197	87.54
724.38	86.08
724.563	86.94
724.746	89.6
724.929	89.07
725.112	88.07
725.296	88.07
725.479	90.47
725.662	86.63
725.845	85.82
726.028	82.4
726.211	80.02
726.394	78.67
726.577	80.39
726.76	78.43
726.943	81.29
727.126	83.79
727.309	84.55
727.492	84.75
727.675	88.59
727.858	88.34
728.041	89.6
728.224	93.3
728.407	98.08
728.589	97.58
728.772	95.68
728.955	96.19
729.138	95.25
729.321	94.47
729.503	94.94
729.686	95.01
729.869	97.53
730.052	99.18
730.234	98.36
730.417	96.26
730.6	95.87
730.782	96.1
730.965	96.7
731.148	95.85
731.33	97.88
731.513	99.07
731.695	100.08
731.878	98.99
732.061	98.58
732.243	98.59
732.426	100.7
732.608	101.91
732.791	107.05
732.973	107.79
733.156	109.72
733.338	108.63
733.52	105.52
733.703	105.94
733.885	107.97
734.068	109.64
734.25	110.9
734.432	111.6
734.615	110.66
734.797	110.36
734.979	112.78
735.162	113.79
735.344	117.96
735.526	126.09
735.708	123.77
735.891	126.01
736.073	122.53
736.255	120.18
736.437	121.01
736.619	121.65
736.802	118.62
736.984	116.85
737.166	114.82
737.348	112.65
737.53	108.83
737.712	113.62
737.894	111.36
738.076	115.8
738.258	120.32
738.44	120.82
738.622	125.15
738.804	132.31
738.986	134.73
739.168	137.04
739.35	136.15
739.532	134.47
739.714	133.53
739.896	134.81
740.078	132.87
740.259	131.38
740.441	133.63
740.623	130.35
740.805	128.81
740.987	127.44
741.168	128.39
741.35	133.7
741.532	135.5
741.714	136.2
741.895	139.64
742.077	139.64
742.259	143.25
742.44	142.11
742.622	143.53
742.804	140.39
742.985	144.52
743.167	145.99
743.348	144.26
743.53	149.49
743.711	147.77
743.893	146.02
744.075	146.26
744.256	144.35
744.438	145.94
744.619	147.15
744.8	150.47
744.982	148.47
745.163	152.85
745.345	154.29
745.526	155.78
745.707	155.71
745.889	157.62
746.07	160.04
746.252	161.73
746.433	158.65
746.614	158.01
746.795	155.15
746.977	151.88
747.158	146.41
747.339	140.89
747.52	141.12
747.702	140.24
747.883	137.97
748.064	136.02
748.245	136.2
748.426	136.64
748.607	136.75
748.788	138
748.97	149.58
749.151	147.86
749.332	150.59
749.513	155.71
749.694	155.86
749.875	157.58
750.056	156.55
750.237	158.38
750.418	161.86
750.599	159.65
750.78	163.3
750.96	154.75
751.141	163.85
751.322	167.26
751.503	160.9
751.684	165.13
751.865	168.03
752.046	171.96
752.226	172.46
752.407	172.6
752.588	170.69
752.769	159.91
752.949	159.5
753.13	158.64
753.311	162.41
753.492	165.12
753.672	157.03
753.853	154.67
754.034	156.85
754.214	153.04
754.395	150.51
754.575	148.86
754.756	150.62
754.937	145.59
755.117	146.56
755.298	143.92
755.478	135.81
755.659	143.45
755.839	139.39
756.02	137.45
756.2	138.64
756.381	136.14
756.561	139.52
756.741	143.02
756.922	139.93
757.102	131.17
757.283	130.18
757.463	133.13
757.643	123.4
757.823	117.72
758.004	110.49
758.184	103.56
758.364	100.38
758.545	97.55
758.725	91.81
758.905	93.91
759.085	90.46
759.265	83.79
759.446	84.42
759.626	89.01
759.806	93.97
759.986	95.05
760.166	95.46
760.346	92.85
760.526	89.79
760.706	85.05
760.886	81.96
761.066	80.59
761.246	78.1
761.426	73.69
761.606	69.55
761.786	66.77
761.966	70.03
762.146	70.6
762.326	71.03
762.506	71.15
762.686	71.36
762.866	72.02
763.046	74.36
763.225	76.72
763.405	80.4
763.585	84.13
763.765	87.86
763.945	89.65
764.124	94.4
764.304	100.59
764.484	106.68
764.664	114.37
764.843	123.21
765.023	128.63
765.203	133.23
765.382	134.36
765.562	138.09
765.741	147.42
765.921	152.52
766.101	158.88
766.28	154.98
766.46	161.91
766.639	163.46
766.819	164.18
766.998	166.63
767.178	170.39
767.357	170.49
767.537	176.94
767.716	171.06
767.896	171.62
768.075	170.35
768.254	174.52
768.434	169.87
768.613	172.28
768.792	171.78
768.972	176.07
769.151	168.31
769.33	173.75
769.51	172.83
769.689	182.05
769.868	184.62
770.047	184.52
770.226	187.29
770.406	188.2
770.585	184.63
770.764	182.14
770.943	186.98
771.122	202.79
771.301	192.67
771.48	194.57
771.66	195.46
771.839	203.13
772.018	204.1
772.197	207.64
772.376	217.25
772.555	227.38
772.734	232.19
772.913	232.29
773.092	230.85
773.271	244.6
773.449	252.59
773.628	233.21
773.807	235.7
773.986	250.26
774.165	238.97
774.344	233.65
774.523	227.28
774.701	222.01
774.88	208.31
775.059	203.25
775.238	199.05
775.417	201.47
775.595	205.8
775.774	191.16
775.953	182.71
776.131	178.34
776.31	173.9
776.489	170.99
776.667	175.54
776.846	179.58
777.025	169.74
777.203	175.88
777.382	171.51
777.56	173.78
777.739	183.15
777.917	183.15
778.096	191.44
778.274	203.97
778.453	205.37
778.631	223.75
778.81	225.42
778.988	236.18
779.166	227.82
779.345	230.7
779.523	227.87
779.702	223.5
779.88	228.3
780.058	237.77
780.237	226.29
780.415	229.79
780.593	204.3
780.771	217.52
780.95	217.47
781.128	208.38
781.306	200.98
781.484	199.81
781.662	206.93
781.841	201.89
782.019	196.18
782.197	208.22
782.375	210.3
782.553	219.83
782.731	215.09
782.909	223.69
783.087	235.6
783.265	277.49
783.443	272.04
783.621	253.52
783.799	253.84
783.977	249.2
784.155	233.65
784.333	233.6
784.511	227.28
784.689	224.52
784.867	211.75
785.045	222.1
785.223	184.89
785.4	176.09
785.578	175.76
785.756	169.08
785.934	164.21
786.112	152.72
786.289	140.53
786.467	132.94
786.645	125.36
786.823	129.75
787	127.18
787.178	135.09
787.356	137.5
787.533	132.58
787.711	137.97
787.889	148.95
788.066	157.59
788.244	162.58
788.421	176.26
788.599	171.97
788.776	160.46
788.954	157.72
789.131	146.05
789.309	149.02
789.486	141.21
789.664	141.08
789.841	129.51
790.019	134.1
790.196	139.01
790.373	135.46
790.551	145.57
790.728	156.28
790.906	159.98
791.083	163.97
791.26	161.82
791.437	174.12
791.615	159.81
791.792	174.95
791.969	170.51
792.146	166.68
792.324	168.18
792.501	163.54
792.678	159.56
792.855	155.08
793.032	159.53
793.209	168.18
793.387	165.81
793.564	163.87
793.741	161.67
793.918	153.25
794.095	153.06
794.272	152.56
794.449	148.33
794.626	142.57
794.803	136.96
794.98	136.18
795.157	133.13
795.334	136.44
795.511	145.68
795.688	134.37
795.864	131.45
796.041	134.38
796.218	138.01
796.395	141.05
796.572	143.08
796.749	152.12
796.925	150.8
797.102	158.95
797.279	170.17
797.456	169.99
797.632	182.71
797.809	206.09
797.986	202.95
798.162	193.13
798.339	184.83
798.516	181.31
798.692	181.04
798.869	171.36
799.046	165.3
799.222	162.15
799.399	149.82
799.575	153.37
799.752	137.04
799.928	139.1
800.105	134.83
800.281	145
800.458	153.24
800.634	150.84
800.811	147.37
800.987	148.21
801.163	135.63
801.34	150.3
801.516	145.9
801.692	149.01
801.869	147.67
802.045	155.09
802.221	151.17
802.398	146.23
802.574	149.15
802.75	160.11
802.926	161.06
803.103	165.75
803.279	157.69
803.455	167.11
803.631	161.67
803.807	156.86
803.983	160.25
804.16	155.62
804.336	156.33
804.512	142.45
804.688	146.26
804.864	154.14
805.04	162.91
805.216	154.6
805.392	142.33
805.568	142.23
805.744	152.02
805.92	144.17
806.096	147.69
806.272	159.6
806.448	168.54
806.623	175.74
806.799	162.59
806.975	153.12
807.151	183.23
807.327	190.41
807.503	228.44
807.678	227.95
807.854	253.21
808.03	225.58
808.206	192.61
808.381	197.94
808.557	213.18
808.733	224.36
808.908	237.79
809.084	199.37
809.26	201.34
809.435	176.96
809.611	169.42
809.787	154.6
809.962	151.84
810.138	166.18
810.313	170.33
810.489	145.77
810.664	127.96
810.84	136.46
811.015	122.13
811.191	115.08
811.366	116.52
811.542	118.43
811.717	130.51
811.892	136.89
812.068	131.85
812.243	128.13
812.419	128.34
812.594	144.5
812.769	135.1
812.944	139.83
813.12	162.46
813.295	157.39
813.47	159.43
813.645	151.35
813.821	155.59
813.996	134.76
814.171	120.07
814.346	128.11
814.521	119.44
814.697	111.52
814.872	126.85
815.047	114.59
815.222	135.15
815.397	133.83
815.572	129.78
815.747	122.56
815.922	131.68
816.097	142.79
816.272	126.6
816.447	130.38
816.622	124.41
816.797	120.3
816.972	116
817.147	104.38
817.322	95.86
817.496	104.72
817.671	108.94
817.846	100.87
818.021	92.52
818.196	92.64
818.371	79.27
818.545	74.66
818.72	71.54
818.895	68.37
819.069	71.38
819.244	72.61
819.419	66.14
819.594	66.02
819.768	58.71
819.943	59.26
820.117	52.57
820.292	54.5
820.467	53.55
820.641	48.85
820.816	47.34
820.99	44.43
821.165	43.33
821.339	42.61
821.514	40.85
821.688	42.35
821.863	41.65
822.037	44.26
822.212	41.85
822.386	40.87
822.56	42.69
822.735	47.71
822.909	49.61
823.084	51.06
823.258	52.2
823.432	53.01
823.606	58.38
823.781	59.73
823.955	61.92
824.129	68.01
824.303	69.46
824.478	74.65
824.652	64.1
824.826	60.92
825	58.36
825.174	55.93
825.348	56.05
825.523	51.63
825.697	53.13
825.871	54.77
826.045	52.61
826.219	54.19
826.393	51.8
826.567	53
826.741	56.28
826.915	56.9
827.089	61.26
827.263	66.33
827.437	68.13
827.611	68.48
827.784	64.92
827.958	70.14
828.132	73.68
828.306	78.5
828.48	82.03
828.654	88.26
828.827	90.79
829.001	84.75
829.175	82
829.349	83.48
829.522	93.64
829.696	87.9
829.87	97.08
830.044	107.58
830.217	110.83
830.391	121.51
830.565	113.53
830.738	124.03
830.912	115.47
831.085	104.25
831.259	112.93
831.432	99.88
831.606	103.94
831.779	95.04
831.953	87.66
832.126	75.34
832.3	73.1
832.473	74.21
832.647	74.25
832.82	74.92
832.994	71.82
833.167	71
833.34	76.28
833.514	76.72
833.687	76.7
833.86	74.32
834.034	86.93
834.207	85.49
834.38	87.26
834.553	85.66
834.727	86.56
834.9	94.59
835.073	95.31
835.246	95.22
835.419	96.22
835.593	112.74
835.766	120.25
835.939	108.1
836.112	117.95
836.285	128.91
836.458	127.2
836.631	141.36
836.804	137.8
836.977	153.05
837.15	180.87
837.323	158.06
837.496	122.08
837.669	121.21
837.842	126.21
838.015	124.24
838.188	128.06
838.361	126.31
838.533	125.78
838.706	119.09
838.879	112.86
839.052	97.99
839.225	102.36
839.398	110.82
839.57	117.9
839.743	132.68
839.916	127.92
840.088	140.91
840.261	147.2
840.434	161.01
840.607	166.21
840.779	166.94
840.952	168.18
841.124	161.4
841.297	152.93
841.47	176.53
841.642	161.64
841.815	158.51
841.987	150.53
842.16	147.77
842.332	147.59
842.505	157.84
842.677	156.47
842.85	178.47
843.022	199.52
843.194	181.66
843.367	162.59
843.539	162.79
843.712	162.56
843.884	158.17
844.056	216.08
844.229	212.22
844.401	220.61
844.573	221.98
844.745	194.2
844.918	196.64
845.09	247.76
845.262	255.06
845.434	268.53
845.606	264.75
845.779	355.05
845.951	233.03
846.123	187.57
846.295	185.98
846.467	201.09
846.639	194.15
846.811	212.48
846.983	210.2
847.155	237.02
847.327	281.31
847.499	344.2
847.671	324.02
847.843	778.87
848.015	3370.97
848.187	-2364.44
848.359	2992.11
848.531	-2001.85
848.703	33500
848.875	-1055.32
849.047	1428.72
849.218	547.81
849.39	484.96
849.562	412.24
849.734	349.84
849.905	634.52
850.077	688.66
850.249	587.89
850.421	2223.53
850.592	744.32
850.764	858.16
850.936	3752
851.107	14650
851.279	817.32
851.451	367.1
851.622	414.44
851.794	238.8
851.965	216.32
852.137	206.8
852.308	189.57
852.48	244.96
852.651	232.67
852.823	278.41
852.994	237.8
853.166	251.06
853.337	269.26
853.509	225.52
853.68	254.32
853.851	218.51
854.023	260.59
854.194	246.1
854.365	249.49
854.537	206.29
854.708	165.82
854.879	228.36
855.05	194.03
855.222	201.13
855.393	282.31
855.564	225.59
855.735	262.16
855.906	278.19
856.078	229.83
856.249	236.3
856.42	188.4
856.591	216.3
856.762	193.28
856.933	232.06
857.104	207.14
857.275	220.8
857.446	234.81
857.617	147.83
857.788	190.07
857.959	181.4
858.13	159.56
858.301	194.54
858.472	155.32
858.643	123.13
858.814	144.41
858.985	189.49
859.155	210.14
859.326	241.54
859.497	789.08
859.668	246.59
859.839	282.5
860.009	313.5
860.18	341.73
860.351	374.83
860.522	482.55
860.692	506.82
860.863	316.96
861.034	249.24
861.204	205.76
861.375	155.21
861.546	216.32
861.716	251.16
861.887	222.2
862.057	257.93
862.228	209.28
862.398	258.29
862.569	239.66
862.739	201.11
862.91	186.72
863.08	292.08
863.251	471.15
863.421	492.17
863.592	426.47
863.762	575
863.932	951.65
864.103	-815.12
864.273	-1996.43
864.443	-512.5
864.614	-161.99
864.784	-107.32
864.954	-1366.67
865.125	5514.29
865.295	-479.1
865.465	-619.3
865.635	-6025
865.805	659.49
865.976	-8833.33
866.146	-1247.73
866.316	-1820
866.486	1447.62
866.656	-409.21
866.826	-182.51
866.996	-1148.08
867.166	575.52
867.336	1019.48
867.506	991.43
867.676	323.68
867.846	289.73
868.016	305.47
868.186	294.29
868.356	213.4
868.526	153.72
868.696	211
868.866	268.58
869.036	450.65
869.206	193.42
869.376	236.2
869.545	3168.42
869.715	1263.16
869.885	232.37
870.055	146.61
870.224	148.84
870.394	-247.62
870.564	13.43
870.734	-98
870.903	67.38
871.073	126.29
871.243	99.43
871.412	94.66
871.582	93.94
871.751	96.32
871.921	89.46
872.091	120.57
872.26	86.82
872.43	95.25
872.599	145.26
872.769	110.63
872.938	76.89
873.108	78.26
873.277	80.24
873.446	91.26
873.616	107.21
873.785	95.66
873.955	98.94
874.124	125.22
874.293	118.95
874.463	109.74
874.632	132.86
874.801	190.95
874.971	267.05
875.14	271.65
875.309	322.06
875.478	492.75
875.647	598.41
875.817	373.42
875.986	284.67
876.155	215.98
876.324	201.73
876.493	179.11
876.662	145.12
876.831	107.73
877	113.34
877.17	125.7
877.339	118.42
877.508	112.38
877.677	108.13
877.846	100
878.015	117.77
878.184	90.17
878.352	126.45
878.521	144.5
878.69	152.46
878.859	121.75
879.028	86.71
879.197	79.28
879.366	86.42
879.534	92.47
879.703	85.09
879.872	72.91
880.041	80.62
880.21	85.35
880.378	78.46
880.547	77.41
880.716	65.13
880.884	59.93
881.053	60.81
881.222	50.22
881.39	45.73
881.559	54.7
881.727	58.05
881.896	50.88
882.065	42.29
882.233	47.88
882.402	48.43
882.57	52.1
882.739	59.79
882.907	58.64
883.076	67.57
883.244	75.06
883.412	65.58
883.581	70.12
883.749	74.74
883.918	75.64
884.086	71.42
884.254	71.22
884.423	72.39
884.591	81.97
884.759	103.94
884.927	118.8
885.096	96.01
885.264	99.25
885.432	111.3
885.6	108.42
885.769	161.8
885.937	147.29
886.105	167.37
886.273	230.28
886.441	174.51
886.609	309.09
886.777	180.41
886.945	-117.05
887.113	-106.43
887.281	-20100
887.449	-330.86
887.617	0
887.785	-230.4
887.953	-234.06
888.121	-329.65
888.289	-233.84
888.457	-871.23
888.625	-23100
888.793	3610
888.961	7850
889.129	885.71
889.296	180.46
889.464	518.75
889.632	125
889.8	107.84
889.967	-7.78
890.135	29.09
