Data from JASIL_3175_Reflection_1.txt Node
Date: Thu Nov 12 23:06:05 EST 2015
User: Geneva
Spectrometer: USB4E03002
Autoset integration time: false
Trigger mode: 4
Integration Time (sec): 1.000000E-1
Scans to average: 10
Electric dark correction enabled: true
Nonlinearity correction enabled: false
Boxcar width: 5
Stray light correction enabled: false
XAxis mode: Wavelengths
Stop averaging: false
Number of Pixels in Spectrum: 3648
>>>>>Begin Spectral Data<<<<<
177.575	71.49
177.794	82.96
178.014	70.98
178.233	-44.33
178.452	37.26
178.672	86.62
178.891	94.89
179.11	55.21
179.33	399.3
179.549	169.7
179.768	-862.23
179.987	-213.84
180.207	-167.47
180.426	-525.49
180.645	666.95
180.864	575.33
181.084	408.89
181.303	2061.48
181.522	522.55
181.741	247.13
181.96	495.6
182.179	430.33
182.398	1215.46
182.618	1100.84
182.837	-345.2
183.056	-252.5
183.275	-103.94
183.494	-113.69
183.713	-108.02
183.932	-50.41
184.151	-15.73
184.37	0.69
184.589	-35.34
184.808	-37.24
185.027	-18.6
185.246	-54.3
185.465	-56.78
185.684	-43.63
185.903	-19.29
186.122	-57.18
186.341	-98.41
186.56	-132.39
186.779	-1182.62
186.998	-519.11
187.216	-186.46
187.435	-468.54
187.654	-1357.21
187.873	-1008.54
188.092	831.91
188.311	1914.96
188.53	4848.1
188.748	-7339.13
188.967	-317.7
189.186	-104.04
189.405	-147.74
189.623	-164.99
189.842	-144.92
190.061	-55.14
190.28	-106.93
190.498	-61.08
190.717	-56.14
190.936	-141.65
191.154	-58.19
191.373	-252.35
191.592	-141.87
191.81	-143.96
192.029	-923.78
192.248	-248.62
192.466	-202.64
192.685	-213.91
192.904	-131.34
193.122	-288.35
193.341	-199.26
193.559	-457.98
193.778	-179.89
193.996	-282.2
194.215	-94.09
194.433	-100.92
194.652	-211.88
194.87	-188.07
195.089	-257.5
195.307	-442.43
195.526	-828.19
195.744	4867.42
195.963	609.11
196.181	254.14
196.399	242.39
196.618	213.03
196.836	201.93
197.055	340.11
197.273	336.91
197.491	371.36
197.71	274.08
197.928	251.32
198.146	321.08
198.365	712.52
198.583	774.55
198.801	715.94
199.019	-257.32
199.238	-64.3
199.456	-362.19
199.674	-219.79
199.892	-534.56
200.111	-401.77
200.329	-360.92
200.547	-301.17
200.765	-605.34
200.983	-273.57
201.202	-200.74
201.42	-274.5
201.638	-169.14
201.856	-176.43
202.074	-237.29
202.292	-78.86
202.51	-103.08
202.728	-133.58
202.946	-137.95
203.165	-129.83
203.383	-269.27
203.601	-175.06
203.819	-150.9
204.037	-172.18
204.255	-104.51
204.473	-121.49
204.691	-134.34
204.909	-72.02
205.127	-53.22
205.345	-58.58
205.562	-71.77
205.78	-40.19
205.998	-45.33
206.216	-64.57
206.434	-188.8
206.652	-334.03
206.87	-191.77
207.088	-7111.72
207.306	-1059.53
207.523	1107.27
207.741	862.2
207.959	-2949.32
208.177	-637.31
208.395	-818.43
208.612	-367.02
208.83	-123.16
209.048	-138.58
209.266	-216.79
209.483	-83.02
209.701	-117.74
209.919	-88.03
210.136	-62.81
210.354	-39
210.572	-57.19
210.79	-44.19
211.007	-39.2
211.225	-66.67
211.442	-65.96
211.66	-73.64
211.878	-89.7
212.095	261.23
212.313	214.54
212.53	229.87
212.748	196.5
212.966	192.94
213.183	181.7
213.401	160.99
213.618	166.42
213.836	172.04
214.053	147.36
214.271	153.76
214.488	-2922.73
214.705	-955.42
214.923	-752.91
215.14	-318.47
215.358	-324.61
215.575	-125.24
215.793	-300.48
216.01	1116.4
216.227	-67154.55
216.445	-364.68
216.662	-339.57
216.879	-473.81
217.097	-225.02
217.314	-213.47
217.531	-275.29
217.749	-180.92
217.966	-150.83
218.183	-154.36
218.4	-138.17
218.618	-72.97
218.835	-92.37
219.052	-54.11
219.269	-14.3
219.487	-23.63
219.704	-25.85
219.921	-69.24
220.138	-145.49
220.355	-243.58
220.572	-160.41
220.79	-81.21
221.007	-115.57
221.224	-166.76
221.441	-159
221.658	-184.84
221.875	-125.19
222.092	-124.2
222.309	-71.34
222.526	-72.3
222.743	-61.5
222.96	-59.85
223.177	-120.96
223.394	-187.12
223.611	-92.54
223.828	-133
224.045	-99.25
224.262	-132.14
224.479	-168.75
224.696	-147.77
224.913	-139.47
225.13	-206.54
225.347	-146.06
225.564	-105.31
225.781	-70.16
225.997	-89.24
226.214	-64.32
226.431	-55.95
226.648	-46.05
226.865	-42.97
227.082	-47.64
227.298	-33.21
227.515	-16.3
227.732	-26.5
227.949	-32.91
228.165	-21.65
228.382	-10.37
228.599	-10.71
228.816	-21.8
229.032	-34.36
229.249	-22.45
229.466	-11.51
229.682	-25.38
229.899	-35.91
230.116	-24.14
230.332	-31.94
230.549	-45.41
230.765	-45.79
230.982	-56.42
231.199	-33.12
231.415	-35.63
231.632	-41.36
231.848	-58.78
232.065	-46.48
232.281	-36.05
232.498	-34.13
232.714	-26.27
232.931	-28.31
233.147	-37.33
233.364	-31.22
233.58	-34.79
233.797	-39.97
234.013	-32.51
234.23	-27.52
234.446	-40.2
234.662	-40.85
234.879	-44.46
235.095	-32.75
235.312	-34.39
235.528	-10.02
235.744	-10.85
235.961	-24.96
236.177	-27.76
236.393	-26.95
236.61	-20.95
236.826	-9.61
237.042	-4.26
237.258	-0.54
237.475	-10.58
237.691	-8.39
237.907	-23.2
238.123	-19.68
238.339	-13.91
238.556	-6.03
238.772	-12.62
238.988	3.13
239.204	5.06
239.42	-3.18
239.636	-3.03
239.853	5.81
240.069	1.89
240.285	3.87
240.501	0.74
240.717	3.11
240.933	4.81
241.149	5.23
241.365	0.79
241.581	-4.54
241.797	-2.42
242.013	-4.34
242.229	-7.29
242.445	-3.66
242.661	-4.32
242.877	-3.9
243.093	-4.4
243.309	-7.92
243.525	-4.54
243.741	-10.66
243.957	-7.53
244.173	-7.44
244.388	-11.42
244.604	-1.93
244.82	-4.1
245.036	-6.2
245.252	-0.16
245.468	3.67
245.683	4.47
245.899	5.72
246.115	7.02
246.331	9.52
246.547	7.29
246.762	7.41
246.978	3.74
247.194	2.58
247.409	4.23
247.625	1.13
247.841	-2.29
248.057	-1.64
248.272	-3.06
248.488	-3.88
248.703	-6.16
248.919	-3.96
249.135	-4.03
249.35	-5.66
249.566	-3.63
249.782	-5.85
249.997	-7.02
250.213	-3.96
250.428	-7.88
250.644	-15.15
250.859	-11.32
251.075	-17.8
251.29	-12.1
251.506	-10.72
251.721	-10.9
251.937	-11
252.152	-13.01
252.368	-19.9
252.583	-29.18
252.798	-30.6
253.014	-26.17
253.229	-27.28
253.445	-21.66
253.66	-33.09
253.875	-37
254.091	-37.97
254.306	-23.85
254.521	-24.87
254.737	-10.65
254.952	-6.78
255.167	-5.26
255.383	-4.72
255.598	-10.73
255.813	-12.93
256.028	-10.24
256.244	-5.29
256.459	-4.88
256.674	-13.84
256.889	-14.42
257.104	-12.51
257.32	-8.31
257.535	-6.87
257.75	-8.02
257.965	-2.67
258.18	-3.67
258.395	-5.71
258.61	-4.21
258.826	-1.04
259.041	0.21
259.256	0.78
259.471	0.49
259.686	-3.29
259.901	-2.84
260.116	-1.36
260.331	-4.58
260.546	-0.99
260.761	1.09
260.976	1.41
261.191	-0.63
261.406	0.45
261.621	-3.81
261.836	-2.46
262.05	0.22
262.265	-5.11
262.48	-3.15
262.695	2.88
262.91	-1
263.125	-2.14
263.34	-7.45
263.555	-6.97
263.769	-15.27
263.984	-7.87
264.199	-15.53
264.414	-13.62
264.629	-8.92
264.843	-12.95
265.058	-18.26
265.273	-14.47
265.488	-16.52
265.702	-7.36
265.917	-12.48
266.132	-15.69
266.346	-12.11
266.561	-13.6
266.776	-17.45
266.99	-18.21
267.205	-16.14
267.42	-19.85
267.634	-21.89
267.849	-20.77
268.063	-24.01
268.278	-22.42
268.492	-16.88
268.707	-16.97
268.922	-12.44
269.136	-8.68
269.351	-3.24
269.565	-5.01
269.78	-0.73
269.994	0.13
270.209	-0.03
270.423	0.13
270.637	-0.27
270.852	-1.45
271.066	-2.94
271.281	-6.59
271.495	-7.25
271.709	-14.47
271.924	-14.76
272.138	-17.29
272.353	-20.58
272.567	-20.21
272.781	-20.9
272.996	-18.71
273.21	-15.19
273.424	-16.16
273.638	-10.69
273.853	-10.43
274.067	-3.73
274.281	-1.94
274.495	-0.48
274.71	6.23
274.924	5.51
275.138	6.2
275.352	-0.69
275.566	-2.25
275.781	-5.62
275.995	-5.18
276.209	-6.98
276.423	-13.06
276.637	-17.79
276.851	-21.09
277.065	-28.08
277.279	-27.6
277.493	-27.35
277.707	-21.57
277.921	-19.35
278.135	-14.65
278.349	-7.8
278.563	-5.15
278.777	-2.95
278.991	-1.98
279.205	2.6
279.419	5.18
279.633	3.6
279.847	2.02
280.061	2.16
280.275	1.87
280.489	0.2
280.703	-11.28
280.917	-8.09
281.131	-6.57
281.344	-7.67
281.558	-8.81
281.772	-10.17
281.986	-9.11
282.2	-7.55
282.414	-8.47
282.627	-8.81
282.841	-8.14
283.055	-2.28
283.269	-5.9
283.482	-6.26
283.696	-5.32
283.91	-4.71
284.123	-8.04
284.337	-6.67
284.551	-6.89
284.764	-3.56
284.978	-4.08
285.192	-3.84
285.405	-5.74
285.619	-3.35
285.833	-1.89
286.046	1.2
286.26	0.74
286.473	3.22
286.687	5.03
286.9	7.95
287.114	8.07
287.327	6.2
287.541	4.89
287.754	7.28
287.968	2.84
288.181	1.8
288.395	-2.23
288.608	1.79
288.822	-0.41
289.035	-3.32
289.248	-7.58
289.462	-7.99
289.675	-5.44
289.889	-4.3
290.102	-3.01
290.315	-0.39
290.529	-2.14
290.742	-1.33
290.955	-2.6
291.169	0.87
291.382	1.43
291.595	4.03
291.808	4.81
292.022	6.99
292.235	7.59
292.448	4.6
292.661	4.96
292.875	5.26
293.088	6.28
293.301	2.43
293.514	0.03
293.727	-1.17
293.94	-6.07
294.153	-7.95
294.367	-11.2
294.58	-9.75
294.793	-10.45
295.006	-12.3
295.219	-9.84
295.432	-9.87
295.645	-8.61
295.858	-6.38
296.071	-6.62
296.284	-4.26
296.497	-1.76
296.71	-2.63
296.923	-2.52
297.136	-2.76
297.349	-3.13
297.562	-1.6
297.775	-0.37
297.988	-0.09
298.201	-0.91
298.414	2
298.626	4.07
298.839	1.97
299.052	4.79
299.265	3.02
299.478	6.45
299.691	8.11
299.903	5.3
300.116	3.18
300.329	4.9
300.542	6.3
300.755	3.34
300.967	1.78
301.18	0.61
301.393	-1.22
301.605	0.68
301.818	-2.01
302.031	-3.14
302.243	-1.16
302.456	1.72
302.669	1.11
302.881	-2.49
303.094	-2.81
303.307	-1.19
303.519	1.25
303.732	0.53
303.944	-2.33
304.157	-1.91
304.37	0.15
304.582	-1.25
304.795	-3.79
305.007	-5.86
305.22	-2.66
305.432	0.03
305.645	-2.63
305.857	-1.8
306.069	1.46
306.282	4.59
306.494	5.34
306.707	4.78
306.919	2.97
307.132	-0.62
307.344	-1.14
307.556	-2.92
307.769	-4.45
307.981	-3.01
308.193	-7.48
308.406	-9.84
308.618	-10.37
308.83	-10.1
309.043	-9.84
309.255	-8.01
309.467	-5.98
309.679	-2.86
309.892	-1.39
310.104	-0.68
310.316	-0.11
310.528	2.64
310.74	4.68
310.953	4.68
311.165	5.13
311.377	7.55
311.589	7.65
311.801	7.69
312.013	5.43
312.225	3.42
312.437	1.18
312.649	-0.05
312.862	0.81
313.074	-2.48
313.286	-0.92
313.498	-1.54
313.71	-6.49
313.922	-8.54
314.134	-8.12
314.346	-6.93
314.558	-5.75
314.77	-3.05
314.982	-1.09
315.193	-4.25
315.405	-5.55
315.617	-3.71
315.829	-7.42
316.041	-6.47
316.253	-1.36
316.465	-0.32
316.677	-1.28
316.888	0.74
317.1	2.99
317.312	1.96
317.524	1.66
317.736	3
317.947	-3.86
318.159	-0.58
318.371	2.24
318.583	1.14
318.794	1.37
319.006	2.52
319.218	1.07
319.43	0.24
319.641	-1.6
319.853	2.91
320.064	6.5
320.276	8.85
320.488	7.71
320.699	4.93
320.911	3.2
321.123	3.32
321.334	-2.61
321.546	-1.22
321.757	-1.96
321.969	2.51
322.18	-1.29
322.392	-5.45
322.603	-5.59
322.815	-3.68
323.026	-3.07
323.238	-2.38
323.449	-2.49
323.661	2.94
323.872	2.42
324.083	2.21
324.295	1.94
324.506	3.64
324.718	3.49
324.929	6.23
325.14	5.59
325.352	3.91
325.563	4.59
325.774	5.44
325.986	4.8
326.197	4.85
326.408	5.26
326.62	3.39
326.831	2.38
327.042	3.76
327.253	2.8
327.464	4.12
327.676	5.41
327.887	3.4
328.098	3.66
328.309	3.9
328.52	3.26
328.732	4.54
328.943	2.59
329.154	4.82
329.365	5.22
329.576	6.05
329.787	4.9
329.998	7.47
330.209	9.64
330.42	9.99
330.631	7.54
330.842	9.09
331.053	6.79
331.264	11.22
331.475	11.04
331.686	10.36
331.897	11.45
332.108	10.13
332.319	10.78
332.53	9.1
332.741	7.91
332.952	10.23
333.163	7.81
333.374	9.73
333.585	8.4
333.795	6
334.006	6.3
334.217	5.71
334.428	6.18
334.639	3.43
334.849	5.22
335.06	7.05
335.271	6.12
335.482	8.8
335.692	8.48
335.903	8.41
336.114	10.36
336.325	14.59
336.535	16.06
336.746	15.89
336.957	15.68
337.167	15.36
337.378	12.43
337.589	12.6
337.799	12.98
338.01	12.8
338.22	13.96
338.431	15.16
338.642	12
338.852	12.42
339.063	12.91
339.273	13.17
339.484	14.72
339.694	17.31
339.905	16.37
340.115	13.94
340.326	12.72
340.536	10.34
340.746	9.49
340.957	8.58
341.167	3.91
341.378	5.22
341.588	6.43
341.799	5.96
342.009	4.3
342.219	7.88
342.43	8.74
342.64	11.46
342.85	13.49
343.061	11.84
343.271	12.14
343.481	12.98
343.691	11.91
343.902	12.41
344.112	11.88
344.322	14.56
344.532	12.01
344.743	13.19
344.953	13.78
345.163	13.29
345.373	16.81
345.583	17
345.793	17.32
346.004	19.1
346.214	19.4
346.424	18.99
346.634	17.64
346.844	16.88
347.054	17.79
347.264	15.34
347.474	15.39
347.684	12.79
347.894	13.56
348.104	13.54
348.314	13.02
348.524	14.37
348.734	16.51
348.944	17.51
349.154	20.27
349.364	17.04
349.574	18.2
349.784	18.64
349.994	20.63
350.204	21.05
350.413	20.93
350.623	21.53
350.833	20.11
351.043	18.26
351.253	17.35
351.463	15.95
351.672	17.05
351.882	16.19
352.092	13.75
352.302	12.54
352.511	10.94
352.721	9.74
352.931	9.21
353.141	8.2
353.35	8.91
353.56	8.61
353.77	8.49
353.979	8.18
354.189	8.11
354.399	10.1
354.608	7.71
354.818	8.72
355.027	11.26
355.237	11.07
355.447	10.82
355.656	9.37
355.866	7.85
356.075	8.77
356.285	9.62
356.494	10.12
356.704	9.83
356.913	12.44
357.123	12.08
357.332	12.81
357.542	12.08
357.751	12.95
357.96	14.59
358.17	16.57
358.379	16.12
358.589	16.86
358.798	16.83
359.007	17.08
359.217	16.26
359.426	16.31
359.635	15.5
359.845	16.28
360.054	16.44
360.263	15.96
360.472	15.31
360.682	14.79
360.891	14.17
361.1	14.03
361.309	15.39
361.519	14.99
361.728	15.53
361.937	16.35
362.146	15.87
362.355	16.62
362.564	16.55
362.774	15.78
362.983	16.24
363.192	16.94
363.401	17.4
363.61	15.3
363.819	14.6
364.028	14.86
364.237	14.71
364.446	16.24
364.655	15.54
364.864	15.35
365.073	18.35
365.282	18.1
365.491	18.05
365.7	16.64
365.909	18.01
366.118	18.69
366.327	17.51
366.536	17.6
366.745	17.47
366.954	15.87
367.162	16.49
367.371	15.26
367.58	15.85
367.789	16.1
367.998	17.57
368.207	16.48
368.415	15.32
368.624	14.94
368.833	13.25
369.042	11.95
369.25	11.42
369.459	10.47
369.668	11.1
369.877	11.91
370.085	13.25
370.294	12.91
370.503	14.26
370.711	15.38
370.92	16.35
371.129	17.14
371.337	18
371.546	19.47
371.754	19.36
371.963	17.71
372.171	16.87
372.38	15.36
372.589	13.77
372.797	13.36
373.006	12.6
373.214	10.92
373.423	10.79
373.631	10.72
373.84	11
374.048	11.1
374.256	12.37
374.465	13.05
374.673	13.79
374.882	14.86
375.09	14.44
375.298	15.17
375.507	17.61
375.715	17.64
375.923	17.97
376.132	17.82
376.34	18.52
376.548	18.67
376.757	17.64
376.965	17.03
377.173	17.81
377.381	17.09
377.59	17.12
377.798	15.66
378.006	16.28
378.214	15.45
378.423	14.94
378.631	15.71
378.839	14.44
379.047	15.47
379.255	14.12
379.463	14.61
379.671	13.2
379.879	14.36
380.088	14.61
380.296	14.46
380.504	14.49
380.712	15.1
380.92	14.51
381.128	15.6
381.336	14.89
381.544	15.24
381.752	13.44
381.96	14.87
382.168	14.6
382.376	14.79
382.584	12.34
382.791	11.19
382.999	10.61
383.207	9.31
383.415	9.39
383.623	9.21
383.831	10.16
384.039	9.93
384.247	9.09
384.454	9.23
384.662	8.25
384.87	10.13
385.078	10.9
385.285	11.67
385.493	11.44
385.701	11.89
385.909	11.18
386.116	10.51
386.324	12.34
386.532	14.63
386.739	14.23
386.947	14.69
387.155	14.38
387.362	14.34
387.57	13.52
387.778	14.48
387.985	14.16
388.193	14.29
388.4	14.91
388.608	13.16
388.816	10.58
389.023	10.38
389.231	11.16
389.438	10.31
389.646	9.94
389.853	11.08
390.061	11.99
390.268	10.77
390.475	11.99
390.683	11.77
390.89	12.96
391.098	14.04
391.305	14.01
391.512	13.55
391.72	13.47
391.927	14.62
392.135	13.6
392.342	12.25
392.549	12.91
392.756	12.75
392.964	12.93
393.171	12.52
393.378	12.89
393.586	12.54
393.793	12.44
394	13.71
394.207	13.59
394.414	14.26
394.622	15.06
394.829	14.39
395.036	14.89
395.243	13.64
395.45	13.91
395.657	14.01
395.864	13.6
396.072	13.56
396.279	13.7
396.486	11.72
396.693	11.32
396.9	11.16
397.107	11.7
397.314	10.76
397.521	11.99
397.728	11.5
397.935	10.29
398.142	11.38
398.349	11.86
398.556	11.76
398.763	14.22
398.97	14.7
399.177	14.3
399.383	15.61
399.59	15.67
399.797	15.26
400.004	15.99
400.211	16.63
400.418	16.3
400.625	16.27
400.831	15.23
401.038	13.34
401.245	12.74
401.452	12.57
401.658	11.67
401.865	12.09
402.072	11.59
402.279	11.12
402.485	10.89
402.692	10.26
402.899	9.27
403.105	10.33
403.312	11.63
403.519	10.89
403.725	10.98
403.932	10.89
404.138	9.94
404.345	10.73
404.552	10.65
404.758	10.27
404.965	10.55
405.171	11.62
405.378	11.17
405.584	10.21
405.791	11.6
405.997	11.62
406.204	11.64
406.41	10.93
406.617	11.17
406.823	11.12
407.029	11.43
407.236	10.87
407.442	9.56
407.649	9.15
407.855	9.91
408.061	8.82
408.268	9.08
408.474	9.21
408.68	10.85
408.887	11.24
409.093	11.4
409.299	11.36
409.505	12.6
409.712	12.98
409.918	13.97
410.124	13.75
410.33	14.46
410.537	14.53
410.743	13.94
410.949	14.08
411.155	13.44
411.361	13.83
411.567	14.24
411.773	14.94
411.98	15.11
412.186	13.96
412.392	14.6
412.598	15.2
412.804	15.39
413.01	14.92
413.216	14.53
413.422	14.49
413.628	13.7
413.834	12.98
414.04	11.23
414.246	11.94
414.452	12.78
414.658	12.66
414.864	11.77
415.07	11.65
415.275	11.95
415.481	11.8
415.687	11.42
415.893	11.69
416.099	12.49
416.305	13.45
416.511	13.88
416.716	13.87
416.922	13.58
417.128	13.46
417.334	13.94
417.539	13.67
417.745	14.18
417.951	14.94
418.157	15.08
418.362	15
418.568	14.67
418.774	13.8
418.979	13.47
419.185	13.72
419.391	13.85
419.596	13.73
419.802	14.52
420.008	14.12
420.213	14.1
420.419	14.28
420.624	14.71
420.83	15.23
421.035	15.47
421.241	15.65
421.446	15.39
421.652	15.38
421.857	15.25
422.063	15.3
422.268	15.44
422.474	14.74
422.679	14.56
422.885	13.93
423.09	13.34
423.295	13.85
423.501	13.65
423.706	14.09
423.911	14.33
424.117	13.73
424.322	12.87
424.527	12.59
424.733	12.9
424.938	12.76
425.143	12.79
425.349	13.03
425.554	12.59
425.759	12.63
425.964	12.23
426.169	12.07
426.375	12.26
426.58	13.04
426.785	13.11
426.99	13
427.195	12.87
427.4	13.03
427.605	12.58
427.811	12.61
428.016	12.66
428.221	12.05
428.426	12.44
428.631	12.59
428.836	12.19
429.041	12.38
429.246	12.62
429.451	12.18
429.656	13.02
429.861	13.11
430.066	13.43
430.271	14.37
430.476	14.56
430.681	14.27
430.886	14.8
431.09	14.68
431.295	15.14
431.5	15.21
431.705	15.75
431.91	14.73
432.115	15.47
432.32	15.16
432.524	14.36
432.729	14.63
432.934	14.47
433.139	14.6
433.343	14.91
433.548	14.1
433.753	13.73
433.958	14.01
434.162	13.99
434.367	13.62
434.572	12.63
434.776	12.75
434.981	12.32
435.186	12.56
435.39	12.29
435.595	12.06
435.799	12.32
436.004	12.25
436.209	12.1
436.413	12.61
436.618	12.41
436.822	13.4
437.027	13.23
437.231	13.78
437.436	13.57
437.64	12.73
437.845	13.03
438.049	13.31
438.253	13.73
438.458	13.36
438.662	13.33
438.867	13.2
439.071	12.77
439.275	12.75
439.48	12.25
439.684	12.04
439.888	12.71
440.093	12.39
440.297	11.94
440.501	12.15
440.706	12.02
440.91	11.79
441.114	11.63
441.318	12.09
441.523	12.05
441.727	12.13
441.931	12.41
442.135	12.85
442.339	12.86
442.543	13.76
442.748	13.22
442.952	13.7
443.156	13.44
443.36	13.61
443.564	13.61
443.768	13.66
443.972	13.59
444.176	13.79
444.38	13.43
444.584	13.56
444.788	13.18
444.992	13.27
445.196	13.02
445.4	13.38
445.604	13.64
445.808	13.17
446.012	13.3
446.216	13.28
446.42	13.05
446.624	13.13
446.828	13.03
447.032	13.14
447.235	13.43
447.439	13.89
447.643	13.71
447.847	13.01
448.051	12.74
448.254	12.43
448.458	12.79
448.662	12.88
448.866	12.84
449.069	12.71
449.273	12.56
449.477	12.08
449.681	11.31
449.884	10.78
450.088	11.36
450.292	12.41
450.495	13.09
450.699	12.72
450.902	12.67
451.106	12.62
451.31	13.04
451.513	12.68
451.717	12.94
451.92	13.29
452.124	13.62
452.327	13.6
452.531	13.06
452.734	12.54
452.938	12.81
453.141	12.34
453.345	12.24
453.548	12.9
453.752	12.93
453.955	12.58
454.158	12.28
454.362	12.29
454.565	12.54
454.769	12.31
454.972	12.13
455.175	11.7
455.379	12.04
455.582	12.07
455.785	11.35
455.988	11.72
456.192	11.58
456.395	11.89
456.598	11.84
456.801	11.99
457.005	11.59
457.208	11.9
457.411	11.92
457.614	11.74
457.817	11.69
458.021	11.48
458.224	11.37
458.427	11.45
458.63	11.2
458.833	11.51
459.036	11.18
459.239	11.88
459.442	11.56
459.645	12.1
459.848	12.33
460.051	12.24
460.254	12.48
460.457	12.81
460.66	12.77
460.863	13.37
461.066	13.34
461.269	13.65
461.472	13.02
461.675	13.44
461.878	13.51
462.081	13.49
462.284	13.77
462.486	13.75
462.689	13.34
462.892	13.66
463.095	13.14
463.298	12.88
463.5	12.52
463.703	13.15
463.906	13.07
464.109	12.1
464.311	12.13
464.514	12.04
464.717	11.48
464.92	11.78
465.122	12.17
465.325	12.45
465.528	12.52
465.73	12.9
465.933	13.11
466.135	12.76
466.338	13.11
466.541	12.77
466.743	12.97
466.946	13.24
467.148	12.79
467.351	12.59
467.553	12.47
467.756	12.42
467.958	12.33
468.161	12.25
468.363	12.19
468.566	12.29
468.768	12.97
468.971	12.68
469.173	12.99
469.375	13.92
469.578	13.81
469.78	13.56
469.983	13.16
470.185	13.06
470.387	12.93
470.59	13.77
470.792	14.09
470.994	13.63
471.196	13.26
471.399	12.89
471.601	12.35
471.803	12.68
472.005	12.52
472.208	12.81
472.41	12.98
472.612	12.66
472.814	12.49
473.016	12.2
473.218	12.33
473.421	12.63
473.623	12.61
473.825	12.34
474.027	12.26
474.229	12.94
474.431	12.77
474.633	12.8
474.835	12.89
475.037	12.81
475.239	12.53
475.441	12.68
475.643	12.59
475.845	12.67
476.047	13.03
476.249	12.44
476.451	12.9
476.653	13.29
476.855	13.14
477.057	13.07
477.258	13.23
477.46	13.16
477.662	13.17
477.864	13.79
478.066	13.6
478.268	13.37
478.469	13.41
478.671	12.94
478.873	12.99
479.075	12.97
479.276	13.46
479.478	13.57
479.68	13.34
479.882	13.18
480.083	13.38
480.285	13.64
480.487	13.84
480.688	13.99
480.89	13.46
481.091	13.15
481.293	13.04
481.495	12.85
481.696	12.72
481.898	13.22
482.099	13.34
482.301	13.03
482.502	13.17
482.704	13.28
482.905	13.29
483.107	13.59
483.308	13.74
483.51	13.83
483.711	13.82
483.913	13.84
484.114	13.72
484.315	13.68
484.517	13.81
484.718	13.93
484.92	13.99
485.121	14.01
485.322	13.86
485.524	13.85
485.725	13.67
485.926	13.68
486.127	13.69
486.329	13.66
486.53	13.74
486.731	13.25
486.932	12.96
487.134	12.76
487.335	12.91
487.536	13.03
487.737	13.06
487.938	13.22
488.139	13.12
488.341	13.23
488.542	13.46
488.743	13.36
488.944	13.67
489.145	13.77
489.346	13.56
489.547	13.37
489.748	13.23
489.949	13.26
490.15	13.34
490.351	13.64
490.552	13.43
490.753	13.46
490.954	13.33
491.155	13.6
491.356	13.55
491.557	13.85
491.758	13.96
491.959	14.15
492.159	14.1
492.36	14.14
492.561	13.94
492.762	14.02
492.963	13.56
493.164	13.8
493.364	13.61
493.565	13.76
493.766	13.43
493.967	13.27
494.167	13
494.368	13.15
494.569	12.9
494.769	12.69
494.97	12.08
495.171	12.79
495.371	12.66
495.572	12.43
495.773	12.34
495.973	12.45
496.174	12.23
496.375	12.16
496.575	12.19
496.776	12.24
496.976	12.47
497.177	13.01
497.377	12.47
497.578	12.66
497.778	12.84
497.979	12.96
498.179	13.16
498.38	13.62
498.58	13.64
498.78	13.72
498.981	13.61
499.181	13.87
499.382	13.64
499.582	14.03
499.782	13.93
499.983	13.84
500.183	13.74
500.383	13.68
500.584	13.64
500.784	13.81
500.984	13.44
501.184	13.53
501.385	13.46
501.585	14.04
501.785	14.62
501.985	15.23
502.185	15.2
502.386	15.54
502.586	15.5
502.786	15.37
502.986	15.52
503.186	15.67
503.386	15.65
503.586	15.49
503.786	15.43
503.987	15.1
504.187	14.21
504.387	14.3
504.587	14.25
504.787	14.34
504.987	14.83
505.187	14.43
505.387	14.56
505.587	14.56
505.786	14.58
505.986	14.48
506.186	14.21
506.386	14.74
506.586	15.02
506.786	15.06
506.986	15.45
507.186	15.31
507.386	15.51
507.585	15.43
507.785	15.76
507.985	16.45
508.185	16.23
508.384	16.32
508.584	15.98
508.784	15.79
508.984	15.42
509.183	15.02
509.383	15.36
509.583	15.29
509.782	16.03
509.982	16.26
510.182	15.69
510.381	15.71
510.581	15.83
510.781	16.2
510.98	16.58
511.18	17.07
511.379	17.46
511.579	17.15
511.778	17.6
511.978	17.1
512.177	16.97
512.377	16.9
512.576	17.33
512.776	17.51
512.975	17.44
513.175	17.01
513.374	16.98
513.573	16.75
513.773	16.71
513.972	16.59
514.172	16.82
514.371	16.74
514.57	17.08
514.77	16.95
514.969	17.11
515.168	17.38
515.367	17.78
515.567	18.05
515.766	18.51
515.965	18.35
516.164	18.42
516.364	18.44
516.563	18.34
516.762	18.3
516.961	18.67
517.16	18.52
517.359	18.52
517.559	18.6
517.758	18.29
517.957	18.3
518.156	18.65
518.355	19.02
518.554	18.7
518.753	18.81
518.952	19.16
519.151	18.89
519.35	18.73
519.549	18.62
519.748	18.74
519.947	18.76
520.146	18.57
520.345	18.58
520.544	18.22
520.743	18.47
520.942	18.47
521.141	18.45
521.339	18.75
521.538	18.88
521.737	19.06
521.936	18.99
522.135	19.51
522.333	19.44
522.532	19.77
522.731	20.04
522.93	20.26
523.129	20.28
523.327	20.26
523.526	20.51
523.725	20.46
523.923	20.49
524.122	20.3
524.321	20.2
524.519	20.58
524.718	20.55
524.917	20.2
525.115	20.29
525.314	20.09
525.512	20.17
525.711	19.85
525.909	20.21
526.108	20.34
526.306	20.52
526.505	20.78
526.703	20.6
526.902	20.63
527.1	20.87
527.299	20.87
527.497	21.23
527.696	21.31
527.894	21.34
528.092	21.28
528.291	21.49
528.489	21.61
528.688	21.6
528.886	21.8
529.084	21.68
529.283	21.72
529.481	21.83
529.679	21.73
529.877	21.54
530.076	21.81
530.274	21.93
530.472	21.63
530.67	21.51
530.869	21.38
531.067	21.26
531.265	21.44
531.463	21.55
531.661	21.56
531.859	21.95
532.057	22.16
532.255	22.23
532.454	22.39
532.652	22.7
532.85	22.87
533.048	23
533.246	23.27
533.444	23.33
533.642	23.4
533.84	23.49
534.038	23.18
534.236	23.39
534.434	23.2
534.632	23.14
534.83	23.35
535.027	23.66
535.225	23.86
535.423	23.57
535.621	23.91
535.819	24.06
536.017	24.25
536.215	24.75
536.412	24.63
536.61	24.77
536.808	25.11
537.006	25.06
537.203	25.03
537.401	24.63
537.599	25.32
537.797	25.52
537.994	25.49
538.192	25.23
538.39	25.19
538.587	25.58
538.785	25.68
538.983	25.34
539.18	25.26
539.378	25.15
539.575	25.33
539.773	25.14
539.97	24.78
540.168	24.67
540.366	24.86
540.563	24.82
540.761	24.74
540.958	24.65
541.155	24.61
541.353	24.57
541.55	24.47
541.748	24.55
541.945	24.59
542.143	24.82
542.34	24.83
542.537	24.77
542.735	24.8
542.932	24.64
543.129	24.86
543.327	25.29
543.524	25.14
543.721	25.47
543.919	25.38
544.116	24.69
544.313	24.41
544.51	25.03
544.708	25.46
544.905	25.39
545.102	25.41
545.299	25.37
545.496	24.94
545.693	25.24
545.891	24.93
546.088	25.02
546.285	25.64
546.482	25.73
546.679	25.37
546.876	24.98
547.073	25.22
547.27	25.34
547.467	25.57
547.664	25.9
547.861	26.12
548.058	26.69
548.255	26.79
548.452	26.65
548.649	26.91
548.846	27.16
549.043	27.11
549.24	26.66
549.437	26.97
549.633	26.93
549.83	26.86
550.027	26.52
550.224	26.1
550.421	26.54
550.618	26.99
550.814	26.67
551.011	26.75
551.208	27.23
551.405	27.48
551.601	27.18
551.798	27.05
551.995	27.29
552.191	27.04
552.388	27.12
552.585	26.76
552.781	26.83
552.978	27.05
553.175	26.78
553.371	26.84
553.568	27.26
553.764	27.2
553.961	27.5
554.157	27.14
554.354	27.79
554.55	28.07
554.747	29.29
554.943	29.06
555.14	29.25
555.336	29.5
555.533	29.27
555.729	29.14
555.926	29.58
556.122	29.6
556.318	30.92
556.515	30.88
556.711	31.03
556.907	29.74
557.104	29.99
557.3	30.36
557.496	30.88
557.693	31.22
557.889	31.42
558.085	31.63
558.281	31.38
558.478	29.95
558.674	29.65
558.87	29.81
559.066	30.38
559.262	30.18
559.459	30.1
559.655	30.15
559.851	30.45
560.047	29.91
560.243	29.35
560.439	29.8
560.635	30.7
560.831	31.47
561.027	32.13
561.223	32.22
561.419	32.62
561.615	32.19
561.811	31.18
562.007	31.34
562.203	32.43
562.399	32.73
562.595	33.11
562.791	33
562.987	32.97
563.183	32.11
563.379	32.18
563.575	32.61
563.771	32.71
563.966	34.07
564.162	33.8
564.358	33.42
564.554	33.56
564.75	33.42
564.945	33.64
565.141	33.58
565.337	34.06
565.533	34.01
565.728	33.78
565.924	34.53
566.12	34.22
566.315	34.08
566.511	34.73
566.707	34.82
566.902	34.92
567.098	34.97
567.293	34.86
567.489	34.29
567.684	34.57
567.88	34.36
568.076	34.47
568.271	34.33
568.467	35.13
568.662	34.89
568.858	35.52
569.053	35.34
569.248	35.54
569.444	36.08
569.639	36.82
569.835	36.94
570.03	37.19
570.225	37.1
570.421	37.44
570.616	37.39
570.812	37.18
571.007	36.95
571.202	37.03
571.397	36.9
571.593	36.75
571.788	36.91
571.983	36.91
572.178	36.89
572.374	36.51
572.569	36.29
572.764	36.26
572.959	36.64
573.154	36.53
573.35	37.09
573.545	36.98
573.74	36.89
573.935	36.68
574.13	36.69
574.325	37.13
574.52	37.58
574.715	37.89
574.91	38.17
575.105	38.29
575.3	38.88
575.495	38.74
575.69	38.94
575.885	39.22
576.08	39.32
576.275	39.45
576.47	39.44
576.665	39.87
576.86	39.9
577.055	39.63
577.25	39.51
577.444	38.95
577.639	38.84
577.834	39.18
578.029	39.24
578.224	39.12
578.418	39.62
578.613	39.76
578.808	39.41
579.003	39.53
579.197	39.82
579.392	40.06
579.587	40.88
579.781	41.13
579.976	40.97
580.171	41.24
580.365	41.75
580.56	41.7
580.755	41.63
580.949	42.14
581.144	42.72
581.338	41.97
581.533	41.71
581.727	40.96
581.922	40.96
582.116	41.02
582.311	40.56
582.505	40.69
582.7	40.54
582.894	40.22
583.089	40.15
583.283	39
583.478	39.43
583.672	39.63
583.866	39.88
584.061	40.16
584.255	40.8
584.449	41.37
584.644	40.83
584.838	41.39
585.032	41.75
585.226	41.37
585.421	41.82
585.615	42.41
585.809	42.4
586.003	42.96
586.198	42.95
586.392	42.84
586.586	42.69
586.78	43.07
586.974	42.38
587.168	42.55
587.363	42.66
587.557	43.78
587.751	43.9
587.945	44.4
588.139	44.59
588.333	44.7
588.527	44.94
588.721	45.25
588.915	45.51
589.109	46.02
589.303	46.34
589.497	46.55
589.691	45.97
589.885	45.67
590.079	45.71
590.273	45.92
590.466	45.97
590.66	45.72
590.854	45.81
591.048	45.54
591.242	45.74
591.436	46.1
591.629	45.97
591.823	45.71
592.017	46.2
592.211	45.87
592.404	46.07
592.598	45.77
592.792	45.75
592.986	46.27
593.179	46.84
593.373	46.85
593.567	46.64
593.76	46.94
593.954	47.17
594.147	46.79
594.341	47.45
594.535	47.16
594.728	47.37
594.922	47.83
595.115	47.49
595.309	47.04
595.502	46.65
595.696	46.47
595.889	46.56
596.083	46.53
596.276	46.82
596.47	46.45
596.663	46.71
596.856	47.29
597.05	46.9
597.243	46.45
597.437	46.37
597.63	46.28
597.823	46.15
598.017	46.5
598.21	46.88
598.403	47.2
598.596	47.12
598.79	46.86
598.983	46.7
599.176	46.44
599.369	46.78
599.563	47.32
599.756	48.02
599.949	48.31
600.142	47.41
600.335	46.8
600.528	46.02
600.722	46.43
600.915	46.68
601.108	46.25
601.301	47.53
601.494	48.22
601.687	47.52
601.88	47.03
602.073	46.86
602.266	47.78
602.459	48.76
602.652	49.44
602.845	49.19
603.038	48.82
603.231	48.3
603.424	47.84
603.617	47.18
603.809	47.72
604.002	48.11
604.195	48.4
604.388	47.97
604.581	47.93
604.774	47.73
604.966	47.7
605.159	48.17
605.352	49.07
605.545	48.85
605.737	49.28
605.93	49.37
606.123	48.8
606.316	48.89
606.508	49.59
606.701	49.15
606.894	49.8
607.086	49.55
607.279	49.68
607.471	50.1
607.664	50.69
607.857	50.16
608.049	50.64
608.242	51.32
608.434	51.44
608.627	50.98
608.819	50.81
609.012	50.36
609.204	50.69
609.397	50.72
609.589	50.82
609.782	51.08
609.974	50.93
610.166	50.41
610.359	49.89
610.551	50.18
610.743	50.48
610.936	50.77
611.128	50.55
611.32	50.57
611.513	49.92
611.705	49.14
611.897	48.94
612.09	49.64
612.282	50.72
612.474	50.88
612.666	48.45
612.858	47.87
613.051	48.03
613.243	48.51
613.435	48.17
613.627	48.5
613.819	48.83
614.011	48.3
614.203	48.29
614.395	46.9
614.588	47.38
614.78	48.76
614.972	49.2
615.164	48.78
615.356	48.45
615.548	48.6
615.74	48.03
615.932	48.65
616.124	49.43
616.315	49.92
616.507	49.59
616.699	49.41
616.891	49.86
617.083	49.12
617.275	49.09
617.467	48.82
617.659	48.76
617.85	48.73
618.042	47.16
618.234	46.82
618.426	46.7
618.618	47.66
618.809	47.71
619.001	47.5
619.193	47.47
619.384	47.75
619.576	48.94
619.768	50.21
619.959	50.28
620.151	50.66
620.343	50.2
620.534	50.88
620.726	50.53
620.917	50.92
621.109	51.27
621.301	52.03
621.492	51.8
621.684	50.61
621.875	49.68
622.067	49.75
622.258	50.23
622.45	49.78
622.641	49.91
622.832	50.25
623.024	49.8
623.215	49.52
623.407	49.59
623.598	49.83
623.789	50.45
623.981	50.24
624.172	50.26
624.363	50.81
624.555	50.91
624.746	50.11
624.937	50.21
625.129	50.33
625.32	51.54
625.511	51.46
625.702	51.67
625.893	50.82
626.085	51.13
626.276	51.12
626.467	50.9
626.658	51.07
626.849	50.67
627.04	51.18
627.231	51.27
627.422	50.97
627.614	50.94
627.805	51.08
627.996	51.66
628.187	51.77
628.378	53.2
628.569	52.65
628.76	52.87
628.951	53.66
629.142	53.96
629.332	53.75
629.523	53.49
629.714	52.91
629.905	52.76
630.096	52.36
630.287	53.09
630.478	51.91
630.669	51.81
630.859	51.97
631.05	52.14
631.241	52.06
631.432	53
631.623	52.96
631.813	53.36
632.004	54.26
632.195	55.82
632.385	55.87
632.576	55.63
632.767	57.21
632.957	57.25
633.148	56.37
633.339	54.87
633.529	53.91
633.72	54.4
633.91	55.39
634.101	54.73
634.292	54.28
634.482	52.85
634.673	52.92
634.863	51.37
635.054	51.18
635.244	51.21
635.435	52.1
635.625	52.6
635.815	52.4
636.006	51.52
636.196	51.24
636.387	51.26
636.577	52.14
636.767	52.38
636.958	52.75
637.148	53.83
637.338	54.36
637.529	54.63
637.719	54.71
637.909	54.49
638.099	54.71
638.29	55.61
638.48	54.65
638.67	54.07
638.86	55.24
639.05	56.27
639.241	54.83
639.431	54.96
639.621	55.05
639.811	54.65
640.001	55.2
640.191	56.79
640.381	55.69
640.571	56.54
640.761	56.49
640.951	55.2
641.141	54.55
641.331	55.35
641.521	55.63
641.711	55.14
641.901	55.54
642.091	54.82
642.281	54.2
642.471	54.52
642.661	53.83
642.851	55.38
643.041	55.53
643.231	56.13
643.42	56.66
643.61	56.69
643.8	56.32
643.99	57.03
644.18	57.55
644.369	57.22
644.559	57.42
644.749	57.99
644.939	56.92
645.128	56.63
645.318	56.17
645.508	56.91
645.697	56.14
645.887	56.45
646.076	56.17
646.266	55.57
646.456	55.81
646.645	55.09
646.835	56.04
647.024	57.22
647.214	56.91
647.403	56.06
647.593	54.73
647.782	55.28
647.972	55.98
648.161	54.78
648.351	54.54
648.54	54.52
648.73	54.8
648.919	54.23
649.108	54.61
649.298	55.09
649.487	56.1
649.677	56.11
649.866	56.85
650.055	57.96
650.244	58.52
650.434	59.78
650.623	59.74
650.812	60.1
651.002	59.87
651.191	58.2
651.38	58.83
651.569	57.1
651.758	56.94
651.947	55.91
652.137	54.72
652.326	55.6
652.515	55.4
652.704	54.77
652.893	54.99
653.082	55.77
653.271	55.98
653.46	55.79
653.649	57.14
653.838	56.72
654.027	57.17
654.216	56.4
654.405	55.71
654.594	55.02
654.783	55.93
654.972	56.39
655.161	54.87
655.35	55.7
655.539	55.12
655.728	54.07
655.916	54.93
656.105	54.75
656.294	55.21
656.483	55.65
656.672	56.83
656.86	57.23
657.049	56.33
657.238	56.78
657.427	56.78
657.615	57.54
657.804	59.14
657.993	59.02
658.181	58.42
658.37	58.79
658.559	58.12
658.747	58.01
658.936	57.22
659.125	56.3
659.313	56.62
659.502	56.15
659.69	56.44
659.879	55.65
660.067	56.02
660.256	57.51
660.444	56.87
660.633	57.56
660.821	56.75
661.01	56.52
661.198	57.35
661.387	56.92
661.575	57.36
661.763	56.85
661.952	57.66
662.14	56.12
662.328	56.05
662.517	57.14
662.705	57.74
662.893	58.1
663.082	58.76
663.27	57.97
663.458	59.94
663.646	58.73
663.834	58.33
664.023	57.41
664.211	57.51
664.399	57.06
664.587	57.2
664.775	57.03
664.963	56.45
665.152	56.06
665.34	58.86
665.528	57.26
665.716	58.71
665.904	59.63
666.092	61.43
666.28	62.37
666.468	61.19
666.656	61.13
666.844	60.28
667.032	60.35
667.22	61.57
667.408	59.39
667.596	59.04
667.784	58.93
667.971	58.5
668.159	56.76
668.347	57.14
668.535	57.58
668.723	57.34
668.911	57.51
669.098	57.24
669.286	55.76
669.474	57.57
669.662	57.85
669.849	57.22
670.037	56.04
670.225	57.24
670.413	56.81
670.6	56.19
670.788	56.67
670.976	55.95
671.163	55.33
671.351	54.92
671.538	54.99
671.726	55.15
671.913	53.95
672.101	55.58
672.289	56.38
672.476	56.43
672.664	58.11
672.851	57.47
673.039	58.06
673.226	59.28
673.413	60.34
673.601	59.36
673.788	59.2
673.976	61.21
674.163	60.14
674.35	58.79
674.538	58.74
674.725	57.78
674.912	58.24
675.1	58.7
675.287	58.27
675.474	56.99
675.662	57.46
675.849	56.37
676.036	56.27
676.223	56.27
676.411	55.05
676.598	54.79
676.785	54.73
676.972	53.91
677.159	52.9
677.346	53.23
677.533	54.25
677.721	52.56
677.908	53.49
678.095	54.32
678.282	54.87
678.469	56.49
678.656	55.82
678.843	55.92
679.03	56.49
679.217	57.5
679.404	57.72
679.591	57.64
679.778	59.48
679.964	60.56
680.151	59.94
680.338	60.88
680.525	59.94
680.712	60.82
680.899	61.23
681.086	60.62
681.272	60.36
681.459	59.07
681.646	59.98
681.833	59.39
682.02	58.37
682.206	57.52
682.393	55.41
682.58	56.33
682.766	56.46
682.953	57
683.14	57.83
683.326	57.87
683.513	58.71
683.7	57.64
683.886	57.56
684.073	57.62
684.259	59.12
684.446	61.47
684.632	59.99
684.819	60.11
685.005	59.06
685.192	58.97
685.378	59.79
685.565	60.73
685.751	61.16
685.938	60.84
686.124	59.22
686.31	58.99
686.497	57.63
686.683	58.04
686.87	57.6
687.056	58.01
687.242	57.6
687.429	56.52
687.615	56.57
687.801	56.84
687.987	56.8
688.174	60.12
688.36	59.3
688.546	59.76
688.732	59.8
688.918	60.83
689.105	61.01
689.291	61.76
689.477	61.88
689.663	62.28
689.849	63.41
690.035	63.16
690.221	61.81
690.407	61.36
690.593	60.49
690.779	61.02
690.965	61.26
691.151	61.88
691.337	61.88
691.523	61.1
691.709	59.84
691.895	57.34
692.081	58.03
692.267	56.59
692.453	58.33
692.639	58.14
692.825	59.53
693.011	57.03
693.196	54.32
693.382	53.44
693.568	54.64
693.754	54.72
693.94	56.02
694.125	56.72
694.311	57.59
694.497	56.25
694.682	56.89
694.868	55.23
695.054	56.59
695.239	57.98
695.425	59.04
695.611	58.67
695.796	57.6
695.982	58.14
696.168	56.93
696.353	56.82
696.539	57.92
696.724	58.92
696.91	58.62
697.095	57.76
697.281	57.5
697.466	57.44
697.652	58
697.837	59.35
698.023	58.79
698.208	59.55
698.393	59.97
698.579	60.27
698.764	59.35
698.949	60.33
699.135	62.75
699.32	64.81
699.505	64.72
699.691	64.14
699.876	64.5
700.061	65.49
700.246	66.08
700.432	65.53
700.617	65.27
700.802	66.38
700.987	65.47
701.172	63.56
701.358	61.07
701.543	59.22
701.728	59.49
701.913	56.8
702.098	54.88
702.283	54.39
702.468	55.26
702.653	55.24
702.838	54.79
703.023	54.16
703.208	55.32
703.393	54.8
703.578	57.44
703.763	56.62
703.948	58.97
704.133	61.06
704.318	59.89
704.503	60
704.688	58.25
704.873	58.23
705.057	59.97
705.242	58.14
705.427	59.7
705.612	57.33
705.797	59.62
705.981	61.93
706.166	60.06
706.351	60.55
706.536	60.77
706.72	61.53
706.905	59.26
707.09	58.52
707.274	60.63
707.459	61.12
707.644	62.95
707.828	60.31
708.013	58.19
708.197	60.01
708.382	61.6
708.567	60.8
708.751	61.41
708.936	63.29
709.12	62.33
709.305	61
709.489	61.3
709.673	61.15
709.858	64.31
710.042	62.47
710.227	61.05
710.411	60.3
710.596	59.37
710.78	59.4
710.964	60.31
711.149	62.02
711.333	61.59
711.517	60.42
711.702	59.98
711.886	57.66
712.07	57.93
712.254	57.52
712.438	56.23
712.623	57.24
712.807	57.3
712.991	56.58
713.175	57.22
713.359	57.3
713.544	57.69
713.728	57.53
713.912	57.93
714.096	59.09
714.28	59.87
714.464	59.79
714.648	60.29
714.832	59.82
715.016	60.01
715.2	58.53
715.384	57.69
715.568	56.87
715.752	57.68
715.936	58.84
716.12	59.33
716.304	59.14
716.488	59.7
716.671	58.95
716.855	59.99
717.039	60.29
717.223	60.64
717.407	63.89
717.59	64.74
717.774	64.91
717.958	63.51
718.142	62.63
718.325	62.77
718.509	62.06
718.693	61.4
718.877	61.31
719.06	59.54
719.244	60.1
719.428	57.87
719.611	57.97
719.795	58.61
719.978	56.41
720.162	57.62
720.345	56.68
720.529	59.14
720.713	61.51
720.896	62.67
721.08	63.56
721.263	61.3
721.446	62.55
721.63	62.73
721.813	64.89
721.997	67.88
722.18	67.68
722.364	65.73
722.547	63.24
722.73	63.34
722.914	60.02
723.097	59.42
723.28	61.34
723.464	62.71
723.647	62.6
723.83	59.97
724.013	60.46
724.197	59.62
724.38	62.36
724.563	64.62
724.746	60.31
724.929	58.67
725.112	57.51
725.296	56.59
725.479	54.28
725.662	54.32
725.845	53.21
726.028	51.7
726.211	52.91
726.394	51.93
726.577	50.8
726.76	52.82
726.943	53.9
727.126	56.85
727.309	58.27
727.492	58.75
727.675	58.05
727.858	56.81
728.041	54.27
728.224	51.09
728.407	53.76
728.589	51.15
728.772	51.09
728.955	53.09
729.138	51.26
729.321	49.28
729.503	47.87
729.686	47.67
729.869	49.59
730.052	53.45
730.234	55.15
730.417	54.59
730.6	56.54
730.782	54.16
730.965	54.03
731.148	54.22
731.33	55.86
731.513	57.77
731.695	60.56
731.878	59.24
732.061	59.09
732.243	60.09
732.426	58.48
732.608	60.99
732.791	62.9
732.973	62.67
733.156	63.14
733.338	62.75
733.52	60.49
733.703	56.88
733.885	57.82
734.068	60.01
734.25	59.94
734.432	60.77
734.615	59.21
734.797	60.97
734.979	61.68
735.162	63.64
735.344	62.34
735.526	63.97
735.708	67.9
735.891	67.55
736.073	64.87
736.255	65.36
736.437	63.55
736.619	64.09
736.802	62.49
736.984	63.05
737.166	60.61
737.348	63
737.53	61.97
737.712	59.71
737.894	60.41
738.076	57.92
738.258	57.26
738.44	59.22
738.622	61.14
738.804	62.61
738.986	59.88
739.168	62.45
739.35	59.97
739.532	60.17
739.714	61.52
739.896	61.03
740.078	64.54
740.259	65.86
740.441	65.96
740.623	62.54
740.805	63.07
740.987	63
741.168	57.58
741.35	57.05
741.532	57.11
741.714	55.88
741.895	57.95
742.077	55.64
742.259	53.48
742.44	50.75
742.622	51.64
742.804	48.41
742.985	47.97
743.167	49.16
743.348	52.03
743.53	51.87
743.711	50.22
743.893	49.31
744.075	51.62
744.256	55.44
744.438	56.81
744.619	56.26
744.8	57.37
744.982	61.05
745.163	64.94
745.345	65.81
745.526	64.07
745.707	66.28
745.889	64.31
746.07	62.59
746.252	59.49
746.433	61.43
746.614	60.14
746.795	62.65
746.977	58.31
747.158	55.93
747.339	53.42
747.52	56.82
747.702	57.74
747.883	58.32
748.064	56.97
748.245	57.48
748.426	57.79
748.607	58.8
748.788	52.11
748.97	55.42
749.151	56.25
749.332	56.94
749.513	54.72
749.694	51.95
749.875	50.41
750.056	53.02
750.237	52.76
750.418	51.69
750.599	51.07
750.78	55.26
750.96	53.63
751.141	50.82
751.322	52.08
751.503	51.3
751.684	50.25
751.865	53.77
752.046	53.87
752.226	54.01
752.407	51.23
752.588	52.79
752.769	55.08
752.949	56.05
753.13	61.15
753.311	63.23
753.492	65.02
753.672	66.82
753.853	64.13
754.034	64.19
754.214	62.87
754.395	63.84
754.575	64.36
754.756	63.17
754.937	61.91
755.117	61.23
755.298	56.62
755.478	55.71
755.659	57.62
755.839	57.75
756.02	56.87
756.2	58.65
756.381	60.55
756.561	57.8
756.741	57.38
756.922	59.51
757.102	59.44
757.283	58.94
757.463	60.69
757.643	56
757.823	54.24
758.004	54.53
758.184	54.51
758.364	54.72
758.545	55.77
758.725	55.09
758.905	54.33
759.085	53.91
759.265	55.23
759.446	56.88
759.626	60.06
759.806	64.54
759.986	62.86
760.166	61.77
760.346	62.4
760.526	63.21
760.706	62.6
760.886	63.95
761.066	61.66
761.246	59.33
761.426	57.22
761.606	59.13
761.786	55.32
761.966	56.53
762.146	55.65
762.326	53.79
762.506	53.09
762.686	51.61
762.866	50.33
763.046	52.36
763.225	53.62
763.405	55.14
763.585	54.13
763.765	55.97
763.945	56.7
764.124	58.57
764.304	59.51
764.484	59.56
764.664	61.58
764.843	60.44
765.023	59.19
765.203	59.62
765.382	56.99
765.562	56.93
765.741	56.7
765.921	54.67
766.101	53.52
766.28	54.95
766.46	54.44
766.639	55.24
766.819	55.3
766.998	56.56
767.178	58.44
767.357	61.99
767.537	60.06
767.716	59.19
767.896	59.84
768.075	58.36
768.254	60.6
768.434	62.43
768.613	57.44
768.792	58.27
768.972	57.15
769.151	55.98
769.33	54.08
769.51	56.98
769.689	55.15
769.868	55.51
770.047	59.56
770.226	54.42
770.406	55.14
770.585	58.47
770.764	59.28
770.943	63.67
771.122	60.92
771.301	58.69
771.48	59.07
771.66	59.1
771.839	59.86
772.018	57.65
772.197	60.98
772.376	59.86
772.555	61.68
772.734	65.49
772.913	59.13
773.092	61.88
773.271	60.37
773.449	60.33
773.628	61.54
773.807	59.7
773.986	60.49
774.165	59.84
774.344	61.5
774.523	63.91
774.701	60.56
774.88	61.17
775.059	62.58
775.238	65.66
775.417	65.7
775.595	67.24
775.774	68.26
775.953	66.55
776.131	65.14
776.31	63.77
776.489	61.4
776.667	58.16
776.846	59.93
777.025	57.66
777.203	56.05
777.382	51.06
777.56	46.11
777.739	46.4
777.917	49.15
778.096	49.54
778.274	50.76
778.453	53.3
778.631	57.49
778.81	54.18
778.988	56.88
779.166	57.47
779.345	57.71
779.523	63.14
779.702	63.07
779.88	62.22
780.058	59.3
780.237	59.15
780.415	57.16
780.593	55.74
780.771	58.98
780.95	56.58
781.128	57.24
781.306	61.63
781.484	61.95
781.662	61.21
781.841	55.45
782.019	56.66
782.197	55.47
782.375	54.11
782.553	51.1
782.731	51.79
782.909	50.33
783.087	48.36
783.265	47.62
783.443	51.58
783.621	50.16
783.799	53.74
783.977	56.02
784.155	56.13
784.333	55.13
784.511	59.58
784.689	60.73
784.867	59.71
785.045	60.76
785.223	58.89
785.4	53.1
785.578	54.95
785.756	55.98
785.934	55.67
786.112	54.39
786.289	59.36
786.467	58.3
786.645	53.71
786.823	60.17
787	62.78
787.178	63.66
787.356	60.91
787.533	58.51
787.711	60.69
787.889	61.37
788.066	61.52
788.244	58.73
788.421	57.64
788.599	60.16
788.776	55.42
788.954	51.21
789.131	51.67
789.309	52.73
789.486	52.53
789.664	56.61
789.841	62.05
790.019	63.46
790.196	64.36
790.373	65.69
790.551	63.02
790.728	60.71
790.906	61.63
791.083	63.24
791.26	67.24
791.437	67.08
791.615	63.31
791.792	58.08
791.969	60.17
792.146	61.77
792.324	60.85
792.501	58.99
792.678	60.32
792.855	62.28
793.032	60.27
793.209	59.46
793.387	62.44
793.564	60.7
793.741	61
793.918	57.66
794.095	56.5
794.272	57.68
794.449	61.33
794.626	63.75
794.803	63.69
794.98	62.27
795.157	60.15
795.334	61.4
795.511	58.21
795.688	56.61
795.864	55.25
796.041	50.83
796.218	49.63
796.395	47.27
796.572	47.14
796.749	45.41
796.925	47.93
797.102	46.49
797.279	46.47
797.456	45.56
797.632	45.82
797.809	45.35
797.986	47.88
798.162	47.14
798.339	48.74
798.516	49.95
798.692	49.7
798.869	51.09
799.046	55.53
799.222	57.3
799.399	58.07
799.575	60.57
799.752	63.8
799.928	60.57
800.105	67.05
800.281	64.71
800.458	61.63
800.634	65.99
800.811	63.84
800.987	67.6
801.163	61.9
801.34	61.17
801.516	58.43
801.692	54.23
801.869	58.29
802.045	51.76
802.221	51.36
802.398	48.83
802.574	42.67
802.75	40.8
802.926	31.28
803.103	26.9
803.279	29.49
803.455	33.58
803.631	29.93
803.807	29.28
803.983	26.02
804.16	30.18
804.336	35.91
804.512	36.55
804.688	36.56
804.864	38.49
805.04	41.48
805.216	40.57
805.392	36.15
805.568	43.18
805.744	42.8
805.92	50.2
806.096	44.85
806.272	36.53
806.448	34.26
806.623	45.69
806.799	40.13
806.975	40.49
807.151	37.38
807.327	38.93
807.503	39.76
807.678	38.79
807.854	40.97
808.03	41.85
808.206	42.76
808.381	47.63
808.557	36.64
808.733	42.06
808.908	43.78
809.084	48.12
809.26	46.26
809.435	45.44
809.611	47.17
809.787	45.04
809.962	48.67
810.138	52.2
810.313	52.13
810.489	58.42
810.664	62.8
810.84	66.56
811.015	65.41
811.191	68.12
811.366	62.82
811.542	71.03
811.717	71.29
811.892	67.97
812.068	68.96
812.243	69.5
812.419	63.74
812.594	52.38
812.769	49.71
812.944	46.54
813.12	45.1
813.295	52.91
813.47	46.97
813.645	42.78
813.821	35.11
813.996	30.94
814.171	32.75
814.346	36.28
814.521	40.4
814.697	38.98
814.872	40.57
815.047	36.88
815.222	36.85
815.397	39.08
815.572	41.55
815.747	46.97
815.922	48.63
816.097	41.87
816.272	38.17
816.447	39.42
816.622	38.18
816.797	39.27
816.972	43.25
817.147	48.41
817.322	47.55
817.496	48.82
817.671	43.48
817.846	39.29
818.021	45.78
818.196	58.55
818.371	61.09
818.545	59.88
818.72	57.59
818.895	59.37
819.069	51.06
819.244	48.44
819.419	47.4
819.594	49.31
819.768	51.53
819.943	47.66
820.117	43.9
820.292	41.28
820.467	43.29
820.641	46.04
820.816	47.48
820.99	48.47
821.165	48.92
821.339	48.89
821.514	48.38
821.688	48.01
821.863	50.03
822.037	51.45
822.212	51.88
822.386	51.87
822.56	51.81
822.735	51.29
822.909	51.4
823.084	51.86
823.258	51.61
823.432	53.97
823.606	54.35
823.781	52.42
823.955	50.68
824.129	49.89
824.303	48.64
824.478	48.56
824.652	47.21
824.826	48.7
825	48.39
825.174	50.13
825.348	48.03
825.523	49.96
825.697	49.72
825.871	49.82
826.045	51.07
826.219	53.01
826.393	52.63
826.567	54.56
826.741	52.79
826.915	53.83
827.089	51.86
827.263	52.72
827.437	53.53
827.611	53.53
827.784	52.73
827.958	54.12
828.132	53.01
828.306	51.72
828.48	48.61
828.654	49.93
828.827	46.15
829.001	45.96
829.175	43.49
829.349	40
829.522	44.4
829.696	43.2
829.87	41.27
830.044	42.23
830.217	42.06
830.391	37.8
830.565	34.49
830.738	36.38
830.912	39.57
831.085	37.55
831.259	32.79
831.432	33.87
831.606	37.96
831.779	38.97
831.953	32.41
832.126	43.06
832.3	44.86
832.473	42.29
832.647	44.77
832.82	43.83
832.994	42.96
833.167	47.84
833.34	46.21
833.514	44.21
833.687	46.52
833.86	50.42
834.034	42.68
834.207	44.27
834.38	48.13
834.553	45.01
834.727	43.39
834.9	49.88
835.073	50.9
835.246	51.42
835.419	52.08
835.593	48.85
835.766	48.62
835.939	47.18
836.112	50.2
836.285	47.11
836.458	44.95
836.631	49.16
836.804	41.57
836.977	36.55
837.15	31.97
837.323	26.95
837.496	26.19
837.669	22.65
837.842	24.75
838.015	19.39
838.188	22.92
838.361	33.69
838.533	27.85
838.706	31.25
838.879	27.4
839.052	31.93
839.225	36.14
839.398	39.16
839.57	39.7
839.743	45.25
839.916	53.08
840.088	46.25
840.261	41.26
840.434	42.68
840.607	44.36
840.779	52.78
840.952	49
841.124	46.89
841.297	46.28
841.47	52.32
841.642	48.41
841.815	39.6
841.987	48.01
842.16	48.32
842.332	49.14
842.505	44.78
842.677	35.85
842.85	43.8
843.022	47.76
843.194	41.52
843.367	23.98
843.539	27.39
843.712	37.71
843.884	24.35
844.056	23.64
844.229	19.84
844.401	15.29
844.573	15.54
844.745	13.94
844.918	19.28
845.09	34.78
845.262	50.89
845.434	50.77
845.606	36.75
845.779	41.6
845.951	37.37
846.123	42.7
846.295	40.88
846.467	45.44
846.639	40.57
846.811	37.7
846.983	35.27
847.155	22.87
847.327	28.98
847.499	31.12
847.671	20.54
847.843	25.52
848.015	21.85
848.187	27.59
848.359	9.96
848.531	6.05
848.703	16.28
848.875	-9.12
849.047	-9.4
849.218	-7.2
849.39	-14.13
849.562	6.42
849.734	5.73
849.905	-1.53
850.077	3.73
850.249	35.41
850.421	17.98
850.592	-1.79
850.764	16.66
850.936	25.72
851.107	44.46
851.279	28.39
851.451	36.08
851.622	63.89
851.794	80.49
851.965	44.31
852.137	5.33
852.308	57.89
852.48	52.6
852.651	44.45
852.823	41.39
852.994	24.08
853.166	25.63
853.337	20.05
853.509	7.55
853.68	-19.41
853.851	19.28
854.023	39.03
854.194	16.97
854.365	-1.6
854.537	21.9
854.708	25.61
854.879	41.23
855.05	35.61
855.222	24.15
855.393	17.21
855.564	20.27
855.735	3.79
855.906	2.56
856.078	4.21
856.249	17.81
856.42	18.84
856.591	18.77
856.762	11.12
856.933	15.57
857.104	33.99
857.275	40.06
857.446	42.88
857.617	58.92
857.788	49.28
857.959	41.97
858.13	49.16
858.301	33.32
858.472	32.63
858.643	19.39
858.814	13.11
858.985	9.29
859.155	2.87
859.326	-1.83
859.497	-9.84
859.668	-20.17
859.839	-28.13
860.009	-54.97
860.18	-34.58
860.351	-28.92
860.522	-11.95
860.692	-2.81
860.863	-17.45
861.034	-5.44
861.204	-34.54
861.375	-56.11
861.546	-6.65
861.716	-19.04
861.887	-9.88
862.057	18.47
862.228	31.1
862.398	29.42
862.569	44.74
862.739	31.71
862.91	34.26
863.08	38.88
863.251	46.07
863.421	53.63
863.592	59.61
863.762	54.44
863.932	41.68
864.103	31.77
864.273	19.12
864.443	-21.47
864.614	-10.84
864.784	-5.85
864.954	-5
865.125	-34.28
865.295	-35.44
865.465	-45.67
865.635	-34.65
865.805	-15.38
865.976	-1.65
866.146	21.11
866.316	32.3
866.486	27.79
866.656	10.65
866.826	-2.54
866.996	16.04
867.166	-6.42
867.336	6.17
867.506	7.83
867.676	-34.16
867.846	-60.96
868.016	-104.14
868.186	-122.67
868.356	-121.9
868.526	-165.98
868.696	-137.44
868.866	-385.24
869.036	-94.65
869.206	-86.69
869.376	-100.45
869.545	-21.01
869.715	-7.44
869.885	27.89
870.055	31.48
870.224	64.69
870.394	75.52
870.564	84.35
870.734	66.73
870.903	63.28
871.073	75.8
871.243	58.31
871.412	61.37
871.582	57.69
871.751	41.4
871.921	24.69
872.091	18.99
872.26	-3.32
872.43	-4.85
872.599	11.85
872.769	22.33
872.938	14.16
873.108	12.53
873.277	5.38
873.446	-0.87
873.616	14.46
873.785	24.01
873.955	25.33
874.124	29.11
874.293	28.37
874.463	22.7
874.632	23.6
874.801	22.13
874.971	24.2
875.14	-7.28
875.309	-2.85
875.478	-22.79
875.647	-30.36
875.817	-23.21
875.986	-13.14
876.155	-8.99
876.324	-8.82
876.493	-22.43
876.662	-17.86
876.831	-20.85
877	8.68
877.17	13.69
877.339	22.25
877.508	36.34
877.677	28.02
877.846	28.29
878.015	22.45
878.184	15.08
878.352	9.14
878.521	-11.1
878.69	-1.26
878.859	11.13
879.028	8.52
879.197	-0.18
879.366	-7.46
879.534	-3.17
879.703	9.76
879.872	13.02
880.041	19.38
880.21	21.72
880.378	25.85
880.547	30.11
880.716	27.56
880.884	28.78
881.053	32.15
881.222	30.64
881.39	31.51
881.559	29.93
881.727	32.98
881.896	33.36
882.065	37.08
882.233	38.2
882.402	37.74
882.57	37.58
882.739	36.53
882.907	37.17
883.076	37.51
883.244	38.03
883.412	37.91
883.581	37.6
883.749	39.3
883.918	37.84
884.086	36.94
884.254	34.24
884.423	32.98
884.591	36.95
884.759	31.25
884.927	28.84
885.096	30.33
885.264	24.78
885.432	20.83
885.6	16.35
885.769	8.43
885.937	12.93
886.105	13.82
886.273	9.57
886.441	1.91
886.609	-6.51
886.777	-1.91
886.945	-8.02
887.113	-6.6
887.281	-56.13
887.449	-31.87
887.617	-1.87
887.785	1.63
887.953	0.5
888.121	-21.47
888.289	-36.68
888.457	-27.2
888.625	-16.26
888.793	-33.82
888.961	-16.41
889.129	21.16
889.296	26.87
889.464	17.52
889.632	13.42
889.8	17.42
889.967	38.89
890.135	35.96
