Data from 2937828_Reflection_1.txt Node
Date: Wed Jul 15 16:56:00 EDT 2015
User: robert
Spectrometer: USB4E03001
Autoset integration time: false
Trigger mode: 4
Integration Time (sec): 1.000000E-1
Scans to average: 10
Electric dark correction enabled: true
Nonlinearity correction enabled: false
Boxcar width: 5
Stray light correction enabled: false
XAxis mode: Wavelengths
Stop averaging: false
Number of Pixels in Spectrum: 3648
>>>>>Begin Spectral Data<<<<<
177.566	149.4
177.785	130.19
178.005	206.71
178.225	214.29
178.445	-4150
178.665	55.27
178.885	-361.08
179.105	-33.33
179.324	-245.75
179.544	239.12
179.764	244.03
179.984	367.25
180.204	39.63
180.423	47.1
180.643	-36.41
180.863	115.25
181.083	85.96
181.302	33.43
181.522	207.02
181.742	62.81
181.961	112.73
182.181	90.97
182.401	97.14
182.621	169.58
182.84	214.64
183.06	420.42
183.279	360.65
183.499	332.53
183.719	336.79
183.938	379.87
184.158	-13636.23
184.377	-597.57
184.597	-197.38
184.816	-131.38
185.036	-430.83
185.256	-300.73
185.475	-353.21
185.695	637.16
185.914	2676.5
186.134	384.58
186.353	169.87
186.572	115.32
186.792	116.97
187.011	93.39
187.231	105.26
187.45	107.23
187.67	124.43
187.889	129.88
188.108	144.93
188.328	182.27
188.547	280.61
188.766	270.1
188.986	300.86
189.205	523.25
189.424	692.2
189.644	2789.87
189.863	-67964.71
190.082	1108.45
190.302	785.62
190.521	1387.58
190.74	5925
190.959	476.84
191.178	-325.03
191.398	-187.8
191.617	272.05
191.836	154.52
192.055	135.34
192.274	225.26
192.494	301.78
192.713	-9.22
192.932	198.79
193.151	260.15
193.37	194.22
193.589	146.93
193.808	113.84
194.027	216.24
194.246	-167.24
194.465	-95.07
194.685	-216.37
194.904	-203.86
195.123	-341.34
195.342	-279.41
195.561	-266.62
195.78	-257.03
195.999	-767.21
196.218	-280.38
196.436	-204.48
196.655	1797.74
196.874	357.74
197.093	210.83
197.312	215.98
197.531	371.62
197.75	250.76
197.969	146.25
198.188	29.4
198.407	-22.72
198.625	79.8
198.844	58.87
199.063	-361.14
199.282	-54.04
199.501	-107.46
199.719	-98.26
199.938	-141.75
200.157	-288.54
200.376	-119.16
200.594	-277.89
200.813	-229.37
201.032	-139.53
201.251	-108.88
201.469	-18.84
201.688	6.42
201.907	5.94
202.125	79.04
202.344	46.02
202.563	44.97
202.781	-14.17
203	-104.56
203.218	-76.99
203.437	-110.22
203.656	-304.65
203.874	1163.23
204.093	870.09
204.311	-349.59
204.53	-814.83
204.748	70.76
204.967	55.6
205.185	100.92
205.404	166.29
205.622	118.07
205.841	234.39
206.059	142.3
206.278	55.06
206.496	-84.87
206.715	-754.71
206.933	-1398.52
207.151	-300.4
207.37	-194.52
207.588	-65.18
207.806	-224.63
208.025	-238.68
208.243	-372.42
208.461	-444.23
208.68	-575.55
208.898	-298.24
209.116	-137.03
209.335	-70.3
209.553	-12.06
209.771	-4.17
209.989	-572.74
210.208	1757.52
210.426	-139.92
210.644	6.67
210.862	33
211.081	33.73
211.299	20.08
211.517	36.45
211.735	16.11
211.953	38.9
212.171	-4.86
212.39	-12.88
212.608	-31.55
212.826	-26.45
213.044	-64.56
213.262	-92.09
213.48	-210.35
213.698	-284.32
213.916	-162.37
214.134	-560.75
214.352	458.73
214.57	314.23
214.788	317.24
215.006	180.61
215.224	190.24
215.442	218.97
215.66	240.5
215.878	789.46
216.096	-1003.06
216.314	1451.89
216.532	1495.34
216.75	-250.94
216.968	-475.86
217.185	-196.88
217.403	-54.64
217.621	-151.88
217.839	-276.44
218.057	1370.51
218.275	207.01
218.492	92.01
218.71	52.42
218.928	39.78
219.146	-60.04
219.363	-166.37
219.581	-1167.51
219.799	-4817.69
220.017	-304.35
220.234	-441.27
220.452	-150.25
220.67	-203.16
220.887	-127.66
221.105	-387.68
221.323	-202.39
221.54	-275.3
221.758	-171.65
221.976	-53.03
222.193	-19.64
222.411	-57.29
222.629	-27.42
222.846	-52.61
223.064	-36.15
223.281	-49.91
223.499	-18.47
223.716	-20.3
223.934	-80.52
224.151	-96.11
224.369	-125.23
224.586	-58.62
224.804	14.37
225.021	35.05
225.239	20.46
225.456	50.73
225.674	52.02
225.891	80.26
226.108	56.54
226.326	77.11
226.543	68.37
226.76	59.91
226.978	42.22
227.195	34.31
227.413	20.06
227.63	9.11
227.847	0.24
228.064	10.67
228.282	10.13
228.499	7.64
228.716	8.81
228.934	11.99
229.151	10.68
229.368	7.36
229.585	3.84
229.802	4.63
230.02	10.25
230.237	8.01
230.454	3.91
230.671	5.12
230.888	6.51
231.105	5.12
231.323	2.98
231.54	4.38
231.757	3.69
231.974	9.91
232.191	7.45
232.408	8.18
232.625	16.77
232.842	17.98
233.059	21.18
233.276	13.12
233.493	7.78
233.71	5.66
233.927	6.03
234.144	2.33
234.361	-10.89
234.578	-9.05
234.795	-13.6
235.012	-16.95
235.229	-14.71
235.446	-9.66
235.663	3.03
235.879	5.77
236.096	12.87
236.313	7.78
236.53	15.47
236.747	21.35
236.964	22.89
237.181	21.65
237.397	21.19
237.614	19.99
237.831	7.89
238.048	6.49
238.264	2.54
238.481	-1.66
238.698	-4.69
238.915	-10.48
239.131	-7.22
239.348	-10.69
239.565	-3.96
239.781	0.77
239.998	-0.93
240.215	-3.27
240.431	-3.04
240.648	0.79
240.865	2.24
241.081	3.1
241.298	7.48
241.514	5.59
241.731	10.94
241.947	9.15
242.164	6.23
242.38	8.91
242.597	11.16
242.814	12.74
243.03	13.71
243.246	13.23
243.463	13.82
243.679	13.34
243.896	13.52
244.112	11.05
244.329	11.48
244.545	12.33
244.762	11.47
244.978	10.93
245.194	9
245.411	5.85
245.627	5.86
245.843	6.53
246.06	5.42
246.276	6.47
246.492	7.11
246.709	7.4
246.925	8.85
247.141	9.04
247.357	9.64
247.574	9.89
247.79	9.94
248.006	9.21
248.222	8.79
248.439	9.75
248.655	9.08
248.871	10.43
249.087	9.97
249.303	10.03
249.519	8.69
249.736	7.74
249.952	6.67
250.168	6.32
250.384	8.83
250.6	10.16
250.816	9.47
251.032	9.47
251.248	7.76
251.464	9.17
251.68	6.04
251.896	6.53
252.112	6.31
252.328	8.06
252.544	7.25
252.76	6.88
252.976	6.65
253.192	3.75
253.408	5.86
253.624	4.96
253.84	1.15
254.056	2.08
254.272	5.81
254.487	1.84
254.703	-1.46
254.919	-0.78
255.135	-0.42
255.351	-1.91
255.567	2.81
255.782	0.45
255.998	-0.35
256.214	4.76
256.43	0.27
256.646	-4.59
256.861	-2.14
257.077	0.72
257.293	1.75
257.508	-1.39
257.724	0.52
257.94	-1.61
258.155	-2.78
258.371	-0.89
258.587	-0.3
258.802	1.66
259.018	4.47
259.234	7.37
259.449	7.06
259.665	7.82
259.88	9.35
260.096	10.04
260.312	11.72
260.527	11.91
260.743	12.31
260.958	11.81
261.174	12.04
261.389	10.95
261.605	9.24
261.82	8.91
262.036	8.67
262.251	6.32
262.466	4.33
262.682	2.12
262.897	2.72
263.113	-1.41
263.328	-1.66
263.543	-0.17
263.759	0.55
263.974	3.13
264.189	3.89
264.405	4.71
264.62	4.77
264.835	3.68
265.051	1.66
265.266	2.52
265.481	5.08
265.696	6.98
265.912	4.55
266.127	2.18
266.342	-1
266.557	-2.58
266.773	-4.69
266.988	-1.19
267.203	0.6
267.418	2.05
267.633	0.71
267.848	0.2
268.064	-0.26
268.279	-0.07
268.494	0.34
268.709	2.35
268.924	5.67
269.139	4.61
269.354	2.47
269.569	1.75
269.784	2.4
269.999	2.82
270.214	3.4
270.429	3.04
270.644	3.01
270.859	3.84
271.074	3.69
271.289	2.12
271.504	5.32
271.719	6.78
271.934	5.62
272.149	5.92
272.363	4.97
272.578	5.42
272.793	6.39
273.008	6.25
273.223	6.64
273.438	6.49
273.653	5.25
273.867	4.76
274.082	3.54
274.297	4.48
274.512	4.04
274.726	4.46
274.941	3.68
275.156	2.07
275.371	2.12
275.585	3.68
275.8	4.84
276.015	6.53
276.229	5.34
276.444	6.96
276.659	5.3
276.873	5.76
277.088	7.44
277.302	7.85
277.517	6.84
277.732	7.84
277.946	5.08
278.161	4.36
278.375	3.84
278.59	4.1
278.804	2.5
279.019	3.75
279.233	2.45
279.448	0.93
279.662	1.04
279.877	1.73
280.091	-0.44
280.306	2.26
280.52	1.82
280.735	3.08
280.949	4.57
281.163	4.73
281.378	6.58
281.592	7.17
281.806	6.71
282.021	6.51
282.235	8.68
282.449	9.87
282.664	8.58
282.878	8.96
283.092	8.98
283.307	8.11
283.521	8.47
283.735	7.13
283.949	5.32
284.164	5.15
284.378	4.69
284.592	3.27
284.806	1.97
285.02	2.71
285.234	2.05
285.449	2
285.663	2.87
285.877	3.24
286.091	3.39
286.305	3.59
286.519	3.9
286.733	4.31
286.947	5.33
287.161	6.62
287.375	6.93
287.589	8.44
287.803	8.38
288.017	8.32
288.231	6.52
288.445	6.87
288.659	7.17
288.873	8.57
289.087	7.33
289.301	6.84
289.515	7.63
289.729	6.02
289.943	4.55
290.157	4.95
290.371	2.43
290.584	3.63
290.798	2.99
291.012	4.45
291.226	4.51
291.44	5.87
291.654	3.13
291.867	2.99
292.081	2.27
292.295	3.33
292.509	2.24
292.722	3.89
292.936	2.92
293.15	4.66
293.364	1.41
293.577	-0.26
293.791	-0.94
294.005	-0.76
294.218	-1.29
294.432	2.32
294.645	0.68
294.859	1.97
295.073	1.79
295.286	2.56
295.5	2.8
295.713	6.92
295.927	7.06
296.14	7.86
296.354	10.08
296.568	11.57
296.781	11.5
296.994	13.05
297.208	12.2
297.421	12.6
297.635	13.3
297.848	12.57
298.062	11.9
298.275	12.02
298.489	11.61
298.702	11.45
298.915	9.83
299.129	8.07
299.342	8.02
299.555	8.27
299.769	8.66
299.982	8.61
300.195	7.41
300.409	8.17
300.622	7.64
300.835	8.21
301.048	8.26
301.262	9.99
301.475	10.4
301.688	9.21
301.901	8.94
302.115	8.36
302.328	8.77
302.541	10.74
302.754	10.28
302.967	12
303.18	11.15
303.393	11.05
303.607	8.93
303.82	10.58
304.033	9.96
304.246	9.83
304.459	9.7
304.672	7.4
304.885	8.02
305.098	8.65
305.311	7.77
305.524	7.94
305.737	6.56
305.95	8.46
306.163	6.77
306.376	8.56
306.589	7.57
306.802	8.04
307.015	9.92
307.228	7.01
307.44	6.55
307.653	5.92
307.866	6.92
308.079	7.49
308.292	5.77
308.505	7.77
308.718	6.19
308.93	8.26
309.143	8.9
309.356	8.88
309.569	10.67
309.781	9.85
309.994	10.32
310.207	11.13
310.42	11.71
310.632	12.63
310.845	11.98
311.058	12.87
311.27	11.68
311.483	10.05
311.696	9.62
311.908	9.59
312.121	9.57
312.333	8.28
312.546	7.47
312.759	6.61
312.971	6.39
313.184	6.03
313.396	5.79
313.609	5.01
313.821	7.41
314.034	6.57
314.246	7.05
314.459	6.43
314.671	7.38
314.884	7.08
315.096	8.36
315.309	8.11
315.521	8.42
315.733	5.9
315.946	6.64
316.158	5.31
316.371	7.13
316.583	6.26
316.795	4.85
317.008	6.41
317.22	5.8
317.432	7.47
317.644	6.32
317.857	5.27
318.069	7.47
318.281	10.08
318.494	9.41
318.706	8.14
318.918	7.96
319.13	11.11
319.342	11.27
319.555	12.04
319.767	8.43
319.979	8.31
320.191	8.82
320.403	8.32
320.615	4.23
320.827	4.6
321.039	6.16
321.252	7.1
321.464	5.05
321.676	4.18
321.888	4.75
322.1	5.32
322.312	7.23
322.524	6.84
322.736	8.39
322.948	10.76
323.16	12.17
323.372	9.94
323.584	9.67
323.796	10.59
324.007	10.74
324.219	10.04
324.431	11.55
324.643	11.56
324.855	11.93
325.067	10.69
325.279	9.51
325.491	7.82
325.702	10.6
325.914	9.58
326.126	9.15
326.338	9.08
326.55	9.97
326.761	9.71
326.973	10.56
327.185	11.72
327.396	12.45
327.608	14.25
327.82	14.58
328.032	12.71
328.243	13.07
328.455	13.32
328.666	13.29
328.878	13.53
329.09	13.34
329.301	11.33
329.513	9.43
329.725	9.28
329.936	9.21
330.148	10.59
330.359	9.88
330.571	11.65
330.782	11.1
330.994	12.67
331.205	12.19
331.417	11.99
331.628	13.63
331.84	14.95
332.051	15
332.262	13.22
332.474	10.43
332.685	12.13
332.897	11.07
333.108	11.73
333.319	12.94
333.531	10.84
333.742	9.62
333.953	9.68
334.165	10.3
334.376	9.81
334.587	12.74
334.799	13.58
335.01	13.47
335.221	13.77
335.432	13.98
335.644	11.77
335.855	12.97
336.066	13.88
336.277	13.3
336.488	13.1
336.7	15.11
336.911	14.05
337.122	14.08
337.333	14.79
337.544	15.37
337.755	15.94
337.966	16.76
338.177	17.44
338.388	17.27
338.599	17.22
338.811	16.18
339.022	13.82
339.233	14.11
339.444	15.47
339.655	14.48
339.866	14.14
340.076	14.11
340.287	12.51
340.498	11.25
340.709	12.8
340.92	12.3
341.131	14.52
341.342	15.55
341.553	16.64
341.764	15.85
341.975	16.44
342.185	16.94
342.396	16.21
342.607	17.54
342.818	17.44
343.029	17.54
343.239	19.11
343.45	16.65
343.661	15.64
343.872	14.44
344.082	14.46
344.293	14.56
344.504	13.94
344.714	14.45
344.925	13.62
345.136	15.16
345.346	14.15
345.557	14.2
345.768	14.88
345.978	16.17
346.189	15.38
346.399	15.06
346.61	15.63
346.821	16.64
347.031	16.35
347.242	17.64
347.452	16.27
347.663	16.55
347.873	16.84
348.084	16.89
348.294	17.13
348.504	17.95
348.715	18.1
348.925	16.92
349.136	15.02
349.346	14.69
349.557	13.37
349.767	14.84
349.977	13.93
350.188	11.73
350.398	11.06
350.608	10.78
350.819	9.54
351.029	10.81
351.239	11.44
351.449	12.71
351.66	12.63
351.87	13.59
352.08	13.37
352.29	15.22
352.501	16.92
352.711	17.29
352.921	16.51
353.131	17.63
353.341	16.1
353.552	14.97
353.762	14.65
353.972	15.58
354.182	15.23
354.392	15.55
354.602	14.74
354.812	15.37
355.022	15.24
355.232	15.7
355.442	14.8
355.652	14.91
355.862	15.18
356.072	15.24
356.282	14.54
356.492	15.07
356.702	14.26
356.912	13.94
357.122	11.95
357.332	11.95
357.542	12.43
357.752	13.57
357.962	13.49
358.171	12.76
358.381	12.28
358.591	11.99
358.801	11.14
359.011	11.43
359.221	12.5
359.43	12.79
359.64	13.1
359.85	11.96
360.06	12.38
360.269	12.46
360.479	13.48
360.689	13.95
360.899	14.37
361.108	14.99
361.318	15.42
361.528	15.19
361.737	16.22
361.947	16.85
362.156	17.39
362.366	16.36
362.576	15.56
362.785	15.4
362.995	15.81
363.204	15.67
363.414	15.78
363.623	15.38
363.833	14.91
364.042	14.86
364.252	13.42
364.461	13.51
364.671	14.14
364.88	14.66
365.09	14.72
365.299	14.85
365.509	15.38
365.718	15.45
365.927	15.13
366.137	15.57
366.346	14.84
366.555	15.14
366.765	14.69
366.974	15.17
367.183	16.35
367.393	16.31
367.602	15.07
367.811	14.26
368.021	13.26
368.23	13.45
368.439	12.82
368.648	12.41
368.857	13.02
369.067	13.46
369.276	11.94
369.485	11.45
369.694	10.71
369.903	10.41
370.112	10.93
370.321	11.33
370.531	11.49
370.74	10.88
370.949	12.4
371.158	13.17
371.367	12.08
371.576	11.84
371.785	12.1
371.994	13.48
372.203	13.41
372.412	14.11
372.621	14.9
372.83	14.61
373.039	15.39
373.248	14.53
373.457	13.54
373.666	14.11
373.874	14
374.083	13.58
374.292	12.26
374.501	12.38
374.71	10.98
374.919	9.77
375.128	9.42
375.336	9.8
375.545	8.89
375.754	8.62
375.963	8.42
376.171	8.88
376.38	9.44
376.589	10.12
376.798	10.91
377.006	12.3
377.215	12.13
377.424	12.84
377.632	12.78
377.841	13.1
378.05	13.45
378.258	13.93
378.467	14.1
378.675	13.93
378.884	14.38
379.093	14.21
379.301	13.41
379.51	14.42
379.718	13.89
379.927	13.89
380.135	14.29
380.344	13.85
380.552	13.8
380.761	14.31
380.969	14.44
381.177	13.46
381.386	12.7
381.594	12.4
381.803	12.08
382.011	11.86
382.219	11.73
382.428	11.23
382.636	10.88
382.845	9.91
383.053	9.75
383.261	9.59
383.469	9.82
383.678	9.93
383.886	10.47
384.094	10.75
384.302	11.25
384.511	11.22
384.719	11.07
384.927	11.24
385.135	12.1
385.343	11.76
385.552	11.08
385.76	10.8
385.968	11.41
386.176	11.14
386.384	10.97
386.592	10.69
386.8	10.36
387.008	10.81
387.216	10.1
387.424	9.86
387.633	9.89
387.841	9.68
388.049	9.8
388.257	9.4
388.465	9.58
388.672	9.57
388.88	9.78
389.088	9.69
389.296	9.57
389.504	10.8
389.712	10.77
389.92	10.78
390.128	10.96
390.336	11
390.544	10.87
390.751	10.75
390.959	10.33
391.167	9.92
391.375	10.4
391.583	10.33
391.79	9.76
391.998	9.71
392.206	9.23
392.414	9.27
392.621	9.62
392.829	9.59
393.037	9.89
393.244	10.04
393.452	10.06
393.66	9.46
393.867	9.49
394.075	10.09
394.283	9.74
394.49	10.05
394.698	10.13
394.905	9.96
395.113	10.16
395.32	9.64
395.528	9.62
395.735	9.46
395.943	9.43
396.15	9.42
396.358	8.93
396.565	9.03
396.773	8.84
396.98	8.53
397.188	8.03
397.395	8.08
397.602	8
397.81	7.53
398.017	7.77
398.225	7.72
398.432	7.82
398.639	7.47
398.847	7.18
399.054	7.06
399.261	7.46
399.468	7.92
399.676	7.91
399.883	8.04
400.09	8.41
400.297	8.6
400.505	8.99
400.712	8.92
400.919	9.3
401.126	10.38
401.333	10.5
401.54	10.14
401.748	10.3
401.955	10.16
402.162	10.19
402.369	10.01
402.576	10.18
402.783	9.99
402.99	10.16
403.197	9.9
403.404	9.85
403.611	10.23
403.818	10.57
404.025	10.14
404.232	10.08
404.439	9.97
404.646	9.84
404.853	9.9
405.06	9.5
405.267	9.09
405.474	9.29
405.681	8.65
405.887	8.62
406.094	8.88
406.301	8.86
406.508	8.73
406.715	8.58
406.922	9.12
407.128	8.88
407.335	9.55
407.542	9.31
407.749	8.77
407.955	8.82
408.162	8.54
408.369	8.07
408.575	8.29
408.782	8.31
408.989	8.23
409.195	7.81
409.402	7.73
409.609	7.39
409.815	7.78
410.022	8.13
410.228	8.29
410.435	8.15
410.642	8.5
410.848	8.44
411.055	8.49
411.261	8.27
411.468	8.1
411.674	8.01
411.881	8.41
412.087	8.42
412.294	8.43
412.5	8.33
412.706	8.4
412.913	8.16
413.119	8.3
413.326	8.59
413.532	8.85
413.738	8.97
413.945	9.03
414.151	8.81
414.357	8.56
414.564	8.56
414.77	8.75
414.976	9.12
415.182	8.9
415.389	8.51
415.595	8.45
415.801	8.23
416.007	8.34
416.214	8.36
416.42	8.08
416.626	8.25
416.832	8.48
417.038	8.58
417.244	8.47
417.45	8.67
417.657	8.65
417.863	8.67
418.069	9.01
418.275	9.16
418.481	9.12
418.687	9.2
418.893	9.28
419.099	9.22
419.305	9.32
419.511	9.47
419.717	9.43
419.923	9.46
420.129	9.37
420.335	9.4
420.541	9.29
420.746	9.12
420.952	9.25
421.158	9.21
421.364	9.24
421.57	8.87
421.776	8.74
421.982	8.81
422.187	9.05
422.393	9.23
422.599	8.98
422.805	8.98
423.01	9
423.216	8.92
423.422	8.92
423.628	8.92
423.833	8.97
424.039	8.85
424.245	8.88
424.45	8.68
424.656	8.54
424.862	8.74
425.067	8.63
425.273	8.81
425.478	8.83
425.684	8.85
425.889	8.7
426.095	8.92
426.301	9.03
426.506	8.95
426.712	9.13
426.917	8.96
427.123	8.94
427.328	8.92
427.533	8.98
427.739	8.85
427.944	8.69
428.15	8.97
428.355	9.01
428.561	8.93
428.766	9.17
428.971	8.75
429.177	8.96
429.382	8.97
429.587	9.17
429.793	8.95
429.998	8.96
430.203	9.01
430.408	8.94
430.614	8.88
430.819	8.99
431.024	8.47
431.229	8.7
431.434	8.65
431.64	8.71
431.845	8.79
432.05	8.93
432.255	8.98
432.46	8.9
432.665	8.64
432.87	8.52
433.076	8.34
433.281	8.54
433.486	8.69
433.691	8.59
433.896	8.26
434.101	8.29
434.306	8.06
434.511	8.25
434.716	8.43
434.921	8.49
435.126	8.51
435.331	8.61
435.535	8.46
435.74	8.44
435.945	8.53
436.15	8.75
436.355	8.85
436.56	8.9
436.765	8.5
436.97	8.43
437.174	8.65
437.379	8.61
437.584	8.59
437.789	8.65
437.993	8.55
438.198	8.33
438.403	8.48
438.608	8.02
438.812	8.03
439.017	8.22
439.222	8.39
439.426	8.31
439.631	8.32
439.836	8.35
440.04	8.49
440.245	8.45
440.45	8.62
440.654	8.76
440.859	8.83
441.063	8.82
441.268	8.88
441.472	8.79
441.677	8.73
441.881	8.71
442.086	8.67
442.29	8.68
442.495	8.55
442.699	8.73
442.904	8.3
443.108	8.37
443.312	8.52
443.517	8.32
443.721	8.14
443.925	8.21
444.13	8.26
444.334	8.27
444.538	8.22
444.743	8.5
444.947	8.41
445.151	8.52
445.356	8.66
445.56	8.55
445.764	8.68
445.968	8.8
446.173	8.66
446.377	8.62
446.581	8.51
446.785	8.48
446.989	8.52
447.193	8.57
447.398	8.68
447.602	8.66
447.806	8.64
448.01	8.6
448.214	8.44
448.418	8.58
448.622	8.55
448.826	8.54
449.03	8.48
449.234	8.26
449.438	7.92
449.642	7.68
449.846	7.77
450.05	7.8
450.254	7.78
450.458	7.84
450.662	7.62
450.866	7.8
451.069	7.9
451.273	7.9
451.477	7.96
451.681	8.13
451.885	8.25
452.089	8.13
452.292	8.03
452.496	8.18
452.7	8.36
452.904	8.6
453.107	8.4
453.311	8.68
453.515	8.82
453.719	8.79
453.922	8.87
454.126	8.71
454.33	8.6
454.533	8.71
454.737	8.37
454.94	8.35
455.144	8.18
455.348	8.42
455.551	8.15
455.755	7.86
455.958	7.82
456.162	7.57
456.365	7.61
456.569	7.9
456.772	7.94
456.976	8.09
457.179	7.92
457.383	8.06
457.586	8.05
457.79	8.3
457.993	8.25
458.196	8.35
458.4	8.56
458.603	8.69
458.807	8.41
459.01	8.28
459.213	8.29
459.417	8.32
459.62	8.34
459.823	8.33
460.026	8.33
460.23	8.37
460.433	8.41
460.636	8.35
460.839	8.37
461.042	8.6
461.246	8.5
461.449	8.27
461.652	8.27
461.855	8.14
462.058	7.9
462.261	7.8
462.464	7.91
462.668	7.71
462.871	7.73
463.074	7.57
463.277	7.32
463.48	7.4
463.683	7.81
463.886	7.89
464.089	7.79
464.292	7.84
464.495	7.6
464.698	7.72
464.901	8.19
465.104	8.07
465.306	8.18
465.509	7.97
465.712	8.11
465.915	7.9
466.118	7.91
466.321	7.97
466.524	8.27
466.726	8.34
466.929	8.13
467.132	7.86
467.335	7.95
467.538	7.86
467.74	8.13
467.943	8.02
468.146	8.19
468.348	8.23
468.551	8.21
468.754	7.9
468.956	7.89
469.159	8.01
469.362	7.98
469.564	7.88
469.767	7.86
469.969	7.69
470.172	7.8
470.375	7.68
470.577	7.44
470.78	7.5
470.982	7.74
471.185	7.85
471.387	7.91
471.59	7.9
471.792	8.23
471.995	8.42
472.197	8.56
472.399	8.52
472.602	8.72
472.804	9.18
473.007	9.18
473.209	8.94
473.411	8.86
473.614	8.65
473.816	8.78
474.018	8.66
474.22	8.34
474.423	8.29
474.625	8.43
474.827	8.25
475.03	7.9
475.232	8.14
475.434	8.15
475.636	8.24
475.838	8.26
476.04	8.07
476.243	8.12
476.445	8.4
476.647	8.43
476.849	8.45
477.051	8.65
477.253	8.57
477.455	8.33
477.657	8.22
477.859	8.15
478.061	8.41
478.263	8.44
478.465	8.24
478.667	8.09
478.869	7.82
479.071	7.61
479.273	7.49
479.475	7.69
479.677	7.63
479.879	7.83
480.081	7.76
480.283	7.55
480.485	7.49
480.686	7.59
480.888	7.71
481.09	7.93
481.292	8.1
481.494	7.99
481.695	7.88
481.897	8.01
482.099	8.21
482.301	8.25
482.502	8.31
482.704	8.42
482.906	8.46
483.107	8.57
483.309	8.7
483.511	8.65
483.712	8.78
483.914	8.87
484.115	8.91
484.317	8.89
484.519	8.94
484.72	8.9
484.922	8.9
485.123	8.88
485.325	8.81
485.526	8.65
485.728	8.67
485.929	8.6
486.131	8.58
486.332	8.53
486.534	8.49
486.735	8.48
486.936	8.46
487.138	8.42
487.339	8.51
487.541	8.55
487.742	8.68
487.943	8.75
488.144	8.74
488.346	8.75
488.547	8.72
488.748	8.66
488.95	8.65
489.151	8.69
489.352	8.64
489.553	8.52
489.755	8.37
489.956	8.34
490.157	8.18
490.358	8.17
490.559	8.03
490.76	8
490.961	8.05
491.163	8.09
491.364	8.1
491.565	8.2
491.766	8.21
491.967	8.31
492.168	8.26
492.369	8.34
492.57	8.31
492.771	8.32
492.972	8.31
493.173	8.29
493.374	8.13
493.575	8.16
493.776	8.09
493.976	8.07
494.177	8.07
494.378	7.93
494.579	7.77
494.78	7.81
494.981	7.85
495.182	7.93
495.382	7.81
495.583	7.89
495.784	7.89
495.985	7.87
496.185	7.75
496.386	7.59
496.587	7.93
496.788	8.12
496.988	8
497.189	7.97
497.39	7.98
497.59	7.89
497.791	8.02
497.992	8.02
498.192	8.09
498.393	8.13
498.593	8.17
498.794	7.99
498.994	7.92
499.195	7.98
499.395	8.05
499.596	8.13
499.796	8.46
499.997	8.31
500.197	8.36
500.398	8.18
500.598	8.34
500.799	8.46
500.999	8.51
501.199	8.57
501.4	8.65
501.6	8.45
501.801	8.33
502.001	8.27
502.201	8.28
502.402	8.11
502.602	8.37
502.802	8.43
503.002	8.39
503.203	8.43
503.403	8.32
503.603	8.19
503.803	8.43
504.003	8.49
504.204	8.52
504.404	8.69
504.604	8.9
504.804	8.92
505.004	8.88
505.204	8.86
505.404	8.62
505.604	8.68
505.804	8.85
506.005	8.72
506.205	8.65
506.405	8.61
506.605	8.77
506.805	8.87
507.005	8.81
507.204	8.75
507.404	8.73
507.604	9
507.804	9.15
508.004	9.11
508.204	9.25
508.404	9.38
508.604	9.37
508.804	9.31
509.003	9.12
509.203	9.29
509.403	9.35
509.603	9.63
509.803	9.74
510.002	9.96
510.202	10.05
510.402	10.2
510.602	10.05
510.801	10.09
511.001	10.15
511.201	10.43
511.4	10.41
511.6	10.37
511.8	10.25
511.999	10.31
512.199	10.06
512.398	10
512.598	9.95
512.797	10.08
512.997	10.1
513.197	9.99
513.396	9.86
513.596	9.85
513.795	9.79
513.994	9.84
514.194	9.92
514.393	9.92
514.593	10.09
514.792	10.23
514.992	10.27
515.191	10.51
515.39	10.53
515.59	10.64
515.789	10.69
515.988	10.99
516.188	10.97
516.387	10.89
516.586	11.12
516.786	11.23
516.985	11.05
517.184	11.19
517.383	11.17
517.582	11.23
517.782	11.35
517.981	11.54
518.18	11.57
518.379	11.55
518.578	11.63
518.777	11.54
518.976	11.34
519.176	11.51
519.375	11.53
519.574	11.6
519.773	11.7
519.972	11.71
520.171	11.6
520.37	11.56
520.569	11.66
520.768	11.62
520.967	11.6
521.166	11.71
521.365	11.6
521.564	11.62
521.762	11.47
521.961	11.46
522.16	11.45
522.359	11.57
522.558	11.65
522.757	11.69
522.956	11.64
523.154	11.78
523.353	11.92
523.552	12.01
523.751	12.09
523.949	12.29
524.148	12.47
524.347	12.53
524.546	12.54
524.744	12.58
524.943	12.72
525.142	12.81
525.34	12.93
525.539	12.97
525.737	13.13
525.936	13.21
526.135	13.22
526.333	13.11
526.532	13.09
526.73	13.18
526.929	13.31
527.127	13.48
527.326	13.62
527.524	13.77
527.723	13.9
527.921	14.03
528.12	14.18
528.318	14.27
528.516	14.38
528.715	14.45
528.913	14.51
529.112	14.53
529.31	14.54
529.508	14.51
529.707	14.46
529.905	14.47
530.103	14.39
530.301	14.19
530.5	14.22
530.698	14.16
530.896	14.15
531.094	14.12
531.293	14.14
531.491	14.11
531.689	14.18
531.887	14.22
532.085	14.34
532.283	14.44
532.481	14.73
532.68	14.69
532.878	14.89
533.076	15.08
533.274	15.1
533.472	15.12
533.67	15.15
533.868	15.17
534.066	15.21
534.264	15.12
534.462	15.01
534.66	14.96
534.858	14.96
535.056	14.9
535.253	14.79
535.451	14.87
535.649	14.93
535.847	14.99
536.045	15.1
536.243	14.92
536.441	15.18
536.638	15.27
536.836	15.39
537.034	15.53
537.232	15.58
537.43	15.57
537.627	15.5
537.825	15.46
538.023	15.48
538.22	15.5
538.418	15.72
538.616	15.59
538.813	15.55
539.011	15.47
539.209	15.45
539.406	15.58
539.604	15.67
539.801	15.75
539.999	15.8
540.196	15.93
540.394	15.98
540.591	16.07
540.789	16.15
540.986	16.34
541.184	16.44
541.381	16.52
541.579	16.48
541.776	16.53
541.974	16.59
542.171	16.63
542.368	16.56
542.566	16.61
542.763	16.63
542.96	16.61
543.158	16.49
543.355	16.38
543.552	16.25
543.75	16.19
543.947	16.15
544.144	16.11
544.341	16.07
544.539	16.03
544.736	15.98
544.933	16.03
545.13	15.91
545.327	16.11
545.524	16.21
545.722	16.44
545.919	16.46
546.116	16.49
546.313	16.55
546.51	16.8
546.707	16.91
546.904	17
547.101	16.89
547.298	17.06
547.495	16.93
547.692	16.88
547.889	16.8
548.086	16.93
548.283	16.92
548.48	16.99
548.677	16.6
548.874	16.61
549.07	16.54
549.267	16.73
549.464	16.81
549.661	16.93
549.858	16.89
550.055	16.95
550.251	16.89
550.448	17.05
550.645	16.95
550.842	17.05
551.038	17.33
551.235	17.55
551.432	17.33
551.628	17.31
551.825	17.13
552.022	17.33
552.218	17.45
552.415	17.55
552.612	17.69
552.808	17.87
553.005	18.16
553.201	17.91
553.398	17.73
553.594	17.95
553.791	17.88
553.987	18.2
554.184	18.48
554.38	18.28
554.577	18.32
554.773	18.08
554.97	18.2
555.166	18.3
555.362	18.45
555.559	18.55
555.755	18.41
555.952	18.6
556.148	18.78
556.344	18.39
556.541	18.54
556.737	18.68
556.933	18.78
557.129	18.55
557.326	18.53
557.522	18.39
557.718	18.5
557.914	18.8
558.11	18.69
558.307	18.64
558.503	18.86
558.699	18.74
558.895	18.77
559.091	18.75
559.287	19.05
559.483	18.95
559.679	19.3
559.876	19.26
560.072	19.49
560.268	19.77
560.464	19.9
560.66	19.87
560.856	20.33
561.052	20.34
561.247	20.57
561.443	20.37
561.639	20.61
561.835	20.55
562.031	20.58
562.227	20.27
562.423	20.2
562.619	20.16
562.815	20.28
563.01	20.4
563.206	20.35
563.402	20.42
563.598	20.82
563.793	20.86
563.989	20.94
564.185	21.13
564.381	21.1
564.576	21.21
564.772	21.38
564.968	21.55
565.163	21.61
565.359	21.85
565.555	22
565.75	21.97
565.946	21.88
566.141	22.05
566.337	22.09
566.532	22.4
566.728	22.49
566.923	22.51
567.119	22.71
567.314	22.85
567.51	22.71
567.705	22.73
567.901	22.76
568.096	22.96
568.292	22.86
568.487	22.97
568.682	22.96
568.878	22.88
569.073	22.84
569.268	22.8
569.464	22.68
569.659	23.1
569.854	23.08
570.05	23.28
570.245	23.27
570.44	23.52
570.635	23.63
570.831	23.72
571.026	23.97
571.221	24.08
571.416	23.81
571.611	23.77
571.806	23.79
572.002	23.91
572.197	23.8
572.392	24.1
572.587	24.08
572.782	24.2
572.977	24.09
573.172	24.25
573.367	24.19
573.562	24.53
573.757	24.65
573.952	24.58
574.147	24.41
574.342	24.46
574.537	24.45
574.732	24.63
574.927	24.74
575.121	24.89
575.316	24.93
575.511	24.99
575.706	24.95
575.901	24.95
576.096	25
576.29	25.25
576.485	25.29
576.68	25.12
576.875	24.93
577.069	24.54
577.264	24.45
577.459	24.23
577.654	24.27
577.848	24.17
578.043	24.05
578.238	24.16
578.432	24.29
578.627	24.41
578.821	24.55
579.016	24.45
579.21	24.37
579.405	24.39
579.6	24.26
579.794	24.25
579.989	24.3
580.183	24.49
580.378	24.22
580.572	23.98
580.766	23.92
580.961	23.81
581.155	23.73
581.35	23.61
581.544	23.69
581.738	23.85
581.933	23.85
582.127	24.02
582.321	24.04
582.516	24.41
582.71	24.4
582.904	24.22
583.099	24.27
583.293	24.57
583.487	25.11
583.681	25.11
583.875	25.13
584.07	25.2
584.264	25.11
584.458	24.99
584.652	25.09
584.846	25.32
585.04	25.6
585.234	25.67
585.428	25.62
585.623	25.41
585.817	25.47
586.011	25.21
586.205	25.17
586.399	25.08
586.593	25.32
586.787	24.94
586.981	25.06
587.174	25.09
587.368	24.99
587.562	25.18
587.756	25.12
587.95	25.45
588.144	26.08
588.338	26.14
588.532	26.49
588.725	26.32
588.919	26.58
589.113	26.55
589.307	26.53
589.501	26.67
589.694	26.67
589.888	27.21
590.082	27.07
590.275	27
590.469	27.01
590.663	27.14
590.856	27.47
591.05	27.7
591.244	27.67
591.437	27.96
591.631	28
591.824	27.93
592.018	28.04
592.212	28.17
592.405	27.86
592.599	27.97
592.792	27.68
592.986	27.47
593.179	27.01
593.372	26.73
593.566	26.65
593.759	26.84
593.953	26.84
594.146	26.59
594.339	26.73
594.533	27.05
594.726	27.51
594.92	27.58
595.113	27.78
595.306	28.24
595.499	28.61
595.693	28.54
595.886	28.54
596.079	28.88
596.272	28.94
596.466	28.98
596.659	28.99
596.852	28.82
597.045	29.07
597.238	29.16
597.431	29.26
597.624	29.32
597.818	29.4
598.011	29.52
598.204	29.29
598.397	29.38
598.59	29.43
598.783	29.5
598.976	29.23
599.169	29.12
599.362	28.98
599.555	28.6
599.748	28.55
599.941	28.58
600.134	28.44
600.326	28.36
600.519	28.25
600.712	28.3
600.905	28.37
601.098	28.61
601.291	28.65
601.483	28.66
601.676	28.61
601.869	28.68
602.062	28.73
602.255	28.7
602.447	28.71
602.64	28.74
602.833	28.62
603.025	28.9
603.218	28.92
603.411	29.12
603.603	29.2
603.796	29.69
603.989	29.87
604.181	29.88
604.374	30.11
604.566	30.54
604.759	30.62
604.951	30.49
605.144	30.17
605.336	30.28
605.529	30.05
605.721	29.92
605.914	29.49
606.106	29.37
606.299	29.04
606.491	28.73
606.683	28.5
606.876	28.24
607.068	28.45
607.26	28.25
607.453	28.2
607.645	28.31
607.837	28.58
608.03	28.92
608.222	28.92
608.414	29.11
608.606	28.95
608.799	28.89
608.991	28.83
609.183	28.76
609.375	28.84
609.567	28.64
609.759	28.43
609.952	28.03
610.144	27.72
610.336	27.42
610.528	27.24
610.72	27.43
610.912	27
611.104	26.85
611.296	26.59
611.488	26.36
611.68	26.38
611.872	26.16
612.064	26.13
612.256	26.27
612.448	26.21
612.64	26.31
612.832	26.15
613.023	26.53
613.215	26.76
613.407	27.07
613.599	27.25
613.791	27.31
613.983	27.55
614.174	28.03
614.366	27.81
614.558	27.93
614.75	27.95
614.941	28.27
615.133	28.2
615.325	28.33
615.516	28.34
615.708	28.4
615.9	28.21
616.091	28.18
616.283	27.95
616.475	28.15
616.666	28.37
616.858	28.34
617.049	28.04
617.241	28.52
617.432	28.48
617.624	28.5
617.815	28.61
618.007	29.05
618.198	29.14
618.39	29.15
618.581	28.96
618.773	28.91
618.964	29.21
619.155	29.31
619.347	28.77
619.538	28.9
619.729	28.72
619.921	28.91
620.112	28.59
620.303	28.61
620.494	28.64
620.686	28.88
620.877	28.97
621.068	28.79
621.259	28.78
621.451	28.82
621.642	28.97
621.833	29.08
622.024	29.12
622.215	29.17
622.406	29.35
622.597	29.09
622.788	28.96
622.98	28.83
623.171	28.66
623.362	28.88
623.553	29.17
623.744	28.86
623.935	28.91
624.126	28.72
624.317	28.8
624.508	28.91
624.698	29.43
624.889	29.62
625.08	29.58
625.271	29.96
625.462	29.94
625.653	30.28
625.844	30.5
626.034	30.53
626.225	30.8
626.416	31.01
626.607	31.05
626.798	31.14
626.988	31.3
627.179	31.74
627.37	31.79
627.56	31.95
627.751	31.8
627.942	31.82
628.132	31.8
628.323	31.84
628.514	31.58
628.704	31.56
628.895	31.59
629.085	31.4
629.276	30.96
629.466	30.56
629.657	30.45
629.847	30.13
630.038	30.01
630.228	30.01
630.419	29.71
630.609	30.12
630.8	29.85
630.99	29.27
631.181	29.44
631.371	29.67
631.561	30.02
631.752	29.87
631.942	30.22
632.132	30.39
632.323	30.72
632.513	30.69
632.703	30.38
632.893	30.57
633.084	31.14
633.274	30.93
633.464	30.62
633.654	30.59
633.844	30.77
634.034	30.53
634.225	30.62
634.415	30.46
634.605	30.46
634.795	30.73
634.985	30.45
635.175	30.15
635.365	30.3
635.555	30.22
635.745	30.5
635.935	30.38
636.125	30.6
636.315	30.56
636.505	30.32
636.695	30.1
636.885	29.74
637.075	30.04
637.265	30.18
637.455	30.42
637.644	30.64
637.834	30.54
638.024	30.33
638.214	30.35
638.404	30.65
638.593	30.6
638.783	31
638.973	31.04
639.163	31.27
639.352	31.16
639.542	30.93
639.732	31.22
639.921	30.97
640.111	30.93
640.301	30.78
640.49	30.54
640.68	30.41
640.87	30.28
641.059	30.52
641.249	30.48
641.438	30.33
641.628	30.15
641.817	30.25
642.007	30.28
642.196	30.29
642.386	30.42
642.575	30.02
642.764	30.26
642.954	30.46
643.143	30.24
643.333	29.74
643.522	30.16
643.711	30.23
643.901	30.2
644.09	30.1
644.279	30.17
644.469	29.92
644.658	30.09
644.847	30.31
645.036	30.2
645.226	31.08
645.415	31.53
645.604	31.4
645.793	30.96
645.982	30.91
646.171	30.85
646.361	31.26
646.55	31.73
646.739	31.63
646.928	31.7
647.117	31.67
647.306	31.11
647.495	31.14
647.684	31.33
647.873	31.64
648.062	31.58
648.251	31.64
648.44	31.76
648.629	31.54
648.818	31.78
649.007	31.76
649.196	31.62
649.384	31.4
649.573	31.5
649.762	31.28
649.951	31.8
650.14	31.72
650.328	32.04
650.517	31.85
650.706	31.96
650.895	31.38
651.083	31.37
651.272	31.27
651.461	31.73
651.65	31.43
651.838	31.45
652.027	31.01
652.216	30.95
652.404	30.82
652.593	30.77
652.781	30.3
652.97	30.44
653.158	30.51
653.347	30.79
653.535	30.5
653.724	30.42
653.912	30.71
654.101	30.86
654.289	30.9
654.478	31.68
654.666	31.81
654.855	32.19
655.043	32.43
655.231	32.57
655.42	32.49
655.608	32.43
655.796	32.37
655.985	31.74
656.173	31.8
656.361	32.33
656.55	31.72
656.738	31.67
656.926	31.66
657.114	32.29
657.302	32.37
657.491	32.52
657.679	32.51
657.867	32.88
658.055	33.25
658.243	33.5
658.431	33.33
658.619	33.56
658.807	33.88
658.996	34.05
659.184	33.91
659.372	33.95
659.56	34.01
659.748	34.15
659.936	34.3
660.124	34.53
660.311	34.33
660.499	34.24
660.687	34.41
660.875	33.9
661.063	33.52
661.251	33.44
661.439	32.9
661.627	33.2
661.814	32.96
662.002	32.79
662.19	32.39
662.378	32.36
662.565	31.94
662.753	31.67
662.941	32.16
663.129	32.25
663.316	32.37
663.504	32.45
663.692	32.05
663.879	31.82
664.067	32.15
664.254	32.28
664.442	32.59
664.63	33.41
664.817	33.09
665.005	32.66
665.192	32.78
665.38	32.1
665.567	32.23
665.755	32.19
665.942	32.63
666.13	32.3
666.317	32.71
666.504	32.5
666.692	31.88
666.879	31.94
667.067	32.35
667.254	32.25
667.441	32.87
667.629	33.07
667.816	32.96
668.003	32.7
668.19	32.85
668.378	32.22
668.565	31.89
668.752	32.08
668.939	32.03
669.127	32.25
669.314	32.1
669.501	32.08
669.688	32.05
669.875	32.48
670.062	32.79
670.249	32.5
670.436	33.09
670.623	33.36
670.81	33.53
670.997	33.61
671.184	33.38
671.371	33.93
671.558	33.95
671.745	33.76
671.932	34.12
672.119	34.07
672.306	34.41
672.493	33.65
672.68	33.54
672.867	33.74
673.054	33.63
673.24	33.45
673.427	33.32
673.614	32.79
673.801	33.01
673.988	32.04
674.174	32.06
674.361	32.16
674.548	32.94
674.734	33.22
674.921	32.9
675.108	32.42
675.294	32.46
675.481	31.9
675.668	32.24
675.854	31.57
676.041	31.89
676.227	32.43
676.414	31.83
676.601	31.99
676.787	31.67
676.974	31.41
677.16	32.13
677.347	32.04
677.533	32.73
677.719	32.74
677.906	32.9
678.092	33.08
678.279	32.49
678.465	32.68
678.651	32.79
678.838	32.91
679.024	33.28
679.21	32.96
679.397	32.97
679.583	32.95
679.769	33.1
679.955	33.8
680.142	33.89
680.328	34.42
680.514	34.71
680.7	34.3
680.886	34.37
681.073	34.35
681.259	34.42
681.445	34.36
681.631	34.38
681.817	34.25
682.003	33.82
682.189	33.37
682.375	33.2
682.561	32.86
682.747	33.5
682.933	33.73
683.119	33.66
683.305	33.78
683.491	34.1
683.677	33.92
683.863	33.97
684.049	34.15
684.235	34.75
684.42	34.38
684.606	34.29
684.792	33.57
684.978	33.66
685.164	33.76
685.349	33.75
685.535	33.69
685.721	33.55
685.907	33.64
686.092	34.03
686.278	33.65
686.464	34.13
686.649	34.02
686.835	33.86
687.021	34.15
687.206	33.98
687.392	33.63
687.577	33.56
687.763	33.86
687.948	33.84
688.134	32.91
688.319	33.25
688.505	33.23
688.69	34.12
688.876	34.32
689.061	33.83
689.247	33.78
689.432	33.86
689.618	33.96
689.803	34.6
689.988	34.39
690.174	35.54
690.359	35.23
690.544	35.39
690.73	35.15
690.915	35.11
691.1	34.79
691.285	35.57
691.471	36.07
691.656	35.77
691.841	34.97
692.026	35.31
692.211	34.12
692.396	34.14
692.582	33.36
692.767	33.43
692.952	33.37
693.137	33.65
693.322	32.87
693.507	31.77
693.692	32.57
693.877	32.85
694.062	32.99
694.247	33.89
694.432	34.05
694.617	34.17
694.802	34.03
694.987	33.56
695.172	33.65
695.357	34.63
695.541	35.67
695.726	36.35
695.911	36.7
696.096	36.85
696.281	36.79
696.466	36.75
696.65	37.04
696.835	36.72
697.02	37.12
697.204	37.55
697.389	37.42
697.574	37.55
697.759	36.48
697.943	36.87
698.128	36.87
698.312	37
698.497	37.45
698.682	37.43
698.866	37.97
699.051	38.26
699.235	38.2
699.42	37.72
699.604	37.61
699.789	37.62
699.973	36.56
700.158	36.61
700.342	36.52
700.527	36.13
700.711	36.14
700.895	35.75
701.08	36.06
701.264	36.11
701.448	36.49
701.633	35.96
701.817	36.65
702.001	36.91
702.186	36.26
702.37	35.79
702.554	35.95
702.738	35.63
702.923	35.43
703.107	34.86
703.291	34.67
703.475	34.23
703.659	35.05
703.843	34.85
704.027	35.5
704.212	35.79
704.396	35.18
704.58	35.93
704.764	35.83
704.948	36.08
705.132	35.58
705.316	35.58
705.5	35.17
705.684	34.62
705.868	34.56
706.052	34.62
706.235	34.4
706.419	35.56
706.603	34.19
706.787	33.91
706.971	34.08
707.155	34.28
707.339	34.38
707.522	34.62
707.706	34.2
707.89	33.46
708.074	33.09
708.257	33.17
708.441	32.76
708.625	32.99
708.808	33.58
708.992	32.99
709.176	33.15
709.359	32.36
709.543	32.26
709.727	32.88
709.91	33.28
710.094	33.61
710.277	33.86
710.461	33.5
710.644	33.64
710.828	34.26
711.011	34.49
711.195	34.73
711.378	35.88
711.562	36.89
711.745	36.8
711.928	37.1
712.112	36.95
712.295	37.36
712.478	38.6
712.662	38.82
712.845	38.45
713.028	38.85
713.212	38.82
713.395	38.18
713.578	37.18
713.761	36.98
713.945	36.62
714.128	35.44
714.311	35.02
714.494	34.8
714.677	34.73
714.86	35.36
715.043	35.1
715.227	34.85
715.41	34.96
715.593	36.35
715.776	36.96
715.959	37.64
716.142	39.08
716.325	39.28
716.508	37.92
716.691	37.89
716.874	37.74
717.057	38.22
717.239	38.84
717.422	38.33
717.605	37.64
717.788	37.64
717.971	37.54
718.154	37.66
718.337	37.82
718.519	38.75
718.702	39.18
718.885	39.27
719.068	39.38
719.25	38.19
719.433	37.61
719.616	37.7
719.798	38.01
719.981	38.51
720.164	38.13
720.346	37.44
720.529	37.47
720.712	37.65
720.894	37.39
721.077	35.37
721.259	36.15
721.442	38.05
721.624	38.22
721.807	38.1
721.989	36.3
722.172	36.37
722.354	36.57
722.537	36.71
722.719	36.27
722.901	36.92
723.084	37.62
723.266	38.23
723.448	37.15
723.631	36.61
723.813	35.94
723.995	37.3
724.178	37.68
724.36	37.86
724.542	38.15
724.724	37.57
724.907	36.67
725.089	38.95
725.271	38.02
725.453	37.97
725.635	36.9
725.817	38.44
725.999	36.97
726.181	36.28
726.364	37.09
726.546	36.83
726.728	37.65
726.91	36.37
727.092	35.62
727.274	36.6
727.456	36.71
727.638	37.92
727.819	36.64
728.001	38.09
728.183	38.86
728.365	38.26
728.547	37.14
728.729	36.33
728.911	37.99
729.093	37.1
729.274	36.94
729.456	38.13
729.638	37.67
729.82	37.74
730.001	36.67
730.183	35.82
730.365	36.27
730.546	37.27
730.728	38.84
730.91	37.86
731.091	38.7
731.273	38.47
731.455	37.41
731.636	37.37
731.818	37.79
731.999	38.47
732.181	39.04
732.362	38.81
732.544	39.68
732.725	37.35
732.907	37.79
733.088	38.19
733.27	37.1
733.451	36.33
733.633	36.4
733.814	34.98
733.995	33.8
734.177	32.03
734.358	31.02
734.539	30.89
734.721	32.93
734.902	33.28
735.083	32.46
735.264	33.87
735.446	34.15
735.627	34
735.808	34.03
735.989	34.15
736.17	36.16
736.351	36.16
736.533	35.62
736.714	34.35
736.895	33.13
737.076	32.71
737.257	32.05
737.438	33.38
737.619	32.7
737.8	34.5
737.981	35.41
738.162	35.13
738.343	35.46
738.524	34.93
738.705	35.68
738.886	37.02
739.067	37.11
739.247	37.2
739.428	35.29
739.609	36.36
739.79	34.43
739.971	35.46
740.151	34.35
740.332	34.7
740.513	35.1
740.694	35.52
740.874	34.51
741.055	34.2
741.236	33.46
741.417	34.77
741.597	34.49
741.778	36.42
741.958	35.65
742.139	36.94
742.32	37.25
742.5	37.19
742.681	36.02
742.861	35.89
743.042	35.34
743.222	36.89
743.403	36.96
743.583	36.69
743.764	36.05
743.944	35.9
744.124	34.48
744.305	33.54
744.485	33.17
744.666	32.28
744.846	32.31
745.026	33.98
745.207	31.64
745.387	30.25
745.567	30.01
745.747	29
745.928	28.91
746.108	30.64
746.288	30.12
746.468	30.82
746.648	32.68
746.829	31.93
747.009	30.57
747.189	32.32
747.369	33.09
747.549	33.18
747.729	35.97
747.909	37.5
748.089	36.05
748.269	36.32
748.449	35.91
748.629	34.08
748.809	36.11
748.989	36.71
749.169	36.35
749.349	38.63
749.529	39.51
749.709	37.08
749.889	35.39
750.068	36.77
750.248	38.38
750.428	37.64
750.608	38.82
750.788	37.08
750.967	37.31
751.147	36.92
751.327	35.71
751.507	33.74
751.686	34.01
751.866	34.78
752.046	34.04
752.225	32.75
752.405	34.19
752.585	34.22
752.764	34.54
752.944	34.13
753.123	34.57
753.303	33.68
753.482	35.2
753.662	36.57
753.841	34.59
754.021	34.9
754.2	35.33
754.38	36.23
754.559	36.76
754.739	35.42
754.918	35.14
755.097	36.16
755.277	36.82
755.456	37.89
755.635	37.64
755.815	38.74
755.994	38.27
756.173	38.54
756.352	37.43
756.532	37.12
756.711	38.42
756.89	38.53
757.069	37.85
757.248	36.14
757.427	34.97
757.607	34.84
757.786	34.15
757.965	34.45
758.144	34.8
758.323	34.53
758.502	35.03
758.681	35.57
758.86	35.22
759.039	35.46
759.218	36.21
759.397	37.44
759.576	36.62
759.755	36.79
759.934	37.44
760.113	37.78
760.291	38.01
760.47	37.55
760.649	37.73
760.828	38.7
761.007	38.15
761.186	39.8
761.364	38.55
761.543	38.25
761.722	40.27
761.901	40.68
762.079	39.54
762.258	38.84
762.437	39.82
762.615	40
762.794	40.18
762.972	40.04
763.151	40.04
763.33	40.01
763.508	39.94
763.687	38.81
763.865	37.76
764.044	38.12
764.222	39.65
764.401	39.17
764.579	38.83
764.758	38.46
764.936	38.15
765.114	37.46
765.293	37.36
765.471	37.99
765.65	38.19
765.828	38.91
766.006	38.01
766.184	36.36
766.363	35.93
766.541	36.5
766.719	35.99
766.898	35.69
767.076	35.13
767.254	34.79
767.432	32.64
767.61	31.76
767.788	31.99
767.967	33.13
768.145	33.01
768.323	34.14
768.501	33.53
768.679	34.69
768.857	36.37
769.035	36.12
769.213	35.71
769.391	37.7
769.569	38.64
769.747	37.59
769.925	36.56
770.103	35.91
770.281	33.25
770.459	31.75
770.636	31
770.814	29.81
770.992	28.82
771.17	28.29
771.348	27.64
771.525	26.41
771.703	25.57
771.881	25.51
772.059	26.04
772.236	26.84
772.414	26.21
772.592	26.82
772.769	25.3
772.947	25.03
773.125	24.06
773.302	23.83
773.48	22.32
773.657	20.16
773.835	21.51
774.013	22.03
774.19	20.67
774.368	21.02
774.545	18.94
774.723	20.95
774.9	24.46
775.077	24.88
775.255	24.6
775.432	24.87
775.61	24.75
775.787	23.32
775.964	22.94
776.142	25.13
776.319	26.41
776.496	26.91
776.674	26.02
776.851	24.22
777.028	27.33
777.205	28.75
777.382	31.68
777.56	36.09
777.737	34.54
777.914	36.49
778.091	35.65
778.268	38.35
778.445	40.87
778.622	38.57
778.8	41.48
778.977	40.26
779.154	38.38
779.331	38.43
779.508	37.86
779.685	38.67
779.862	36.42
780.038	37.52
780.215	34.83
780.392	31.18
780.569	30.72
780.746	28.15
780.923	28.41
781.1	29.53
781.277	27.94
781.453	27.45
781.63	27.54
781.807	27.97
781.984	27.21
782.16	25.97
782.337	31.44
782.514	33.8
782.691	33.15
782.867	33.24
783.044	33.32
783.221	36.56
783.397	38.23
783.574	38.28
783.75	40.16
783.927	39.63
784.103	40.87
784.28	37.89
784.456	37.55
784.633	38.48
784.809	37.6
784.986	38.17
785.162	38.32
785.339	35.75
785.515	35.03
785.692	32.93
785.868	34.51
786.044	35.6
786.221	32.24
786.397	34.57
786.573	34.14
786.749	35.85
786.926	35.1
787.102	32.83
787.278	36.01
787.454	37.27
787.631	36.94
787.807	33.88
787.983	33.57
788.159	36.78
788.335	33.21
788.511	32.71
788.687	32.45
788.863	35.05
789.039	33.91
789.216	31.45
789.392	29.37
789.568	31.79
789.744	32.62
789.919	32.16
790.095	29.83
790.271	31.2
790.447	31.61
790.623	30.46
790.799	27.6
790.975	26.14
791.151	26.9
791.327	30.48
791.502	24
791.678	23.46
791.854	22.17
792.03	23.05
792.205	23.49
792.381	20.8
792.557	22.94
792.733	24.4
792.908	27.07
793.084	25.21
793.259	22.09
793.435	31.35
793.611	30.04
793.786	31.4
793.962	30.98
794.137	28.7
794.313	33.3
794.488	27.44
794.664	29.1
794.839	28.69
795.015	30.54
795.19	32.01
795.366	26.46
795.541	27.96
795.716	27.93
795.892	29.07
796.067	32.03
796.242	32.55
796.418	35.69
796.593	34.9
796.768	33.64
796.944	32.39
797.119	30.32
797.294	29.31
797.469	29.62
797.644	28.42
797.82	29.01
797.995	28.87
798.17	26.22
798.345	23.8
798.52	24.91
798.695	20.64
798.87	24.76
799.045	26.86
799.22	29.69
799.395	28.94
799.57	29.72
799.745	34.8
799.92	35.74
800.095	35.69
800.27	34.5
800.445	32.45
800.62	37.72
800.795	35.53
800.97	33.2
801.145	30.99
801.319	31.25
801.494	30.88
801.669	26.96
801.844	25.34
802.018	25.06
802.193	24.22
802.368	23.15
802.543	18.84
802.717	22.9
802.892	25.26
803.067	32.77
803.241	33.09
803.416	32.43
803.59	31.45
803.765	32.77
803.94	29.77
804.114	34.04
804.289	35.85
804.463	39.88
804.638	35.16
804.812	35.25
804.986	28.66
805.161	31.25
805.335	32.47
805.51	31.9
805.684	31.48
805.858	35.07
806.033	33.67
806.207	29.41
806.381	30.87
806.556	27.16
806.73	27.62
806.904	32.43
807.078	26.13
807.253	23.92
807.427	24.21
807.601	23.05
807.775	26.02
807.949	24.45
808.123	25.47
808.298	21.68
808.472	24.12
808.646	26.74
808.82	28.81
808.994	29.39
809.168	29.81
809.342	31
809.516	28.48
809.69	25.16
809.864	28.71
810.038	27.37
810.212	28.9
810.385	31.12
810.559	26.77
810.733	19.19
810.907	15.23
811.081	22.18
811.255	20.39
811.428	23.22
811.602	23.1
811.776	22.58
811.95	21.88
812.123	25.13
812.297	23.46
812.471	27.53
812.644	32.16
812.818	49.17
812.992	44.24
813.165	42.86
813.339	38.67
813.512	40.21
813.686	37.92
813.86	42.18
814.033	39.79
814.207	39.79
814.38	34.94
814.554	31.86
814.727	27.7
814.9	28.77
815.074	31.45
815.247	35.07
815.421	33.48
815.594	33.78
815.767	33.86
815.941	32.5
816.114	34.25
816.287	30.85
816.46	30.14
816.634	22.69
816.807	20.32
816.98	16.33
817.153	22.49
817.327	22.84
817.5	21.47
817.673	23.59
817.846	23.33
818.019	19.16
818.192	25.55
818.365	24.4
818.538	29.64
818.711	30.08
818.884	35.5
819.057	29.52
819.23	28.16
819.403	32.39
819.576	33.14
819.749	32.39
819.922	36.78
820.095	34.79
820.268	37.45
820.441	36.18
820.614	36.25
820.786	36
820.959	35.94
821.132	36.72
821.305	38.84
821.477	39.22
821.65	40
821.823	40.97
821.996	41.13
822.168	41.28
822.341	42.22
822.514	42.47
822.686	42.65
822.859	42.78
823.031	44
823.204	42.9
823.376	43.32
823.549	44.05
823.722	43.7
823.894	43.79
824.067	44.16
824.239	43.83
824.411	44.22
824.584	43.81
824.756	43.84
824.929	42.93
825.101	43.38
825.273	43.29
825.446	43.26
825.618	42.88
825.79	43.4
825.963	43.86
826.135	42.93
826.307	41.51
826.479	41.52
826.652	42.62
826.824	43.56
826.996	43.9
827.168	44.13
827.34	42.96
827.512	43.23
827.684	40.94
827.856	38.58
828.029	41.06
828.201	42.86
828.373	43.08
828.545	42.51
828.717	41.98
828.889	41.34
829.061	39.26
829.232	39.53
829.404	38.23
829.576	40.95
829.748	43.79
829.92	43.26
830.092	43.01
830.264	39.61
830.436	36.17
830.607	35.61
830.779	35.24
830.951	34.04
831.123	32.1
831.294	34.56
831.466	30.24
831.638	25.67
831.809	24.24
831.981	23.38
832.153	27.37
832.324	29.28
832.496	26.04
832.667	30.38
832.839	30.09
833.011	34.47
833.182	34.42
833.354	37.36
833.525	43.39
833.697	38.62
833.868	38.81
834.039	39.17
834.211	37.16
834.382	40.52
834.554	36.85
834.725	36.82
834.896	35.41
835.068	30.17
835.239	30.73
835.41	29.14
835.581	34.1
835.753	37.5
835.924	34.81
836.095	36.14
836.266	33.06
836.438	34.44
836.609	35.04
836.78	33.16
836.951	38.43
837.122	40.76
837.293	43.27
837.464	36.91
837.635	31.58
837.806	33.5
837.977	36.22
838.148	35.92
838.319	34.95
838.49	35.59
838.661	37.36
838.832	33.99
839.003	30.54
839.174	25.81
839.345	26.31
839.516	21.86
839.687	27.51
839.857	24.95
840.028	25.89
840.199	27.55
840.37	22.19
840.54	25.49
840.711	24.85
840.882	28.34
841.053	34.07
841.223	35.61
841.394	39.7
841.564	31.46
841.735	43.56
841.906	39.83
842.076	37.82
842.247	51.49
842.417	47.54
842.588	47.87
842.758	56.48
842.929	37.71
843.099	52.57
843.27	46.8
843.44	48.04
843.611	33.94
843.781	36.68
843.951	29.74
844.122	15.69
844.292	3.3
844.462	11.17
844.633	-13.27
844.803	9.6
844.973	-7.32
845.144	1.78
845.314	10.69
845.484	-1.74
845.654	-7.21
845.824	-6.74
845.995	-11.86
846.165	5.54
846.335	4.48
846.505	20
846.675	9.02
846.845	20.02
847.015	27.52
847.185	17.42
847.355	18.88
847.525	25.69
847.695	16.86
847.865	31.37
848.035	55.58
848.205	65.35
848.375	57.04
848.545	56.43
848.715	45.71
848.884	7.52
849.054	17.75
849.224	32.47
849.394	26
849.564	28.82
849.733	11.67
849.903	-12.31
850.073	-21.42
850.243	-48.82
850.412	-109.47
850.582	-58.91
850.752	-30.56
850.921	-40.7
851.091	-34.52
851.26	-37.19
851.43	-26.82
851.599	-17.16
851.769	-22.46
851.939	-10.95
852.108	-16.31
852.278	3.82
852.447	-4.21
852.616	0.99
852.786	2.12
852.955	13.39
853.125	11.74
853.294	2.45
853.463	14.42
853.633	8.73
853.802	0.31
853.971	30.5
854.141	9.34
854.31	-12.64
854.479	-31.76
854.648	-3.02
854.818	3.21
854.987	-7.56
855.156	4.9
855.325	-11.41
855.494	-3.36
855.663	-5.09
855.832	-50.21
856.001	-22.54
856.171	-7.14
856.34	-1.01
856.509	-11.73
856.678	-22.83
856.847	-1.57
857.016	8.06
857.185	14.45
857.353	11.59
857.522	9.54
857.691	11.63
857.86	11.84
858.029	25.13
858.198	24.17
858.367	10.03
858.535	-0.22
858.704	0.13
858.873	-21.03
859.042	-10.71
859.21	11.6
859.379	9.91
859.548	26.11
859.717	21.94
859.885	13.73
860.054	17.45
860.222	14.05
860.391	-11.44
860.56	-19.45
860.728	-7.19
860.897	-20.07
861.065	-57.92
861.234	-65.49
861.402	-50.29
861.571	-22.79
861.739	-1.61
861.908	-33.68
862.076	-12.04
862.244	17.2
862.413	19.21
862.581	9.41
862.749	39.06
862.918	21.08
863.086	56.46
863.254	116.84
863.423	85.56
863.591	-17.46
863.759	83.39
863.927	7.84
864.096	36.27
864.264	47.8
864.432	51.39
864.6	17.08
864.768	24.39
864.936	25.93
865.104	-0.94
865.272	-63.62
865.44	-81.64
865.608	-506.1
865.776	-377.89
865.944	-132.71
866.112	-4134.15
866.28	-167.24
866.448	-1209.31
866.616	-101.56
866.784	-308.73
866.952	-189.87
867.12	-19.36
867.288	-27.91
867.455	-4.13
867.623	-29.04
867.791	-47.43
867.959	-34.64
868.127	-13.45
868.294	5.19
868.462	0.57
868.63	-6.82
868.797	-7.52
868.965	-0.81
869.133	19.52
869.3	20.27
869.468	7.62
869.636	-19.98
869.803	-20.06
869.971	-62.54
870.138	-46.73
870.306	-64.47
870.473	-35.16
870.641	-43.19
870.808	-70.04
870.975	-79.18
871.143	-77.55
871.31	-53.87
871.478	-28.22
871.645	-35.65
871.812	-44.13
871.98	-46.03
872.147	-21.7
872.314	-28.49
872.482	-14.46
872.649	6.56
872.816	9.5
872.983	8.47
873.15	9.12
873.318	-0.41
873.485	1.14
873.652	7.72
873.819	-8.1
873.986	-9.73
874.153	-25.26
874.32	-36.29
874.487	-86.92
874.654	-145.69
874.821	-115.19
874.988	-207.28
875.155	-194.83
875.322	-1002.55
875.489	-657.03
875.656	-406.1
875.823	-878.13
875.99	-1695.86
876.157	485.56
876.324	552.56
876.49	-917.37
876.657	-139.55
876.824	-47.48
876.991	-82.8
877.157	-53.68
877.324	-60.23
877.491	-6.3
877.658	21.95
877.824	10.44
877.991	6.79
878.157	5.09
878.324	-7.69
878.491	-33.76
878.657	-30.36
878.824	-0.81
878.99	-9.67
879.157	-1.84
879.323	-20.42
879.49	-22.31
879.656	-33.21
879.823	-39.1
879.989	-44.35
880.156	-12.93
880.322	-18.66
880.488	-15.7
880.655	-17.66
880.821	-4.1
880.987	-6.26
881.154	4.24
881.32	-5.72
881.486	2.42
881.652	17.89
881.819	15.61
881.985	19.51
882.151	24.66
882.317	22.12
882.483	31.79
882.649	35.93
882.816	41.55
882.982	40.68
883.148	43.78
883.314	45.94
883.48	44.22
883.646	45.84
883.812	42.4
883.978	44.24
884.144	46.84
884.31	45.47
884.476	42.47
884.642	38.01
884.807	34.97
884.973	31.88
885.139	31.51
885.305	32.39
885.471	31.07
885.637	31.61
885.802	32.93
885.968	29.96
886.134	26.72
886.3	29.53
886.465	31.8
886.631	32.76
886.797	33.88
886.962	31.95
887.128	28.68
887.293	31.63
887.459	35.48
887.625	32.36
887.79	40.79
887.956	39.44
888.121	36.38
888.287	36.42
888.452	48.98
888.618	64.52
888.783	71.11
