Data from 2937842_Reflection_2.txt Node
Date: Wed Jul 15 16:14:09 EDT 2015
User: robert
Spectrometer: USB4E03001
Autoset integration time: false
Trigger mode: 4
Integration Time (sec): 1.000000E-1
Scans to average: 10
Electric dark correction enabled: true
Nonlinearity correction enabled: false
Boxcar width: 5
Stray light correction enabled: false
XAxis mode: Wavelengths
Stop averaging: false
Number of Pixels in Spectrum: 3648
>>>>>Begin Spectral Data<<<<<
177.566	89.71
177.785	246.38
178.005	-116.64
178.225	-653.42
178.445	-209.01
178.665	46.58
178.885	360.53
179.105	163.01
179.324	163
179.544	5351.56
179.764	-288.67
179.984	14.22
180.204	50.5
180.423	42.11
180.643	-10.55
180.863	22.26
181.083	102.29
181.302	169.32
181.522	151.19
181.742	132.02
181.961	114.19
182.181	700
182.401	105.01
182.621	87.19
182.84	700
183.06	168.69
183.279	34.76
183.499	58.78
183.719	16.32
183.938	24.29
184.158	14.46
184.377	35.51
184.597	44.87
184.816	23.76
185.036	19.91
185.256	31.95
185.475	19
185.695	36.01
185.914	-8.12
186.134	-38.35
186.353	-583.54
186.572	-88.05
186.792	-25.53
187.011	-1.8
187.231	-94.44
187.45	-1.21
187.67	-32.97
187.889	27.52
188.108	31.34
188.328	30.07
188.547	40.63
188.766	-12.43
188.986	20.28
189.205	179.57
189.424	130.45
189.644	99.09
189.863	172.35
190.082	109.83
190.302	119.41
190.521	138.73
190.74	49.79
190.959	140.46
191.178	245.8
191.398	97.39
191.617	-501.52
191.836	406.45
192.055	-16.64
192.274	-164.25
192.494	-208.46
192.713	-1110.71
192.932	235.66
193.151	194.75
193.37	282.25
193.589	148.93
193.808	551.1
194.027	80.13
194.246	85.3
194.465	19.12
194.685	2227.5
194.904	169.6
195.123	-465.67
195.342	2335.89
195.561	218.93
195.78	364.53
195.999	493.05
196.218	-20168.42
196.436	278.53
196.655	190.6
196.874	501.56
197.093	12544.44
197.312	-389.68
197.531	87.49
197.75	49.47
197.969	20.74
198.188	16.81
198.407	22.93
198.625	23.86
198.844	6.92
199.063	7.09
199.282	20.4
199.501	30.12
199.719	33.91
199.938	51.74
200.157	63.96
200.376	123.7
200.594	151.7
200.813	-253.47
201.032	-54.77
201.251	-177.44
201.469	-653.78
201.688	-484.6
201.907	-214.09
202.125	1682.56
202.344	-211.64
202.563	-549.43
202.781	-24780
203	-136.37
203.218	-274.45
203.437	-266.74
203.656	-115.84
203.874	-18.75
204.093	-28.97
204.311	19.95
204.53	13.37
204.748	-133.57
204.967	-675.48
205.185	80.24
205.404	181.32
205.622	165.26
205.841	194.37
206.059	163.76
206.278	148.09
206.496	198.12
206.715	158.93
206.933	210.67
207.151	186.47
207.37	189.57
207.588	206.49
207.806	189.2
208.025	170.65
208.243	138.74
208.461	78.74
208.68	100.32
208.898	102.06
209.116	96.03
209.335	66.57
209.553	69.76
209.771	80.96
209.989	61.16
210.208	36.11
210.426	28.04
210.644	11.99
210.862	100.2
211.081	21.92
211.299	-25.67
211.517	30.18
211.735	24
211.953	-691.76
212.171	97.66
212.39	-104.44
212.608	2837.29
212.826	755.32
213.044	128.39
213.262	46.8
213.48	-0.36
213.698	726.8
213.916	-55.62
214.134	11.37
214.352	-2.04
214.57	-66.76
214.788	247.7
215.006	166.36
215.224	-118.2
215.442	105.21
215.66	68.67
215.878	-22.94
216.096	-75.37
216.314	37.1
216.532	12.88
216.75	33.17
216.968	-49.55
217.185	65.2
217.403	41.27
217.621	264.85
217.839	90.15
218.057	113.21
218.275	83.64
218.492	566.01
218.71	593.79
218.928	310.51
219.146	207.47
219.363	147.76
219.581	141.1
219.799	107.86
220.017	122.57
220.234	128.2
220.452	125.33
220.67	85.1
220.887	75.38
221.105	69.86
221.323	60.08
221.54	36.22
221.758	11.47
221.976	7.41
222.193	-8.09
222.411	25.97
222.629	18.77
222.846	34.01
223.064	69.37
223.281	68.12
223.499	33.31
223.716	29.58
223.934	35.79
224.151	23.11
224.369	11.19
224.586	13.41
224.804	-21.47
225.021	-36.72
225.239	-29.6
225.456	-51.6
225.674	-13.87
225.891	0.3
226.108	20.41
226.326	39.76
226.543	53.4
226.76	44.87
226.978	39.06
227.195	36.11
227.413	35.66
227.63	34.41
227.847	38.09
228.064	28.88
228.282	26.35
228.499	26.83
228.716	19.51
228.934	15.69
229.151	18.59
229.368	16.36
229.585	19.54
229.802	20.49
230.02	18.66
230.237	16.31
230.454	15.77
230.671	19.7
230.888	15.06
231.105	19.45
231.323	22.25
231.54	21.7
231.757	25.27
231.974	24.15
232.191	26.27
232.408	24.53
232.625	22.3
232.842	24.89
233.059	12.47
233.276	16.95
233.493	14.47
233.71	22.01
233.927	25.56
234.144	21.73
234.361	17.76
234.578	14.54
234.795	20.09
235.012	21.39
235.229	26
235.446	30.64
235.663	24.8
235.879	25.09
236.096	21.96
236.313	21.22
236.53	29.21
236.747	26.25
236.964	29.2
237.181	24.1
237.397	32.26
237.614	23.68
237.831	27.69
238.048	31.04
238.264	24.34
238.481	24.74
238.698	20.91
238.915	20.15
239.131	25.29
239.348	27.43
239.565	29.34
239.781	24.06
239.998	28.95
240.215	25.7
240.431	26.96
240.648	27.11
240.865	26.74
241.081	28.93
241.298	25.76
241.514	24.69
241.731	23.13
241.947	21.53
242.164	20.21
242.38	16.05
242.597	18.55
242.814	18.51
243.03	20.35
243.246	20.54
243.463	19.2
243.679	18.31
243.896	17.78
244.112	17.86
244.329	19.4
244.545	21.71
244.762	24.62
244.978	19.81
245.194	17.16
245.411	16.36
245.627	16.79
245.843	18.31
246.06	19.91
246.276	20.97
246.492	21.34
246.709	21.01
246.925	20.35
247.141	20.93
247.357	22.72
247.574	22.64
247.79	22.21
248.006	21.66
248.222	22.25
248.439	22.31
248.655	22.23
248.871	20.82
249.087	20.93
249.303	20.88
249.519	19.41
249.736	18.95
249.952	19.35
250.168	18.99
250.384	18.1
250.6	17.18
250.816	17.13
251.032	16.77
251.248	17.13
251.464	19.09
251.68	18.6
251.896	19.27
252.112	15.17
252.328	17.61
252.544	18.22
252.76	18.45
252.976	17.06
253.192	17.07
253.408	16.02
253.624	15.93
253.84	14.34
254.056	16.53
254.272	15.96
254.487	19.67
254.703	20.69
254.919	22.02
255.135	22.33
255.351	22.59
255.567	24.29
255.782	31.26
255.998	29.76
256.214	28.18
256.43	26.4
256.646	25.62
256.861	25.76
257.077	21.09
257.293	20.65
257.508	21.31
257.724	22.53
257.94	20.77
258.155	17.87
258.371	19.64
258.587	19.89
258.802	19.97
259.018	19.93
259.234	18.76
259.449	19.5
259.665	19.11
259.88	17.72
260.096	16.59
260.312	16.62
260.527	16.28
260.743	16.72
260.958	16.1
261.174	16.06
261.389	15.91
261.605	15.66
261.82	15.16
262.036	15.81
262.251	16.64
262.466	17.25
262.682	16.06
262.897	17.34
263.113	13.87
263.328	14.84
263.543	12.97
263.759	14.83
263.974	16.42
264.189	17.2
264.405	17.09
264.62	18.17
264.835	17.95
265.051	18.46
265.266	16.6
265.481	18.65
265.696	17.09
265.912	17.45
266.127	14.85
266.342	14.9
266.557	13.17
266.773	10.64
266.988	9.62
267.203	10.18
267.418	10.03
267.633	8.45
267.848	10.83
268.064	12.93
268.279	13.52
268.494	16.03
268.709	14.44
268.924	13.7
269.139	15.58
269.354	16.73
269.569	15.75
269.784	18.36
269.999	18.88
270.214	17.17
270.429	16.41
270.644	16.67
270.859	15.56
271.074	16.89
271.289	18.62
271.504	17.86
271.719	19.53
271.934	19.9
272.149	18.2
272.363	18.16
272.578	17.88
272.793	17.33
273.008	18.24
273.223	17.74
273.438	16.62
273.653	16.37
273.867	16.87
274.082	15.04
274.297	14.98
274.512	14.8
274.726	15.71
274.941	15.16
275.156	14.26
275.371	13.45
275.585	12.6
275.8	14.44
276.015	13.02
276.229	14.08
276.444	12.21
276.659	11.61
276.873	11.51
277.088	9.82
277.302	9.41
277.517	11.06
277.732	8.77
277.946	8.4
278.161	7.88
278.375	10.02
278.59	9.52
278.804	8.62
279.019	8.81
279.233	8.88
279.448	10.97
279.662	12.45
279.877	11.93
280.091	12.49
280.306	13.34
280.52	12.19
280.735	10.18
280.949	8.17
281.163	9.85
281.378	9.33
281.592	10.36
281.806	11.19
282.021	9.92
282.235	10.7
282.449	9.93
282.664	9.9
282.878	9.5
283.092	10.38
283.307	11.42
283.521	12.19
283.735	12.93
283.949	13.78
284.164	12.82
284.378	12.91
284.592	12.32
284.806	12.55
285.02	13.73
285.234	14.16
285.449	14.5
285.663	14.92
285.877	14.6
286.091	13.57
286.305	12.89
286.519	12.76
286.733	13.6
286.947	12.79
287.161	13.12
287.375	11.08
287.589	11.8
287.803	11.3
288.017	9.91
288.231	9.36
288.445	10.46
288.659	9.67
288.873	9.74
289.087	10.38
289.301	11.11
289.515	13.32
289.729	13.06
289.943	12.7
290.157	12.25
290.371	13.61
290.584	15.57
290.798	15.69
291.012	15.12
291.226	15.56
291.44	14.45
291.654	14.82
291.867	12.88
292.081	14.47
292.295	17.33
292.509	18.96
292.722	20.04
292.936	19.73
293.15	21.13
293.364	23.24
293.577	22.94
293.791	22.83
294.005	22.33
294.218	22.17
294.432	22.07
294.645	19.76
294.859	19.8
295.073	17.42
295.286	17.06
295.5	16.39
295.713	16.08
295.927	16.37
296.14	17.1
296.354	18.03
296.568	18.16
296.781	18.78
296.994	18.3
297.208	17.38
297.421	17.71
297.635	16.37
297.848	15.24
298.062	15.05
298.275	15.65
298.489	15.74
298.702	15.36
298.915	15.93
299.129	17.18
299.342	18.14
299.555	18.73
299.769	19.18
299.982	20.24
300.195	22.33
300.409	22.05
300.622	20.58
300.835	19.94
301.048	20.17
301.262	19.41
301.475	17.74
301.688	17.54
301.901	17.91
302.115	18.75
302.328	19.94
302.541	18.96
302.754	19.45
302.967	21.03
303.18	20.46
303.393	19.07
303.607	19.97
303.82	19.76
304.033	19.11
304.246	19.31
304.459	19.03
304.672	18.26
304.885	18.58
305.098	18.89
305.311	18.9
305.524	19.81
305.737	22
305.95	20.81
306.163	20.57
306.376	21.45
306.589	23.02
306.802	23.63
307.015	24.57
307.228	23.6
307.44	22.86
307.653	22.94
307.866	23.1
308.079	22.36
308.292	24.6
308.505	24.21
308.718	22.48
308.93	20.4
309.143	20.11
309.356	19.69
309.569	19.81
309.781	19.4
309.994	19.3
310.207	19.26
310.42	18.28
310.632	18.47
310.845	18.99
311.058	19.97
311.27	20.99
311.483	19.99
311.696	20.27
311.908	21.44
312.121	22.78
312.333	22.41
312.546	22.59
312.759	24.22
312.971	24.17
313.184	24.72
313.396	25.25
313.609	23.35
313.821	23.57
314.034	23.81
314.246	24.63
314.459	24.61
314.671	24.37
314.884	24.22
315.096	24.69
315.309	24.06
315.521	21.52
315.733	20.22
315.946	21.8
316.158	22.71
316.371	23.3
316.583	21.39
316.795	21.55
317.008	21.46
317.22	23
317.432	22.49
317.644	21.7
317.857	24.25
318.069	24.13
318.281	23.27
318.494	23.55
318.706	22.62
318.918	23.29
319.13	21.59
319.342	23.11
319.555	22.54
319.767	21.09
319.979	23.56
320.191	24.54
320.403	25.35
320.615	26.55
320.827	26.85
321.039	28.55
321.252	28.7
321.464	29.78
321.676	27.73
321.888	26.95
322.1	26.22
322.312	24.79
322.524	23.25
322.736	22.82
322.948	21.07
323.16	19.23
323.372	18.04
323.584	17.88
323.796	15.08
324.007	16.01
324.219	14.4
324.431	15.01
324.643	14.01
324.855	14.26
325.067	15.58
325.279	17.32
325.491	19.46
325.702	19.33
325.914	18.53
326.126	20.28
326.338	20.74
326.55	23.78
326.761	24.87
326.973	26.96
327.185	25.92
327.396	25.12
327.608	22.7
327.82	21.73
328.032	19.39
328.243	20.24
328.455	20.6
328.666	19.89
328.878	19
329.09	18.13
329.301	16.66
329.513	17.73
329.725	18.83
329.936	20.07
330.148	20.39
330.359	22.5
330.571	23.54
330.782	23.77
330.994	22.13
331.205	20.69
331.417	20.92
331.628	19.43
331.84	18.89
332.051	18.05
332.262	18.18
332.474	17.59
332.685	16.56
332.897	15.52
333.108	17.19
333.319	20.37
333.531	21.1
333.742	21.27
333.953	23.04
334.165	23.04
334.376	23.89
334.587	25.99
334.799	25.39
335.01	26.53
335.221	26.65
335.432	25.93
335.644	25.08
335.855	24.63
336.066	23.79
336.277	22.31
336.488	23.62
336.7	23.65
336.911	22.47
337.122	24
337.333	24.71
337.544	24.39
337.755	23.75
337.966	24.25
338.177	26.16
338.388	26.73
338.599	28.75
338.811	28.3
339.022	27.76
339.233	27.51
339.444	27.82
339.655	26.59
339.866	27.57
340.076	27.45
340.287	28.08
340.498	27.12
340.709	27.91
340.92	26.73
341.131	26.58
341.342	26.34
341.553	26.59
341.764	26.52
341.975	27.12
342.185	25.08
342.396	25.67
342.607	24.62
342.818	24.3
343.029	23.34
343.239	23.71
343.45	23.48
343.661	23.22
343.872	23.56
344.082	23.4
344.293	23.04
344.504	24.68
344.714	24.32
344.925	24.26
345.136	24.19
345.346	23.86
345.557	24.19
345.768	24.4
345.978	24
346.189	22.95
346.399	22.79
346.61	22.8
346.821	22.63
347.031	23.68
347.242	24.13
347.452	24.32
347.663	25.05
347.873	24.44
348.084	24.64
348.294	25.75
348.504	27.1
348.715	27
348.925	27.89
349.136	27.22
349.346	25.76
349.557	25.47
349.767	23.98
349.977	22.62
350.188	23.56
350.398	23.2
350.608	23.32
350.819	22.2
351.029	21.58
351.239	22.04
351.449	23.86
351.66	24.28
351.87	24.65
352.08	25.77
352.29	27.58
352.501	27.58
352.711	28.07
352.921	26.28
353.131	27.03
353.341	27.31
353.552	26.79
353.762	25.83
353.972	26.06
354.182	26.87
354.392	26.81
354.602	26.8
354.812	25.7
355.022	25.38
355.232	26.08
355.442	25.4
355.652	25.47
355.862	25.48
356.072	25.07
356.282	25.14
356.492	24.16
356.702	24.73
356.912	24.15
357.122	24.82
357.332	24.65
357.542	24.82
357.752	24.45
357.962	24.35
358.171	24.23
358.381	24.29
358.591	24.68
358.801	25.39
359.011	25.97
359.221	25.9
359.43	25.27
359.64	25.45
359.85	26.03
360.06	26.42
360.269	26.41
360.479	26.26
360.689	25.99
360.899	25.85
361.108	25.37
361.318	23.93
361.528	24.32
361.737	24.14
361.947	23.39
362.156	23.12
362.366	23.52
362.576	22.93
362.785	22.68
362.995	22.92
363.204	22.18
363.414	22.21
363.623	22.15
363.833	21.6
364.042	22.49
364.252	22.78
364.461	23.07
364.671	22.75
364.88	23.72
365.09	23.38
365.299	23.37
365.509	23.9
365.718	23.6
365.927	23.75
366.137	22.97
366.346	21.82
366.555	23
366.765	22.7
366.974	22.51
367.183	22.61
367.393	22.93
367.602	23.16
367.811	22.4
368.021	21.85
368.23	21.77
368.439	22.57
368.648	22.85
368.857	21.91
369.067	22.18
369.276	22.19
369.485	21.51
369.694	21.38
369.903	21.17
370.112	22
370.321	22.61
370.531	22.99
370.74	22.63
370.949	23.22
371.158	22.09
371.367	21.48
371.576	21.58
371.785	21.55
371.994	21.07
372.203	20.78
372.412	19.67
372.621	18.84
372.83	18.13
373.039	17.63
373.248	17.02
373.457	17.64
373.666	16.71
373.874	15.96
374.083	16.08
374.292	16.51
374.501	15.6
374.71	16.48
374.919	16.71
375.128	17.79
375.336	18.07
375.545	17.81
375.754	18.63
375.963	19.56
376.171	19.78
376.38	19.8
376.589	18.96
376.798	19.66
377.006	18.82
377.215	19.47
377.424	18.56
377.632	18.88
377.841	18.36
378.05	17.86
378.258	17.2
378.467	17.78
378.675	17.37
378.884	18.03
379.093	17.77
379.301	18.33
379.51	17.65
379.718	17.5
379.927	17.92
380.135	18.37
380.344	18.3
380.552	18.98
380.761	18.63
380.969	18.51
381.177	18.06
381.386	17.6
381.594	17.49
381.803	17.03
382.011	17.8
382.219	17.64
382.428	17.4
382.636	17.61
382.845	17.84
383.053	17.94
383.261	18.8
383.469	19.77
383.678	19.94
383.886	19.71
384.094	20.09
384.302	19.46
384.511	18.87
384.719	18.49
384.927	18.09
385.135	17.68
385.343	16.82
385.552	15.75
385.76	14.76
385.968	14.99
386.176	14.84
386.384	14.48
386.592	14.57
386.8	14.92
387.008	15.05
387.216	15.16
387.424	14.87
387.633	15.04
387.841	15.41
388.049	16.11
388.257	15.93
388.465	16.05
388.672	16.03
388.88	15.63
389.088	15.02
389.296	15.16
389.504	14.97
389.712	14.74
389.92	14.87
390.128	14.63
390.336	14.22
390.544	13.92
390.751	13.62
390.959	13.62
391.167	13.95
391.375	13.98
391.583	14.06
391.79	14.16
391.998	14.51
392.206	14.28
392.414	14.24
392.621	14.25
392.829	14.55
393.037	14.39
393.244	14.85
393.452	14.55
393.66	14.35
393.867	14.14
394.075	13.76
394.283	13.49
394.49	13.31
394.698	13.52
394.905	13.18
395.113	12.96
395.32	13.27
395.528	12.69
395.735	12.9
395.943	13.24
396.15	13.3
396.358	13.56
396.565	13.56
396.773	13.95
396.98	13.44
397.188	13.79
397.395	13.87
397.602	13.85
397.81	14.01
398.017	14.14
398.225	14.02
398.432	14.12
398.639	14.17
398.847	14.05
399.054	13.69
399.261	13.75
399.468	13.49
399.676	13.16
399.883	12.75
400.09	12.42
400.297	12.33
400.505	12.54
400.712	12.55
400.919	12.82
401.126	12.83
401.333	13.24
401.54	13.49
401.748	13.73
401.955	14.1
402.162	14.25
402.369	14.42
402.576	14.2
402.783	13.67
402.99	13.7
403.197	12.96
403.404	12.79
403.611	12.64
403.818	12.76
404.025	12.56
404.232	12.55
404.439	12.87
404.646	12.69
404.853	12.76
405.06	12.91
405.267	12.77
405.474	12.92
405.681	13.29
405.887	13.1
406.094	12.62
406.301	12.31
406.508	12.47
406.715	12.17
406.922	12.55
407.128	12.61
407.335	12.42
407.542	12.25
407.749	12.46
407.955	12.26
408.162	12.24
408.369	12.47
408.575	12.76
408.782	12.66
408.989	12.99
409.195	12.38
409.402	12.26
409.609	12.48
409.815	12.25
410.022	12.12
410.228	12.13
410.435	12.25
410.642	12.08
410.848	12.01
411.055	11.58
411.261	11.33
411.468	11.45
411.674	11.32
411.881	11.24
412.087	11.82
412.294	11.98
412.5	12.05
412.706	12.3
412.913	12.61
413.119	12.53
413.326	12.5
413.532	12.33
413.738	12.62
413.945	12.66
414.151	13
414.357	12.68
414.564	12.57
414.77	12.67
414.976	12.23
415.182	12.1
415.389	12.13
415.595	12.3
415.801	12.34
416.007	12.31
416.214	12.32
416.42	12.12
416.626	12.01
416.832	11.92
417.038	11.78
417.244	12
417.45	11.95
417.657	11.94
417.863	11.96
418.069	11.89
418.275	11.73
418.481	11.8
418.687	11.85
418.893	11.81
419.099	11.79
419.305	11.9
419.511	11.84
419.717	11.78
419.923	11.7
420.129	11.62
420.335	11.64
420.541	11.65
420.746	11.46
420.952	11.41
421.158	11.49
421.364	11.49
421.57	11.43
421.776	11.27
421.982	11.44
422.187	11.49
422.393	11.51
422.599	11.55
422.805	11.62
423.01	11.7
423.216	11.55
423.422	11.45
423.628	11.6
423.833	11.62
424.039	11.87
424.245	11.83
424.45	11.96
424.656	11.96
424.862	11.91
425.067	11.81
425.273	11.83
425.478	11.9
425.684	12.06
425.889	11.82
426.095	11.71
426.301	11.57
426.506	11.49
426.712	11.32
426.917	11.32
427.123	11.16
427.328	11.16
427.533	11.13
427.739	11.1
427.944	10.94
428.15	10.97
428.355	11.29
428.561	11.35
428.766	11.2
428.971	11.39
429.177	11.4
429.382	11.79
429.587	11.95
429.793	11.96
429.998	12.1
430.203	12.19
430.408	12.39
430.614	11.86
430.819	11.77
431.024	11.98
431.229	11.72
431.434	11.72
431.64	11.49
431.845	11.51
432.05	11.46
432.255	11.36
432.46	11.27
432.665	11.17
432.87	11.41
433.076	11.55
433.281	11.51
433.486	11.57
433.691	11.49
433.896	11.41
434.101	11.28
434.306	11.28
434.511	11.26
434.716	11.34
434.921	11.45
435.126	11.53
435.331	11.16
435.535	11.15
435.74	11.18
435.945	11.25
436.15	11.54
436.355	11.52
436.56	11.43
436.765	11.57
436.97	11.55
437.174	11.53
437.379	11.43
437.584	11.5
437.789	11.51
437.993	11.62
438.198	11.49
438.403	11.28
438.608	11.22
438.812	11.16
439.017	11.1
439.222	11.14
439.426	10.93
439.631	10.82
439.836	10.91
440.04	10.99
440.245	10.91
440.45	10.89
440.654	11.06
440.859	11.11
441.063	11.35
441.268	11.16
441.472	11.07
441.677	11.23
441.881	11.35
442.086	11.29
442.29	11.19
442.495	11
442.699	11.04
442.904	10.95
443.108	10.91
443.312	10.69
443.517	10.96
443.721	11.06
443.925	11.09
444.13	11.02
444.334	11.05
444.538	11.14
444.743	11.14
444.947	11.11
445.151	11.03
445.356	11.03
445.56	11.02
445.764	11.03
445.968	10.96
446.173	10.82
446.377	10.99
446.581	11.06
446.785	11.02
446.989	11.05
447.193	11.1
447.398	11
447.602	11.08
447.806	11.06
448.01	11
448.214	10.97
448.418	11.07
448.622	10.89
448.826	10.78
449.03	10.84
449.234	10.93
449.438	11.04
449.642	11.28
449.846	11.22
450.05	11.43
450.254	11.44
450.458	11.54
450.662	11.54
450.866	11.67
451.069	11.72
451.273	11.68
451.477	11.44
451.681	11.45
451.885	11.25
452.089	11.24
452.292	11.15
452.496	11.05
452.7	10.99
452.904	10.97
453.107	10.86
453.311	10.91
453.515	10.87
453.719	11.03
453.922	10.87
454.126	11.02
454.33	10.91
454.533	10.92
454.737	10.79
454.94	10.55
455.144	10.42
455.348	10.33
455.551	10.25
455.755	10.25
455.958	10.17
456.162	10.23
456.365	10.14
456.569	10.24
456.772	10.27
456.976	10.38
457.179	10.33
457.383	10.52
457.586	10.45
457.79	10.52
457.993	10.43
458.196	10.47
458.4	10.47
458.603	10.54
458.807	10.61
459.01	10.76
459.213	10.7
459.417	10.99
459.62	10.92
459.823	10.98
460.026	10.96
460.23	11.12
460.433	11.2
460.636	11.25
460.839	11.14
461.042	11.06
461.246	11.05
461.449	11.22
461.652	10.99
461.855	11.16
462.058	11.08
462.261	10.93
462.464	10.64
462.668	10.51
462.871	10.67
463.074	10.79
463.277	10.87
463.48	10.71
463.683	10.85
463.886	11.03
464.089	10.92
464.292	11.14
464.495	11.25
464.698	11.31
464.901	11.36
465.104	11.21
465.306	11.08
465.509	11.16
465.712	10.9
465.915	10.83
466.118	10.83
466.321	10.6
466.524	10.5
466.726	10.65
466.929	10.65
467.132	10.64
467.335	10.42
467.538	10.48
467.74	10.33
467.943	10.7
468.146	10.69
468.348	10.56
468.551	10.85
468.754	11.03
468.956	10.96
469.159	10.84
469.362	10.96
469.564	11.15
469.767	11.32
469.969	11.45
470.172	11.24
470.375	11.15
470.577	11.47
470.78	11.3
470.982	11.05
471.185	11.13
471.387	11.22
471.59	11.04
471.792	11.03
471.995	11.02
472.197	11.04
472.399	11.27
472.602	11.27
472.804	11.09
473.007	11.3
473.209	11.34
473.411	11.12
473.614	11.03
473.816	11.21
474.018	11.15
474.22	10.86
474.423	10.87
474.625	10.87
474.827	11.02
475.03	10.93
475.232	10.7
475.434	10.69
475.636	10.88
475.838	11.09
476.04	11.05
476.243	11.05
476.445	11.23
476.647	10.98
476.849	10.84
477.051	10.64
477.253	10.78
477.455	10.84
477.657	10.85
477.859	10.65
478.061	10.5
478.263	10.46
478.465	10.37
478.667	10.29
478.869	10.35
479.071	10.35
479.273	10.45
479.475	10.32
479.677	10.25
479.879	10.26
480.081	10.46
480.283	10.48
480.485	10.29
480.686	10.28
480.888	10.32
481.09	10.5
481.292	10.41
481.494	10.41
481.695	10.5
481.897	10.56
482.099	10.59
482.301	10.49
482.502	10.45
482.704	10.5
482.906	10.47
483.107	10.48
483.309	10.51
483.511	10.57
483.712	10.53
483.914	10.6
484.115	10.57
484.317	10.56
484.519	10.61
484.72	10.62
484.922	10.61
485.123	10.63
485.325	10.69
485.526	10.64
485.728	10.62
485.929	10.6
486.131	10.46
486.332	10.44
486.534	10.41
486.735	10.31
486.936	10.4
487.138	10.42
487.339	10.45
487.541	10.39
487.742	10.39
487.943	10.37
488.144	10.43
488.346	10.52
488.547	10.53
488.748	10.54
488.95	10.63
489.151	10.58
489.352	10.62
489.553	10.64
489.755	10.65
489.956	10.6
490.157	10.62
490.358	10.55
490.559	10.5
490.76	10.51
490.961	10.65
491.163	10.68
491.364	10.7
491.565	10.74
491.766	10.76
491.967	10.85
492.168	10.78
492.369	10.78
492.57	10.85
492.771	10.86
492.972	10.89
493.173	10.68
493.374	10.65
493.575	10.57
493.776	10.55
493.976	10.54
494.177	10.37
494.378	10.5
494.579	10.39
494.78	10.43
494.981	10.53
495.182	10.5
495.382	10.93
495.583	10.96
495.784	11.11
495.985	11.03
496.185	11.05
496.386	11.03
496.587	11.15
496.788	11.26
496.988	11.2
497.189	11.08
497.39	11.02
497.59	10.89
497.791	10.96
497.992	10.97
498.192	10.94
498.393	10.9
498.593	11.02
498.794	11.01
498.994	11.18
499.195	11.18
499.395	11.28
499.596	11.38
499.796	11.27
499.997	11.22
500.197	11.3
500.398	11.48
500.598	11.66
500.799	11.53
500.999	11.5
501.199	11.46
501.4	11.4
501.6	11.28
501.801	11.39
502.001	11.44
502.201	11.36
502.402	11.16
502.602	11.13
502.802	11.09
503.002	11.13
503.203	11.19
503.403	11.18
503.603	11.04
503.803	11.2
504.003	11.04
504.204	11.06
504.404	10.99
504.604	11.11
504.804	11.16
505.004	11.03
505.204	11.05
505.404	10.93
505.604	10.79
505.804	10.96
506.005	10.96
506.205	11.09
506.405	11.05
506.605	11.18
506.805	11.17
507.005	10.92
507.204	11.04
507.404	11.07
507.604	11.06
507.804	10.92
508.004	10.91
508.204	10.69
508.404	10.57
508.604	10.5
508.804	10.51
509.003	10.58
509.203	10.92
509.403	10.82
509.603	11
509.803	11
510.002	11.18
510.202	11.1
510.402	11.22
510.602	11.23
510.801	11.35
511.001	11.5
511.201	11.29
511.4	11.29
511.6	11.38
511.8	11.25
511.999	11.36
512.199	11.25
512.398	11.38
512.598	11.34
512.797	11.37
512.997	11.3
513.197	11.35
513.396	11.64
513.596	11.5
513.795	11.46
513.994	11.54
514.194	11.41
514.393	11.65
514.593	11.64
514.792	11.73
514.992	11.85
515.191	12.01
515.39	11.91
515.59	11.87
515.789	12
515.988	11.98
516.188	12.01
516.387	12.09
516.586	12
516.786	11.98
516.985	12.03
517.184	12.03
517.383	12.1
517.582	12.13
517.782	12.14
517.981	12.09
518.18	12.09
518.379	11.95
518.578	11.94
518.777	11.88
518.976	11.95
519.176	11.92
519.375	11.76
519.574	11.7
519.773	11.71
519.972	11.67
520.171	11.63
520.37	11.66
520.569	11.73
520.768	11.78
520.967	11.91
521.166	11.88
521.365	11.99
521.564	12.04
521.762	11.94
521.961	11.89
522.16	11.89
522.359	11.91
522.558	11.85
522.757	12.04
522.956	12.05
523.154	12.12
523.353	12.09
523.552	12.02
523.751	12.07
523.949	12.15
524.148	12.19
524.347	12.12
524.546	12.22
524.744	12.3
524.943	12.17
525.142	12.23
525.34	12.23
525.539	12.25
525.737	12.29
525.936	12.32
526.135	12.38
526.333	12.37
526.532	12.42
526.73	12.55
526.929	12.48
527.127	12.49
527.326	12.48
527.524	12.51
527.723	12.67
527.921	12.75
528.12	12.76
528.318	12.7
528.516	12.71
528.715	12.73
528.913	12.7
529.112	12.83
529.31	12.9
529.508	12.93
529.707	12.89
529.905	12.82
530.103	12.81
530.301	12.87
530.5	13.02
530.698	13.07
530.896	13.2
531.094	13.15
531.293	13.06
531.491	13.16
531.689	13.18
531.887	13.37
532.085	13.45
532.283	13.47
532.481	13.57
532.68	13.51
532.878	13.55
533.076	13.47
533.274	13.62
533.472	13.76
533.67	13.69
533.868	13.68
534.066	13.64
534.264	13.63
534.462	13.71
534.66	13.64
534.858	13.71
535.056	13.73
535.253	13.8
535.451	13.73
535.649	13.76
535.847	13.78
536.045	13.92
536.243	13.98
536.441	14.04
536.638	14.05
536.836	14.16
537.034	14.14
537.232	14.13
537.43	14.16
537.627	14.16
537.825	14.17
538.023	14.29
538.22	14.36
538.418	14.32
538.616	14.41
538.813	14.32
539.011	14.39
539.209	14.47
539.406	14.48
539.604	14.6
539.801	14.62
539.999	14.55
540.196	14.46
540.394	14.4
540.591	14.56
540.789	14.56
540.986	14.58
541.184	14.64
541.381	14.7
541.579	14.8
541.776	14.79
541.974	14.84
542.171	14.93
542.368	15.08
542.566	15.25
542.763	15.26
542.96	15.29
543.158	15.48
543.355	15.44
543.552	15.38
543.75	15.44
543.947	15.54
544.144	15.64
544.341	15.78
544.539	15.84
544.736	15.75
544.933	15.77
545.13	15.85
545.327	15.76
545.524	15.87
545.722	16.06
545.919	16.08
546.116	16.02
546.313	16.02
546.51	16.02
546.707	16
546.904	16.03
547.101	16.13
547.298	16.08
547.495	16.08
547.692	16.13
547.889	16.22
548.086	16.36
548.283	16.53
548.48	16.62
548.677	16.61
548.874	16.71
549.07	16.79
549.267	16.91
549.464	17.16
549.661	17.44
549.858	17.61
550.055	17.53
550.251	17.49
550.448	17.54
550.645	17.58
550.842	17.71
551.038	17.82
551.235	17.95
551.432	17.81
551.628	17.98
551.825	17.8
552.022	17.95
552.218	17.79
552.415	17.81
552.612	17.88
552.808	18.04
553.005	17.94
553.201	17.99
553.398	17.99
553.594	18.28
553.791	18.15
553.987	18.31
554.184	18.34
554.38	18.89
554.577	19.1
554.773	19.02
554.97	19.02
555.166	19.39
555.362	19.36
555.559	19.43
555.755	19.41
555.952	19.64
556.148	19.78
556.344	19.76
556.541	19.54
556.737	19.58
556.933	19.74
557.129	19.65
557.326	19.6
557.522	19.68
557.718	19.74
557.914	19.86
558.11	19.64
558.307	19.55
558.503	19.64
558.699	19.75
558.895	19.6
559.091	19.77
559.287	20.08
559.483	20.17
559.679	20.33
559.876	20.48
560.072	20.56
560.268	20.83
560.464	20.97
560.66	20.83
560.856	20.9
561.052	21.07
561.247	21.05
561.443	21
561.639	20.99
561.835	20.9
562.031	20.91
562.227	20.71
562.423	20.87
562.619	20.92
562.815	21.14
563.01	21.24
563.206	21.4
563.402	21.49
563.598	21.59
563.793	21.74
563.989	21.9
564.185	21.89
564.381	22.23
564.576	22.2
564.772	22.37
564.968	22.31
565.163	22.45
565.359	22.32
565.555	22.51
565.75	22.54
565.946	22.74
566.141	22.85
566.337	23.18
566.532	23.11
566.728	23.11
566.923	23.03
567.119	23.3
567.314	23.27
567.51	23.51
567.705	23.47
567.901	23.54
568.096	23.31
568.292	23.33
568.487	23.16
568.682	23.27
568.878	23.45
569.073	23.5
569.268	23.46
569.464	23.57
569.659	23.7
569.854	23.68
570.05	23.85
570.245	24.16
570.44	24.24
570.635	24.3
570.831	24.32
571.026	24.48
571.221	24.73
571.416	24.91
571.611	24.94
571.806	24.87
572.002	24.82
572.197	24.91
572.392	24.92
572.587	25.01
572.782	25
572.977	25.23
573.172	25.09
573.367	24.96
573.562	24.81
573.757	24.77
573.952	24.84
574.147	24.92
574.342	24.78
574.537	24.66
574.732	24.6
574.927	24.66
575.121	24.44
575.316	24.5
575.511	24.59
575.706	24.73
575.901	24.79
576.096	24.75
576.29	25.06
576.485	25.12
576.68	25.4
576.875	25.37
577.069	25.63
577.264	25.7
577.459	25.95
577.654	26.02
577.848	26.13
578.043	26.06
578.238	26.34
578.432	26.34
578.627	26.45
578.821	26.39
579.016	26.26
579.21	26.35
579.405	26.32
579.6	26.25
579.794	26.48
579.989	26.39
580.183	26.53
580.378	26.49
580.572	26.63
580.766	26.78
580.961	26.77
581.155	27.12
581.35	26.89
581.544	27.06
581.738	27.14
581.933	27.06
582.127	27.35
582.321	27.44
582.516	27.42
582.71	27.33
582.904	27.33
583.099	27.36
583.293	27.13
583.487	27.07
583.681	27.12
583.875	26.91
584.07	26.69
584.264	26.53
584.458	26.59
584.652	26.47
584.846	26.51
585.04	26.29
585.234	26.37
585.428	26.54
585.623	26.88
585.817	26.74
586.011	26.88
586.205	27.04
586.399	27.06
586.593	27.12
586.787	27.29
586.981	27.13
587.174	27.47
587.368	27.14
587.562	27.1
587.756	27.04
587.95	26.95
588.144	26.89
588.338	26.92
588.532	26.85
588.725	26.71
588.919	26.56
589.113	26.76
589.307	26.61
589.501	26.88
589.694	27.02
589.888	26.94
590.082	27.13
590.275	27.11
590.469	27.34
590.663	27.55
590.856	27.69
591.05	27.7
591.244	27.63
591.437	27.81
591.631	27.85
591.824	27.89
592.018	28.06
592.212	28.12
592.405	28.46
592.599	28.44
592.792	28.24
592.986	28.32
593.179	28.38
593.372	28.41
593.566	28.33
593.759	28.25
593.953	28.43
594.146	28.33
594.339	28.48
594.533	28.3
594.726	28.28
594.92	28.57
595.113	28.8
595.306	28.83
595.499	28.83
595.693	28.96
595.886	29.11
596.079	29.27
596.272	29.29
596.466	29.34
596.659	29.18
596.852	29.19
597.045	29.03
597.238	28.95
597.431	29.05
597.624	29.05
597.818	28.83
598.011	28.7
598.204	28.41
598.397	28.43
598.59	28.41
598.783	28.76
598.976	28.92
599.169	28.9
599.362	28.89
599.555	28.73
599.748	28.97
599.941	29.25
600.134	29.51
600.326	29.76
600.519	29.84
600.712	29.82
600.905	29.66
601.098	29.58
601.291	29.64
601.483	29.75
601.676	30.11
601.869	29.86
602.062	29.56
602.255	29.47
602.447	29.22
602.64	29.16
602.833	29.01
603.025	29.09
603.218	29.17
603.411	29.13
603.603	29
603.796	28.77
603.989	28.66
604.181	29.03
604.374	29.05
604.566	29.16
604.759	29.22
604.951	29.41
605.144	29.5
605.336	29.45
605.529	29.42
605.721	29.55
605.914	29.83
606.106	30.15
606.299	30.05
606.491	29.93
606.683	29.97
606.876	30
607.068	29.89
607.26	29.61
607.453	29.76
607.645	29.86
607.837	29.6
608.03	29.49
608.222	29.41
608.414	29.26
608.606	29.34
608.799	29.39
608.991	29.33
609.183	29.51
609.375	29.71
609.567	29.47
609.759	29.46
609.952	29.66
610.144	29.6
610.336	29.59
610.528	29.76
610.72	29.81
610.912	29.7
611.104	29.99
611.296	30.05
611.488	30
611.68	30.22
611.872	30.43
612.064	30.49
612.256	30.39
612.448	30.25
612.64	30.26
612.832	30.22
613.023	30.14
613.215	29.92
613.407	29.61
613.599	29.72
613.791	29.6
613.983	29.41
614.174	29.28
614.366	29.48
614.558	29.64
614.75	29.46
614.941	29.55
615.133	29.59
615.325	29.49
615.516	29.74
615.708	29.68
615.9	29.92
616.091	29.82
616.283	29.69
616.475	29.86
616.666	30.17
616.858	30.17
617.049	30.12
617.241	30.29
617.432	30.37
617.624	30.46
617.815	30.7
618.007	30.44
618.198	30.61
618.39	30.67
618.581	30.5
618.773	30.4
618.964	30.71
619.155	30.69
619.347	30.39
619.538	30.67
619.729	30.59
619.921	30.57
620.112	30.56
620.303	30.63
620.494	30.48
620.686	30.8
620.877	30.65
621.068	30.14
621.259	30.14
621.451	30.24
621.642	29.9
621.833	29.81
622.024	29.83
622.215	30.02
622.406	30.14
622.597	30.58
622.788	30.51
622.98	30.64
623.171	31.02
623.362	31.09
623.553	31.46
623.744	31.59
623.935	31.63
624.126	31.66
624.317	31.64
624.508	31.48
624.698	31.63
624.889	31.51
625.08	31.51
625.271	31.33
625.462	31.32
625.653	31.36
625.844	31.27
626.034	31.25
626.225	31
626.416	30.77
626.607	30.75
626.798	30.57
626.988	30.58
627.179	30.73
627.37	30.95
627.56	31.21
627.751	31.25
627.942	31.43
628.132	31.61
628.323	31.92
628.514	32.21
628.704	32.3
628.895	32.37
629.085	32.33
629.276	32.03
629.466	31.97
629.657	31.92
629.847	32
630.038	32.04
630.228	32.01
630.419	31.8
630.609	31.91
630.8	31.98
630.99	31.87
631.181	32
631.371	31.93
631.561	32.26
631.752	32.19
631.942	32.01
632.132	31.78
632.323	31.48
632.513	31.43
632.703	31.19
632.893	31.27
633.084	31.36
633.274	31.28
633.464	31.54
633.654	31.16
633.844	30.92
634.034	31.3
634.225	31.51
634.415	31.36
634.605	31.29
634.795	31.42
634.985	31.35
635.175	31.15
635.365	31.32
635.555	31.58
635.745	31.5
635.935	31.98
636.125	31.48
636.315	31.25
636.505	31.56
636.695	31.89
636.885	31.82
637.075	31.99
637.265	32.62
637.455	32.68
637.644	32.36
637.834	32.79
638.024	32.59
638.214	32.62
638.404	32.86
638.593	33.17
638.783	32.73
638.973	32.93
639.163	32.92
639.352	32.28
639.542	31.79
639.732	32.25
639.921	32.03
640.111	32.02
640.301	31.98
640.49	31.41
640.68	31.33
640.87	31.65
641.059	31.71
641.249	31.75
641.438	32
641.628	32.27
641.817	31.67
642.007	31.83
642.196	31.91
642.386	31.88
642.575	32.81
642.764	32.63
642.954	32.68
643.143	32.08
643.333	31.95
643.522	31.91
643.711	31.77
643.901	32.16
644.09	32.02
644.279	31.62
644.469	31.84
644.658	31.7
644.847	31.9
645.036	31.68
645.226	31.95
645.415	31.56
645.604	31.97
645.793	32.23
645.982	32.01
646.171	32.55
646.361	32.92
646.55	32.8
646.739	32.79
646.928	32.84
647.117	33.05
647.306	33.27
647.495	33.49
647.684	33.02
647.873	32.85
648.062	33.13
648.251	32.64
648.44	32.28
648.629	32.77
648.818	32.5
649.007	32.45
649.196	32.05
649.384	32.2
649.573	32.33
649.762	32.33
649.951	32.65
650.14	32.63
650.328	32.82
650.517	33.18
650.706	32.34
650.895	32.34
651.083	32.49
651.272	32.59
651.461	32.52
651.65	32.49
651.838	32.76
652.027	32.44
652.216	32.15
652.404	32.15
652.593	32.16
652.781	32.47
652.97	32.71
653.158	32.67
653.347	32.97
653.535	33.03
653.724	33.14
653.912	32.88
654.101	32.97
654.289	33.2
654.478	33.24
654.666	33.15
654.855	33.46
655.043	33.26
655.231	32.83
655.42	32.96
655.608	32.75
655.796	32.8
655.985	32.89
656.173	33.24
656.361	33.34
656.55	33.04
656.738	32.98
656.926	33.09
657.114	33.18
657.302	33.18
657.491	33.1
657.679	33.08
657.867	32.97
658.055	33.19
658.243	33.27
658.431	33.2
658.619	33.3
658.807	33.06
658.996	33.09
659.184	33.03
659.372	33.4
659.56	33.4
659.748	33.62
659.936	33.53
660.124	33.28
660.311	32.58
660.499	32.69
660.687	32.75
660.875	33.21
661.063	32.91
661.251	32.6
661.439	32.66
661.627	32.42
661.814	32.24
662.002	32.33
662.19	31.89
662.378	32.37
662.565	32.02
662.753	31.7
662.941	31.34
663.129	31.41
663.316	32.12
663.504	31.91
663.692	32.1
663.879	32.3
664.067	32.21
664.254	32.76
664.442	33.02
664.63	32.97
664.817	33.3
665.005	33.77
665.192	33.72
665.38	33.76
665.567	33.79
665.755	33.82
665.942	33.71
666.13	34.25
666.317	34.03
666.504	33.94
666.692	33.88
666.879	33.52
667.067	32.76
667.254	32.63
667.441	32.43
667.629	32.6
667.816	33.27
668.003	33.2
668.19	32.7
668.378	32.99
668.565	32.98
668.752	33.45
668.939	33.67
669.127	34.17
669.314	34.39
669.501	34.06
669.688	34.01
669.875	33.65
670.062	33.74
670.249	34.1
670.436	34.13
670.623	33.93
670.81	33.31
670.997	33.34
671.184	32.94
671.371	32.89
671.558	33.17
671.745	32.44
671.932	32.11
672.119	32.07
672.306	32.21
672.493	32.19
672.68	32.39
672.867	32.85
673.054	32.64
673.24	32.86
673.427	32.57
673.614	32.86
673.801	33.7
673.988	33.81
674.174	33.75
674.361	33.55
674.548	33.24
674.734	33.38
674.921	33.13
675.108	33.4
675.294	34.21
675.481	34.44
675.668	33.93
675.854	33.88
676.041	34.19
676.227	34.5
676.414	33.9
676.601	34.34
676.787	34.27
676.974	34.42
677.16	34.43
677.347	33.78
677.533	33.95
677.719	34.31
677.906	34.38
678.092	33.76
678.279	33.38
678.465	33.48
678.651	33.63
678.838	33.68
679.024	33.48
679.21	33.42
679.397	33.82
679.583	33.79
679.769	33.89
679.955	33.43
680.142	33.88
680.328	33.93
680.514	34.45
680.7	34.49
680.886	34.39
681.073	34.6
681.259	34.69
681.445	34.43
681.631	34.69
681.817	34.54
682.003	35.06
682.189	35.26
682.375	35.49
682.561	34.98
682.747	34.94
682.933	35.18
683.119	34.95
683.305	34.53
683.491	34.47
683.677	34.47
683.863	34.24
684.049	33.77
684.235	33.09
684.42	33.32
684.606	34.23
684.792	33.56
684.978	33.77
685.164	33.93
685.349	34.34
685.535	34.2
685.721	33.54
685.907	33.47
686.092	33.56
686.278	33.79
686.464	33.33
686.649	33.31
686.835	33.61
687.021	33.29
687.206	33.44
687.392	33.42
687.577	33.47
687.763	33.57
687.948	34.15
688.134	34.03
688.319	34.17
688.505	34.36
688.69	33.5
688.876	33.59
689.061	33.4
689.247	33.91
689.432	33.98
689.618	33.87
689.803	34.39
689.988	33.75
690.174	34
690.359	34.17
690.544	34.41
690.73	35.01
690.915	35.12
691.1	35.39
691.285	34.63
691.471	34.54
691.656	34.91
691.841	34.88
692.026	34.73
692.211	34.63
692.396	34.79
692.582	34.09
692.767	33.88
692.952	34.02
693.137	33.96
693.322	34.11
693.507	34.35
693.692	34.28
693.877	34.16
694.062	34.49
694.247	34.2
694.432	34.8
694.617	35.63
694.802	35.62
694.987	35.11
695.172	34.58
695.357	34.98
695.541	34.92
695.726	35.02
695.911	35.35
696.096	35.12
696.281	35.18
696.466	34.36
696.65	34.19
696.835	33.44
697.02	33.5
697.204	33.89
697.389	33.8
697.574	33.92
697.759	33.92
697.943	33.52
698.128	33.48
698.312	33.27
698.497	32.99
698.682	32.93
698.866	33.88
699.051	33.84
699.235	33.64
699.42	33.44
699.604	33.8
699.789	33.8
699.973	34.08
700.158	34.43
700.342	35.02
700.527	35.34
700.711	34.89
700.895	34.62
701.08	35.18
701.264	36.43
701.448	36.64
701.633	35.92
701.817	35.56
702.001	35.05
702.186	34.88
702.37	34.6
702.554	34.85
702.738	35.21
702.923	35.32
703.107	34.94
703.291	33.72
703.475	33.59
703.659	33.4
703.843	33.9
704.027	34.06
704.212	34.34
704.396	34.8
704.58	34.92
704.764	35.04
704.948	34.84
705.132	34.95
705.316	34.66
705.5	34.59
705.684	34.93
705.868	34.63
706.052	34.38
706.235	34.7
706.419	34.55
706.603	34.27
706.787	33.69
706.971	34.44
707.155	34.61
707.339	35.08
707.522	35.03
707.706	35.4
707.89	36.3
708.074	37.07
708.257	37.14
708.441	36.97
708.625	36.96
708.808	37.93
708.992	37.06
709.176	37.06
709.359	36.62
709.543	37.12
709.727	36.46
709.91	35.46
710.094	35.13
710.277	34.42
710.461	34.45
710.644	34.55
710.828	34.34
711.011	34.81
711.195	34.37
711.378	34.78
711.562	34.5
711.745	35.74
711.928	35.87
712.112	35.87
712.295	36.05
712.478	36.69
712.662	36.92
712.845	36.7
713.028	35.63
713.212	35.53
713.395	34.99
713.578	35.32
713.761	34.78
713.945	34.69
714.128	34.65
714.311	34.82
714.494	34.66
714.677	34.51
714.86	34.02
715.043	34.79
715.227	35.09
715.41	35.53
715.593	35.26
715.776	34.76
715.959	34.75
716.142	35.1
716.325	35.08
716.508	34.22
716.691	33.91
716.874	34.65
717.057	33.94
717.239	34.52
717.422	34.77
717.605	35.11
717.788	34.81
717.971	35.65
718.154	35.39
718.337	35.52
718.519	35.53
718.702	35.77
718.885	35.86
719.068	36.59
719.25	36.15
719.433	35.7
719.616	35.13
719.798	35.93
719.981	36.01
720.164	35.56
720.346	35.72
720.529	36.32
720.712	36.44
720.894	35.71
721.077	35.7
721.259	35.17
721.442	35.27
721.624	35.39
721.807	34.54
721.989	33.29
722.172	33.7
722.354	33.23
722.537	32.28
722.719	33.2
722.901	32.64
723.084	32.22
723.266	32.93
723.448	33.18
723.631	32.55
723.813	33.05
723.995	34.72
724.178	34.69
724.36	34.19
724.542	34.79
724.724	33.68
724.907	34.23
725.089	34.63
725.271	35.05
725.453	36.09
725.635	35.78
725.817	36.05
725.999	36.13
726.181	36.54
726.364	37.96
726.546	37.05
726.728	36.4
726.91	37.53
727.092	37.4
727.274	36.22
727.456	35.1
727.638	36.23
727.819	36.07
728.001	35.18
728.183	35.19
728.365	34.13
728.547	35.42
728.729	36.49
728.911	35.78
729.093	35.58
729.274	35.94
729.456	35.77
729.638	35.93
729.82	36.83
730.001	36.39
730.183	35.66
730.365	36.08
730.546	36
730.728	34.76
730.91	35.15
731.091	36.48
731.273	37.38
731.455	37.18
731.636	37.31
731.818	36.18
731.999	36.72
732.181	38.15
732.362	38.43
732.544	38.88
732.725	38.64
732.907	38.07
733.088	36.99
733.27	36.66
733.451	37.21
733.633	36.86
733.814	36.71
733.995	35.98
734.177	34.49
734.358	33.57
734.539	32.5
734.721	33.83
734.902	35.61
735.083	35.8
735.264	35.22
735.446	35.99
735.627	35.54
735.808	35.88
735.989	36.71
736.17	37.53
736.351	38.48
736.533	39.44
736.714	39.65
736.895	37.49
737.076	37.13
737.257	37.73
737.438	37.34
737.619	37.53
737.8	37.41
737.981	36.46
738.162	36.23
738.343	35.7
738.524	34.89
738.705	33.12
738.886	33.45
739.067	34.25
739.247	33.37
739.428	33.86
739.609	34.47
739.79	34.26
739.971	34.9
740.151	34.89
740.332	34.92
740.513	35.85
740.694	37
740.874	37.49
741.055	36.61
741.236	36.23
741.417	36.36
741.597	36.4
741.778	35.87
741.958	36.27
742.139	36.31
742.32	37.05
742.5	36.35
742.681	38.13
742.861	38.06
743.042	38.47
743.222	38.7
743.403	38.34
743.583	38.48
743.764	38.79
743.944	39.3
744.124	39.82
744.305	38.6
744.485	38.85
744.666	37.22
744.846	36.77
745.026	36.21
745.207	38.15
745.387	36.81
745.567	36.46
745.747	37.26
745.928	36.21
746.108	36.39
746.288	35.85
746.468	36.69
746.648	35.47
746.829	36.17
747.009	37.1
747.189	35.74
747.369	35.25
747.549	34.95
747.729	34.16
747.909	33.85
748.089	33.28
748.269	34.95
748.449	34.54
748.629	36.27
748.809	36.06
748.989	34.29
749.169	33.49
749.349	33.19
749.529	33.76
749.709	35.28
749.889	36.59
750.068	37.24
750.248	35.26
750.428	35.08
750.608	34.36
750.788	36.28
750.967	36.68
751.147	37.18
751.327	37.77
751.507	37.42
751.686	37.62
751.866	37.61
752.046	36.57
752.225	36.78
752.405	37.44
752.585	38.27
752.764	35.56
752.944	37.09
753.123	37.46
753.303	37.96
753.482	37.74
753.662	36.9
753.841	36.9
754.021	37.24
754.2	38.28
754.38	37.24
754.559	37.08
754.739	37.64
754.918	37.13
755.097	35.92
755.277	35.31
755.456	34.94
755.635	34.63
755.815	32.08
755.994	32.99
756.173	33.59
756.352	33.56
756.532	32.74
756.711	32.59
756.89	33.37
757.069	34.07
757.248	33.77
757.427	33.97
757.607	35.54
757.786	37.34
757.965	36.52
758.144	36
758.323	36.12
758.502	37
758.681	37.83
758.86	38.23
759.039	39.22
759.218	39.76
759.397	39.22
759.576	38.08
759.755	38.69
759.934	39.53
760.113	39.16
760.291	39.87
760.47	39.09
760.649	37.5
760.828	36.13
761.007	36.49
761.186	37.91
761.364	37.47
761.543	37.07
761.722	35.32
761.901	34.78
762.079	34.71
762.258	34.26
762.437	34.51
762.615	35.15
762.794	35.64
762.972	35.26
763.151	34.49
763.33	34.77
763.508	34.79
763.687	35.65
763.865	35.22
764.044	35.65
764.222	36.16
764.401	36.26
764.579	35.91
764.758	35.97
764.936	36.02
765.114	36.16
765.293	36.8
765.471	37.49
765.65	38.46
765.828	38.23
766.006	37.65
766.184	36.79
766.363	34.82
766.541	34.62
766.719	34.56
766.898	34.75
767.076	34.2
767.254	33.86
767.432	33
767.61	31.88
767.788	30.93
767.967	33.72
768.145	33.37
768.323	35.34
768.501	36.48
768.679	36.25
768.857	37.61
769.035	40.46
769.213	40.15
769.391	40.64
769.569	39.72
769.747	41.08
769.925	39.75
770.103	40.7
770.281	41.69
770.459	41.52
770.636	40.96
770.814	38.32
770.992	36.91
771.17	38.14
771.348	39.93
771.525	38.42
771.703	39.35
771.881	38.15
772.059	36.92
772.236	36.34
772.414	36.97
772.592	37.81
772.769	39.67
772.947	37.98
773.125	38.23
773.302	37.9
773.48	37.86
773.657	36.57
773.835	35.42
774.013	36.39
774.19	38.4
774.368	39.08
774.545	38.62
774.723	39.41
774.9	40.54
775.077	40.11
775.255	37.98
775.432	41.51
775.61	43.64
775.787	44.32
775.964	44.03
776.142	40.86
776.319	42.62
776.496	41.76
776.674	39.69
776.851	37.49
777.028	37.15
777.205	35.68
777.382	34.79
777.56	34.09
777.737	34.37
777.914	34.26
778.091	34.94
778.268	32.47
778.445	34.49
778.622	33.51
778.8	35.44
778.977	35.4
779.154	39.07
779.331	39.23
779.508	38.06
779.685	38.19
779.862	38.4
780.038	39.71
780.215	40.62
780.392	40.73
780.569	43.29
780.746	42.56
780.923	42.44
781.1	41.54
781.277	40.86
781.453	40.34
781.63	40.57
781.807	38.67
781.984	38.54
782.16	37.75
782.337	35.94
782.514	34.52
782.691	35.82
782.867	33.17
783.044	28.94
783.221	30.31
783.397	30.2
783.574	29.41
783.75	30
783.927	33.52
784.103	35.02
784.28	35.99
784.456	35.02
784.633	35.16
784.809	37.3
784.986	40.89
785.162	39.62
785.339	42.75
785.515	43.71
785.692	45.92
785.868	42.94
786.044	40.96
786.221	40.81
786.397	39.84
786.573	37.46
786.749	36.48
786.926	35.83
787.102	36.56
787.278	34.75
787.454	36.48
787.631	34.34
787.807	31.99
787.983	32.16
788.159	29.97
788.335	30.82
788.511	33.1
788.687	33.61
788.863	35.86
789.039	36.3
789.216	35.52
789.392	34.53
789.568	35.37
789.744	36.37
789.919	34.83
790.095	38.12
790.271	37.5
790.447	34.61
790.623	33.75
790.799	31.09
790.975	32.04
791.151	34.74
791.327	34.62
791.502	34.1
791.678	34.46
791.854	34.54
792.03	33.63
792.205	36.79
792.381	40.79
792.557	43.58
792.733	41.3
792.908	39.35
793.084	38.35
793.259	37.92
793.435	38.74
793.611	42.95
793.786	46.71
793.962	44.55
794.137	41.28
794.313	39.51
794.488	40.73
794.664	44.51
794.839	43.14
795.015	44.59
795.19	42.25
795.366	42.75
795.541	36.6
795.716	34.47
795.892	37.83
796.067	38.95
796.242	37.63
796.418	34.66
796.593	31.09
796.768	34.06
796.944	34.41
797.119	36.18
797.294	35.75
797.469	39.22
797.644	40.63
797.82	36.72
797.995	36.99
798.17	38.99
798.345	43.79
798.52	47.06
798.695	43.93
798.87	42.85
799.045	41.77
799.22	41.48
799.395	39.72
799.57	39.67
799.745	41.18
799.92	39.38
800.095	38.21
800.27	33.89
800.445	33.69
800.62	36.65
800.795	33.82
800.97	35.37
801.145	35.29
801.319	35.61
801.494	34.32
801.669	33.59
801.844	33.92
802.018	39.03
802.193	40.94
802.368	40.09
802.543	40.09
802.717	41.64
802.892	40.18
803.067	43.64
803.241	41.21
803.416	40.29
803.59	40.68
803.765	43.71
803.94	42.53
804.114	39.88
804.289	37.84
804.463	39.63
804.638	40.55
804.812	40.54
804.986	37.93
805.161	38.65
805.335	38.75
805.51	39.47
805.684	37.38
805.858	31.59
806.033	31.75
806.207	32.45
806.381	29.41
806.556	28.46
806.73	29.16
806.904	28.21
807.078	27.55
807.253	27.39
807.427	27.34
807.601	27.47
807.775	32.51
807.949	30.85
808.123	31.72
808.298	29.55
808.472	30.28
808.646	31.72
808.82	31.81
808.994	33.83
809.168	34.04
809.342	38.54
809.516	39.8
809.69	37.69
809.864	38.9
810.038	38.68
810.212	39.97
810.385	39.89
810.559	38.88
810.733	38.88
810.907	40.69
811.081	37.69
811.255	31.55
811.428	30.11
811.602	32.62
811.776	38.13
811.95	39.18
812.123	40.63
812.297	39.84
812.471	40.31
812.644	41.02
812.818	39.69
812.992	41.17
813.165	41.78
813.339	42.26
813.512	42.43
813.686	39.03
813.86	38.02
814.033	41.41
814.207	42.61
814.38	37.93
814.554	43.31
814.727	43.45
814.9	47.58
815.074	46.31
815.247	44.24
815.421	40.98
815.594	39.91
815.767	38.97
815.941	33.43
816.114	31.44
816.287	39.34
816.46	30.28
816.634	23.26
816.807	16.28
816.98	15.14
817.153	17.27
817.327	15.35
817.5	19.04
817.673	22.36
817.846	26.66
818.019	32.69
818.192	32.31
818.365	36.66
818.538	39.78
818.711	45.63
818.884	45.9
819.057	44.38
819.23	44.27
819.403	42.63
819.576	41.93
819.749	42.05
819.922	40.05
820.095	39.81
820.268	35.44
820.441	35.16
820.614	32.74
820.786	30.96
820.959	34.24
821.132	36.05
821.305	37.08
821.477	36.83
821.65	37.03
821.823	36.38
821.996	35.78
822.168	37.5
822.341	37.83
822.514	38.71
822.686	38.65
822.859	38.91
823.031	38.66
823.204	38.46
823.376	38.53
823.549	38.81
823.722	39.02
823.894	39.25
824.067	38.46
824.239	38.27
824.411	38.26
824.584	39.53
824.756	37.77
824.929	37.06
825.101	35.58
825.273	36.04
825.446	35.47
825.618	35.37
825.79	35.09
825.963	36.25
826.135	35.86
826.307	34.69
826.479	34.61
826.652	35.94
826.824	36.54
826.996	37.26
827.168	36.65
827.34	36.26
827.512	34.81
827.684	34.55
827.856	34.04
828.029	34.84
828.201	34.19
828.373	33.99
828.545	33.33
828.717	32.15
828.889	33.01
829.061	33.62
829.232	34.19
829.404	36.08
829.576	36.49
829.748	36.72
829.92	35.32
830.092	37.11
830.264	37.43
830.436	37.09
830.607	40.8
830.779	42.59
830.951	40.74
831.123	40.38
831.294	39.07
831.466	38.77
831.638	37.79
831.809	38.37
831.981	39.26
832.153	39.94
832.324	41.57
832.496	42.36
832.667	38.26
832.839	38.64
833.011	35.53
833.182	37.36
833.354	34.91
833.525	35.59
833.697	37.15
833.868	36.8
834.039	35.21
834.211	37.6
834.382	36.94
834.554	36.64
834.725	37.05
834.896	39.69
835.068	38.71
835.239	39.63
835.41	37.86
835.581	36.17
835.753	37.91
835.924	36.37
836.095	33.54
836.266	33.76
836.438	35.83
836.609	35.24
836.78	34.81
836.951	37.09
837.122	37.56
837.293	40.65
837.464	42.02
837.635	39.8
837.806	42.31
837.977	44.1
838.148	43.62
838.319	42.82
838.49	41.83
838.661	41.07
838.832	35.24
839.003	32.35
839.174	33.19
839.345	31.13
839.516	29.69
839.687	29.24
839.857	28.33
840.028	26.11
840.199	26.94
840.37	31.1
840.54	31.51
840.711	33.17
840.882	32.96
841.053	27.65
841.223	33.09
841.394	29.82
841.564	27.99
841.735	29.56
841.906	33.4
842.076	33.31
842.247	35.33
842.417	38.94
842.588	34.79
842.758	40.44
842.929	43.24
843.099	48.26
843.27	53.4
843.44	51.08
843.611	56.58
843.781	47.68
843.951	41.77
844.122	37.73
844.292	32.19
844.462	49.96
844.633	44.84
844.803	51.2
844.973	44.36
845.144	48.1
845.314	55.07
845.484	31.37
845.654	39.19
845.824	44.25
845.995	40.98
846.165	40.35
846.335	30.11
846.505	35.84
846.675	34.79
846.845	41.48
847.015	39.5
847.185	41.24
847.355	45.73
847.525	52.13
847.695	53.52
847.865	61.7
848.035	58.86
848.205	57.92
848.375	52.55
848.545	57.91
848.715	56.72
848.884	51.22
849.054	41.17
849.224	35.14
849.394	31.16
849.564	35.37
849.733	27.03
849.903	24.29
850.073	37.33
850.243	55.04
850.412	52.13
850.582	42.77
850.752	37.98
850.921	35.59
851.091	41.04
851.26	41.2
851.43	43.36
851.599	40.46
851.769	47.2
851.939	45
852.108	40.02
852.278	28.57
852.447	36.16
852.616	50.14
852.786	70.02
852.955	60.24
853.125	57.2
853.294	52.56
853.463	47.2
853.633	42.68
853.802	27.65
853.971	11.65
854.141	16.46
854.31	34.84
854.479	35.95
854.648	35.11
854.818	41.38
854.987	39.59
855.156	30.66
855.325	37.74
855.494	44.89
855.663	56.61
855.832	55.06
856.001	55.63
856.171	44.54
856.34	36.06
856.509	37.09
856.678	32.13
856.847	39.42
857.016	29.22
857.185	27.69
857.353	19.1
857.522	26.21
857.691	23.66
857.86	50.34
858.029	43.61
858.198	62.98
858.367	53.15
858.535	53.75
858.704	45.5
858.873	58.02
859.042	57.52
859.21	56.95
859.379	43.48
859.548	45
859.717	32.03
859.885	37.65
860.054	29.03
860.222	32.91
860.391	29.95
860.56	27.41
860.728	35.31
860.897	42.07
861.065	53.71
861.234	65.38
861.402	77.89
861.571	76.49
861.739	67.21
861.908	72.29
862.076	73.32
862.244	76.79
862.413	94.12
862.581	97.55
862.749	98.76
862.918	83.68
863.086	62.28
863.254	51.32
863.423	39.78
863.591	48.01
863.759	49.29
863.927	47.1
864.096	37.68
864.264	34.54
864.432	37.96
864.6	30.45
864.768	29.92
864.936	38.24
865.104	29.49
865.272	34.47
865.44	48.37
865.608	33.62
865.776	26.51
865.944	43.13
866.112	32.49
866.28	36.61
866.448	27.49
866.616	19.67
866.784	2.2
866.952	4.57
867.12	22.33
867.288	22.64
867.455	27.59
867.623	22.12
867.791	17.47
867.959	20.76
868.127	18.86
868.294	24.24
868.462	29.54
868.63	32.55
868.797	32
868.965	28.27
869.133	15.01
869.3	22.4
869.468	29.52
869.636	24.22
869.803	23.72
869.971	20.94
870.138	15.8
870.306	24.28
870.473	38.4
870.641	55.99
870.808	63.12
870.975	86.89
871.143	79.8
871.31	85.9
871.478	86.37
871.645	93.9
871.812	100.53
871.98	102.47
872.147	100.86
872.314	110.23
872.482	103.62
872.649	89.96
872.816	91.32
872.983	80.29
873.15	67.91
873.318	73.4
873.485	65.23
873.652	66.23
873.819	55.91
873.986	57.48
874.153	51.49
874.32	46.1
874.487	52.95
874.654	57.31
874.821	64.73
874.988	54.89
875.155	64.6
875.322	57.57
875.489	61.36
875.656	52.49
875.823	50.32
875.99	50.67
876.157	66.19
876.324	49.69
876.49	58.3
876.657	50.65
876.824	88.89
876.991	41.93
877.157	80.24
877.324	59.3
877.491	71.31
877.658	72.8
877.824	48.03
877.991	40.99
878.157	56.78
878.324	40.43
878.491	34.41
878.657	25.86
878.824	35.66
878.99	12.73
879.157	28.92
879.323	32.19
879.49	22.97
879.656	41.94
879.823	31.65
879.989	25
880.156	34.34
880.322	55.02
880.488	51.27
880.655	59.34
880.821	61.1
880.987	52.05
881.154	51.27
881.32	52.08
881.486	45.94
881.652	51.35
881.819	48.07
881.985	46.14
882.151	40.44
882.317	43.17
882.483	42.13
882.649	42.64
882.816	38.74
882.982	37.58
883.148	37.74
883.314	38.38
883.48	38.27
883.646	35.2
883.812	35.11
883.978	35.67
884.144	34.59
884.31	36.27
884.476	35.02
884.642	36.04
884.807	38.21
884.973	36.61
885.139	38.42
885.305	36.2
885.471	37.4
885.637	36.48
885.802	38.59
885.968	38.56
886.134	35.31
886.3	35.53
886.465	39.15
886.631	36.89
886.797	35.07
886.962	24.84
887.128	24.35
887.293	34.92
887.459	47.42
887.625	50.46
887.79	52.58
887.956	60.62
888.121	62.81
888.287	63.78
888.452	61.5
888.618	66.87
888.783	83.66
