Data from 2937869_Reflection_1.txt Node
Date: Wed Jul 15 15:02:45 EDT 2015
User: robert
Spectrometer: USB4E03001
Autoset integration time: false
Trigger mode: 4
Integration Time (sec): 1.000000E-1
Scans to average: 10
Electric dark correction enabled: true
Nonlinearity correction enabled: false
Boxcar width: 5
Stray light correction enabled: false
XAxis mode: Wavelengths
Stop averaging: false
Number of Pixels in Spectrum: 3648
>>>>>Begin Spectral Data<<<<<
177.566	311.63
177.785	138.31
178.005	-779.41
178.225	-191.26
178.445	-62.3
178.665	258.81
178.885	94.29
179.105	513.64
179.324	-1.74
179.544	38.23
179.764	31.1
179.984	39.59
180.204	51.8
180.423	51.26
180.643	52.28
180.863	50.4
181.083	-2.93
181.302	16.77
181.522	72.71
181.742	173.34
181.961	1072.15
182.181	1483.94
182.401	-707.12
182.621	-130.38
182.84	-147.45
183.06	-105.93
183.279	-126.71
183.499	-160.1
183.719	-128.64
183.938	-93.46
184.158	-91.14
184.377	-61.96
184.597	-20.02
184.816	-18.74
185.036	-120.87
185.256	-62.17
185.475	-33.54
185.695	668.54
185.914	232.97
186.134	122.6
186.353	142.66
186.572	111.27
186.792	56.55
187.011	91.4
187.231	146.51
187.45	125.22
187.67	114.95
187.889	74.52
188.108	171.56
188.328	16.31
188.547	67.13
188.766	-28.33
188.986	-213.25
189.205	-202.88
189.424	-79.45
189.644	-82.91
189.863	-199.22
190.082	-280.11
190.302	31485.71
190.521	1456.99
190.74	181.66
190.959	373.57
191.178	230.12
191.398	131.22
191.617	111.38
191.836	72.6
192.055	107.36
192.274	88.99
192.494	88.5
192.713	60.2
192.932	6.9
193.151	12.05
193.37	-1.33
193.589	-79.75
193.808	-330.31
194.027	140.74
194.246	59.85
194.465	73.85
194.685	12.64
194.904	27.39
195.123	14.85
195.342	20.93
195.561	-4.44
195.78	-42.57
195.999	7.21
196.218	1.29
196.436	5.45
196.655	-6.77
196.874	-1.96
197.093	18.72
197.312	11.91
197.531	-5.81
197.75	-0.6
197.969	22.63
198.188	84.63
198.407	64.94
198.625	58.3
198.844	66.19
199.063	65.17
199.282	332.19
199.501	128.03
199.719	111.6
199.938	181.42
200.157	588.75
200.376	318.84
200.594	191.17
200.813	594.75
201.032	1751.04
201.251	2644.79
201.469	-590.4
201.688	197.49
201.907	224.59
202.125	212.98
202.344	328.17
202.563	228.83
202.781	207.58
203	195.59
203.218	268.93
203.437	185.74
203.656	764.15
203.874	-675.72
204.093	-143.6
204.311	-29.54
204.53	-21.12
204.748	-4.98
204.967	0.89
205.185	22.59
205.404	23.98
205.622	27.85
205.841	39.94
206.059	60.3
206.278	-1200
206.496	71.35
206.715	-114.93
206.933	-2815.53
207.151	-1531.54
207.37	-956.76
207.588	-826.37
207.806	-302.29
208.025	-235.53
208.243	2413.88
208.461	1220.46
208.68	306.47
208.898	925.24
209.116	487.74
209.335	-87.6
209.553	-198.45
209.771	-469.1
209.989	-11.74
210.208	-207.38
210.426	-4392.22
210.644	480.64
210.862	-722.87
211.081	-147.4
211.299	2134.12
211.517	421.08
211.735	183.87
211.953	167.95
212.171	191.43
212.39	165.8
212.608	309.88
212.826	352.12
213.044	3034.03
213.262	-499.02
213.48	2233.49
213.698	-454.18
213.916	-101
214.134	-66.72
214.352	-136.14
214.57	11
214.788	36.28
215.006	111.97
215.224	114.77
215.442	144.77
215.66	346.99
215.878	183.27
216.096	296.86
216.314	253.4
216.532	270.79
216.75	179.93
216.968	207.81
217.185	203.39
217.403	213.24
217.621	479.02
217.839	440.7
218.057	205.71
218.275	-64.56
218.492	-64.32
218.71	157.08
218.928	61.6
219.146	53.39
219.363	94.74
219.581	117.28
219.799	145.71
220.017	169.04
220.234	181.38
220.452	241.95
220.67	242.07
220.887	192.14
221.105	205.47
221.323	604.35
221.54	-659.03
221.758	-50.67
221.976	-33.21
222.193	6.79
222.411	6.23
222.629	-2
222.846	18.87
223.064	31.58
223.281	23.23
223.499	48.65
223.716	76.45
223.934	93.91
224.151	93.89
224.369	96.75
224.586	72.95
224.804	12.14
225.021	-181.54
225.239	-154.56
225.456	-22.33
225.674	-40.71
225.891	-98.56
226.108	-188.67
226.326	-218.81
226.543	-870.72
226.76	-772.17
226.978	-330.25
227.195	-149.69
227.413	-75.72
227.63	-47.83
227.847	-68.62
228.064	-32.52
228.282	-17.29
228.499	-3.45
228.716	-0.08
228.934	7.37
229.151	15.12
229.368	17.68
229.585	20.94
229.802	19.58
230.02	22
230.237	24.21
230.454	18.93
230.671	20.14
230.888	19.87
231.105	24.14
231.323	20.78
231.54	7.24
231.757	1.13
231.974	0.31
232.191	7.73
232.408	2.04
232.625	-19.56
232.842	-10.22
233.059	-12.35
233.276	-33.68
233.493	-39.09
233.71	-27.19
233.927	-23.24
234.144	-15.05
234.361	-9.35
234.578	1.94
234.795	4.18
235.012	18.1
235.229	24.55
235.446	26.03
235.663	37.53
235.879	39.12
236.096	35.69
236.313	45.43
236.53	48.29
236.747	48.41
236.964	46.48
237.181	47.76
237.397	45.08
237.614	41.68
237.831	36.48
238.048	43.76
238.264	29.8
238.481	23.36
238.698	21.63
238.915	15.69
239.131	13.39
239.348	13.86
239.565	14.33
239.781	10.68
239.998	5.19
240.215	9.06
240.431	4.42
240.648	6.73
240.865	17.49
241.081	15.7
241.298	16.67
241.514	16.98
241.731	17.23
241.947	18.32
242.164	19.83
242.38	21.84
242.597	21
242.814	20.63
243.03	22.94
243.246	17.64
243.463	18.88
243.679	16.72
243.896	14.55
244.112	11.87
244.329	13.53
244.545	11.83
244.762	12.01
244.978	11.08
245.194	12.75
245.411	11.49
245.627	17.08
245.843	17.39
246.06	17.71
246.276	19.35
246.492	20.02
246.709	19.01
246.925	19.49
247.141	19.76
247.357	19.26
247.574	18.91
247.79	17.58
248.006	16.64
248.222	14.66
248.439	14.37
248.655	13.77
248.871	13.67
249.087	12.9
249.303	12.04
249.519	12.66
249.736	13.66
249.952	12.56
250.168	14.55
250.384	13.52
250.6	16.95
250.816	15.87
251.032	18.11
251.248	19.44
251.464	19.52
251.68	20.5
251.896	15.08
252.112	13.25
252.328	12.94
252.544	11.86
252.76	14.59
252.976	13.97
253.192	15.72
253.408	14.55
253.624	14.94
253.84	16.86
254.056	14.99
254.272	16.21
254.487	17.98
254.703	21.45
254.919	23.54
255.135	17.66
255.351	20.17
255.567	20.28
255.782	16.18
255.998	15.45
256.214	10.47
256.43	11.83
256.646	12.75
256.861	10.34
257.077	4.34
257.293	1.98
257.508	2.25
257.724	-1.63
257.94	-1.34
258.155	1.61
258.371	-1.1
258.587	2.74
258.802	6.22
259.018	6.92
259.234	8.39
259.449	9.58
259.665	10.14
259.88	10.88
260.096	12.34
260.312	13.1
260.527	13.81
260.743	14.49
260.958	13.28
261.174	11.45
261.389	11.73
261.605	12.14
261.82	12.88
262.036	12.83
262.251	13.46
262.466	13.14
262.682	11.51
262.897	10.55
263.113	11.12
263.328	13.84
263.543	15.26
263.759	13.36
263.974	12.33
264.189	8.44
264.405	5.82
264.62	2.92
264.835	0.13
265.051	2.97
265.266	3.58
265.481	0.96
265.696	-1.52
265.912	1.49
266.127	4.43
266.342	5.21
266.557	6.46
266.773	10.32
266.988	10.98
267.203	10.25
267.418	8.02
267.633	8.66
267.848	10.6
268.064	11.25
268.279	10.35
268.494	9.67
268.709	9.59
268.924	11.73
269.139	10.61
269.354	10.21
269.569	11.59
269.784	12.73
269.999	12.35
270.214	12.32
270.429	12.36
270.644	11.84
270.859	11.92
271.074	13.17
271.289	12.57
271.504	12.15
271.719	12.53
271.934	12.66
272.149	12.28
272.363	12.89
272.578	13.65
272.793	13.1
273.008	13.19
273.223	13.11
273.438	11.49
273.653	10.37
273.867	9.67
274.082	8.93
274.297	8.62
274.512	9.1
274.726	6.36
274.941	4.47
275.156	4.92
275.371	2.37
275.585	2.44
275.8	2.64
276.015	1.75
276.229	2.58
276.444	3.88
276.659	1.45
276.873	2.36
277.088	2.75
277.302	2.8
277.517	3.82
277.732	4.96
277.946	5.35
278.161	6.43
278.375	7.65
278.59	8.19
278.804	6.73
279.019	8.74
279.233	8.13
279.448	6.27
279.662	5.79
279.877	5.29
280.091	7.6
280.306	6.45
280.52	3.02
280.735	4.05
280.949	4.88
281.163	7.05
281.378	5.74
281.592	6.17
281.806	9.44
282.021	10.93
282.235	10.57
282.449	11.48
282.664	14
282.878	15.62
283.092	16.81
283.307	16.29
283.521	15.11
283.735	16.17
283.949	16.99
284.164	16.45
284.378	16.16
284.592	17.12
284.806	14.54
285.02	10.56
285.234	12.02
285.449	10.69
285.663	10.16
285.877	10.38
286.091	8.9
286.305	8.7
286.519	8.15
286.733	8.63
286.947	5.57
287.161	7.98
287.375	10.21
287.589	8.12
287.803	8.04
288.017	8.96
288.231	8.15
288.445	11.03
288.659	10
288.873	11.48
289.087	12.5
289.301	15.82
289.515	14.4
289.729	14.3
289.943	15.9
290.157	16.38
290.371	15.84
290.584	15.64
290.798	13.69
291.012	14.37
291.226	14.21
291.44	12.01
291.654	10.47
291.867	10.16
292.081	10.22
292.295	9.31
292.509	8.14
292.722	8.2
292.936	11.1
293.15	12.24
293.364	10.81
293.577	9.17
293.791	8.84
294.005	10.95
294.218	11.99
294.432	13.03
294.645	12.72
294.859	12.91
295.073	13.23
295.286	11.41
295.5	10.86
295.713	10
295.927	10.32
296.14	11.29
296.354	9.94
296.568	9.29
296.781	9.64
296.994	10.37
297.208	11.49
297.421	11.76
297.635	11.33
297.848	11.91
298.062	11.7
298.275	13.53
298.489	11.12
298.702	11.51
298.915	11.6
299.129	10.13
299.342	9.26
299.555	8
299.769	7.01
299.982	9.01
300.195	9.57
300.409	11.57
300.622	8.92
300.835	10.58
301.048	9.31
301.262	9.12
301.475	10.21
301.688	12.95
301.901	13.63
302.115	13.7
302.328	13.63
302.541	13.15
302.754	12.81
302.967	14.17
303.18	15.44
303.393	18.71
303.607	17.63
303.82	17.5
304.033	16.83
304.246	16.44
304.459	16.08
304.672	15.82
304.885	15.66
305.098	15.83
305.311	13.43
305.524	12.72
305.737	10.45
305.95	12.25
306.163	11.88
306.376	11.02
306.589	10.16
306.802	10.74
307.015	8.64
307.228	9.02
307.44	9.83
307.653	12.95
307.866	11.85
308.079	10.08
308.292	7.58
308.505	7.92
308.718	8.39
308.93	12.88
309.143	12.78
309.356	14.25
309.569	13.63
309.781	13.41
309.994	13.58
310.207	15.14
310.42	17.42
310.632	20.24
310.845	21.07
311.058	20.34
311.27	17.46
311.483	15.55
311.696	15.52
311.908	15.47
312.121	15.12
312.333	14.33
312.546	15.04
312.759	14.6
312.971	13
313.184	9.82
313.396	9.01
313.609	9.3
313.821	10.34
314.034	9.14
314.246	8.86
314.459	8.93
314.671	8.77
314.884	6.76
315.096	6.14
315.309	6.46
315.521	8.07
315.733	8.66
315.946	9.07
316.158	11.21
316.371	12.3
316.583	12.53
316.795	11.07
317.008	11.9
317.22	12.88
317.432	13.49
317.644	14.87
317.857	14.65
318.069	14.18
318.281	13.75
318.494	15.42
318.706	14.14
318.918	15.84
319.13	15.72
319.342	15.07
319.555	14.85
319.767	13.76
319.979	11.66
320.191	14.86
320.403	14.75
320.615	13.96
320.827	13.51
321.039	14.41
321.252	13.35
321.464	15.03
321.676	16.48
321.888	14.16
322.1	16.23
322.312	17.67
322.524	15.73
322.736	15.07
322.948	17.66
323.16	15.36
323.372	16.14
323.584	13.63
323.796	15.99
324.007	15.34
324.219	17.66
324.431	16.99
324.643	16.94
324.855	16.55
325.067	17.13
325.279	14.87
325.491	15.17
325.702	13.86
325.914	18.1
326.126	14.23
326.338	12.74
326.55	12.23
326.761	11.66
326.973	10.88
327.185	11.68
327.396	12.95
327.608	13.5
327.82	13.3
328.032	14.85
328.243	13.6
328.455	15.73
328.666	16.89
328.878	17.47
329.09	18.28
329.301	19.25
329.513	20
329.725	19.55
329.936	18.9
330.148	20.02
330.359	20.36
330.571	17.21
330.782	15.37
330.994	15.48
331.205	16.24
331.417	16.35
331.628	13.74
331.84	15.05
332.051	14.72
332.262	15.28
332.474	14.79
332.685	14.16
332.897	16.32
333.108	17.56
333.319	16.87
333.531	16.85
333.742	18.5
333.953	19.02
334.165	17.31
334.376	17.55
334.587	16.79
334.799	16.09
335.01	16.41
335.221	17.09
335.432	17.5
335.644	17.68
335.855	18.04
336.066	15.64
336.277	16.29
336.488	16.83
336.7	17.23
336.911	19.25
337.122	20.25
337.333	20.08
337.544	18.46
337.755	18.48
337.966	18.57
338.177	17.63
338.388	17.25
338.599	18.3
338.811	17.2
339.022	16.63
339.233	15.67
339.444	14.43
339.655	15.12
339.866	16.38
340.076	15.94
340.287	15.71
340.498	16.25
340.709	16.29
340.92	15.08
341.131	15.48
341.342	16.01
341.553	16.89
341.764	19.46
341.975	18.22
342.185	17.95
342.396	16.61
342.607	17.01
342.818	15.17
343.029	16.21
343.239	15.85
343.45	14.61
343.661	15.53
343.872	14.33
344.082	12.91
344.293	12.56
344.504	13.1
344.714	16.08
344.925	16.24
345.136	17.42
345.346	17.36
345.557	17.59
345.768	19.19
345.978	17.52
346.189	18.01
346.399	18.53
346.61	19.06
346.821	17.13
347.031	16.13
347.242	16.2
347.452	14.63
347.663	13.52
347.873	12.95
348.084	12.78
348.294	13.06
348.504	11.55
348.715	11.55
348.925	11
349.136	13.02
349.346	11.55
349.557	11.06
349.767	13.4
349.977	14.39
350.188	15.15
350.398	13.8
350.608	14.84
350.819	14.74
351.029	14.61
351.239	15.1
351.449	13.84
351.66	14.52
351.87	14.17
352.08	13.48
352.29	14.52
352.501	15.47
352.711	16.55
352.921	17
353.131	18.54
353.341	17.97
353.552	17.37
353.762	18.11
353.972	18.57
354.182	18.99
354.392	18.65
354.602	17.6
354.812	16.11
355.022	17.31
355.232	16.68
355.442	16.62
355.652	15.88
355.862	15.67
356.072	16.69
356.282	16.44
356.492	16.1
356.702	16.46
356.912	16.49
357.122	17.27
357.332	15.78
357.542	15.13
357.752	14.75
357.962	15.4
358.171	16.83
358.381	15.66
358.591	15.06
358.801	14.86
359.011	16.27
359.221	16.31
359.43	15.9
359.64	15.95
359.85	15.76
360.06	16.24
360.269	16.2
360.479	15.69
360.689	16.37
360.899	16.52
361.108	17.24
361.318	15.5
361.528	15.62
361.737	16.59
361.947	16.64
362.156	16.92
362.366	16.86
362.576	16.99
362.785	16.69
362.995	16.2
363.204	16.32
363.414	16.5
363.623	17.81
363.833	17.89
364.042	17.5
364.252	16.45
364.461	15.73
364.671	15.67
364.88	15.64
365.09	16.23
365.299	16.05
365.509	15.5
365.718	14.7
365.927	13.11
366.137	12.84
366.346	11.43
366.555	11.14
366.765	12.61
366.974	11.79
367.183	11.42
367.393	10.22
367.602	10.11
367.811	10.24
368.021	10.51
368.23	11.23
368.439	11.11
368.648	11.42
368.857	13.3
369.067	12.58
369.276	13
369.485	13.31
369.694	14.02
369.903	14.92
370.112	15.21
370.321	14.83
370.531	15.7
370.74	14.82
370.949	15.5
371.158	15.46
371.367	15.36
371.576	16.16
371.785	15.4
371.994	15.61
372.203	15.07
372.412	15.24
372.621	15.5
372.83	14.54
373.039	15.66
373.248	15.29
373.457	14.58
373.666	14.59
373.874	12.87
374.083	12.71
374.292	12.77
374.501	12.93
374.71	11.76
374.919	11.23
375.128	11.45
375.336	10.67
375.545	10.45
375.754	10.4
375.963	9.17
376.171	10.44
376.38	11.03
376.589	10.34
376.798	9.9
377.006	11.05
377.215	11.55
377.424	11.02
377.632	11.16
377.841	11.29
378.05	11.62
378.258	12.63
378.467	12.41
378.675	12.12
378.884	12.9
379.093	13.29
379.301	12.54
379.51	12.1
379.718	11.59
379.927	11.95
380.135	12.09
380.344	11.93
380.552	11.18
380.761	11.2
380.969	11.12
381.177	10.09
381.386	10.06
381.594	10.19
381.803	10.05
382.011	10.51
382.219	9.79
382.428	10.01
382.636	9.7
382.845	9.92
383.053	9.39
383.261	9.25
383.469	8.9
383.678	8.47
383.886	9.14
384.094	9.14
384.302	9.51
384.511	9.49
384.719	9.22
384.927	8.96
385.135	9.22
385.343	9.03
385.552	8.98
385.76	9.23
385.968	9.13
386.176	8.71
386.384	8.34
386.592	8
386.8	8.37
387.008	7.82
387.216	7.88
387.424	7.74
387.633	8.48
387.841	8.3
388.049	8.16
388.257	8.28
388.465	8.23
388.672	9.14
388.88	9.23
389.088	9.2
389.296	8.93
389.504	9.24
389.712	9.34
389.92	8.96
390.128	9.02
390.336	9.4
390.544	9.7
390.751	9.98
390.959	9.35
391.167	9.52
391.375	9.2
391.583	9.81
391.79	9.88
391.998	10
392.206	9.83
392.414	9.88
392.621	9.69
392.829	9.21
393.037	8.98
393.244	8.9
393.452	8.76
393.66	8.67
393.867	8.3
394.075	7.94
394.283	7.42
394.49	7.52
394.698	7.5
394.905	7.38
395.113	7.52
395.32	7.44
395.528	7.45
395.735	7.16
395.943	7.64
396.15	7.64
396.358	7.36
396.565	7.45
396.773	7.52
396.98	7.73
397.188	7.94
397.395	7.88
397.602	7.36
397.81	7.11
398.017	7.37
398.225	7.4
398.432	7.7
398.639	7.92
398.847	8.04
399.054	7.82
399.261	7.5
399.468	7.14
399.676	7.09
399.883	7.41
400.09	8.12
400.297	8.23
400.505	7.97
400.712	8.13
400.919	8.45
401.126	8.34
401.333	8.45
401.54	8.35
401.748	8.52
401.955	8.45
402.162	8.53
402.369	8.24
402.576	8.24
402.783	8.09
402.99	7.45
403.197	7.2
403.404	7.38
403.611	7.69
403.818	7.58
404.025	7.31
404.232	7.73
404.439	7.63
404.646	7.61
404.853	7.58
405.06	7.93
405.267	8.04
405.474	8.47
405.681	8.23
405.887	7.86
406.094	8.14
406.301	8.33
406.508	8.18
406.715	8.1
406.922	8.09
407.128	7.82
407.335	7.82
407.542	7.81
407.749	7.5
407.955	7.63
408.162	7.22
408.369	6.91
408.575	7.38
408.782	7.25
408.989	7.49
409.195	7.31
409.402	7.33
409.609	7.17
409.815	7.42
410.022	7.3
410.228	7.78
410.435	8.27
410.642	8.53
410.848	8.09
411.055	8
411.261	7.81
411.468	7.96
411.674	8.23
411.881	8.12
412.087	7.78
412.294	7.86
412.5	7.17
412.706	7.3
412.913	6.97
413.119	7.37
413.326	7.18
413.532	7.34
413.738	7.28
413.945	7.38
414.151	7.17
414.357	7.24
414.564	7.43
414.77	7.49
414.976	7.13
415.182	7.63
415.389	7.3
415.595	7.7
415.801	7.66
416.007	7.68
416.214	7.03
416.42	7.06
416.626	7.38
416.832	7.43
417.038	7.7
417.244	7.71
417.45	7.43
417.657	7.46
417.863	7.5
418.069	7.54
418.275	7.58
418.481	7.96
418.687	8.1
418.893	8.23
419.099	8.01
419.305	7.82
419.511	7.83
419.717	7.96
419.923	8.04
420.129	7.94
420.335	8.12
420.541	8.09
420.746	8.12
420.952	8.05
421.158	7.97
421.364	8.02
421.57	8.15
421.776	8.32
421.982	8.28
422.187	8.23
422.393	8.22
422.599	8.15
422.805	8.25
423.01	8.22
423.216	8.29
423.422	8.24
423.628	8.25
423.833	8.33
424.039	8.22
424.245	8.22
424.45	8.32
424.656	8.25
424.862	8.19
425.067	8.2
425.273	8.16
425.478	8.13
425.684	8.16
425.889	8.19
426.095	8.19
426.301	8.08
426.506	8.2
426.712	8
426.917	8.18
427.123	8.19
427.328	8.14
427.533	8.05
427.739	8.21
427.944	8.05
428.15	7.96
428.355	7.62
428.561	7.83
428.766	7.42
428.971	7.38
429.177	7.39
429.382	7.22
429.587	7.28
429.793	7.37
429.998	6.89
430.203	6.91
430.408	6.85
430.614	6.98
430.819	7.05
431.024	7.38
431.229	7.42
431.434	7.21
431.64	7.39
431.845	7.43
432.05	7.54
432.255	7.77
432.46	7.66
432.665	7.63
432.87	7.67
433.076	7.54
433.281	7.44
433.486	7.54
433.691	7.7
433.896	7.65
434.101	7.43
434.306	7.34
434.511	7.23
434.716	7.19
434.921	7.32
435.126	7.2
435.331	7.26
435.535	7.33
435.74	7.26
435.945	7.08
436.15	6.96
436.355	6.97
436.56	7.22
436.765	7.31
436.97	7.59
437.174	7.57
437.379	7.81
437.584	7.64
437.789	7.6
437.993	7.64
438.198	7.8
438.403	7.93
438.608	7.93
438.812	7.68
439.017	7.78
439.222	7.68
439.426	7.74
439.631	7.72
439.836	7.86
440.04	7.86
440.245	7.98
440.45	7.97
440.654	7.88
440.859	7.95
441.063	7.99
441.268	7.96
441.472	7.98
441.677	7.96
441.881	7.73
442.086	7.76
442.29	7.97
442.495	7.79
442.699	7.73
442.904	7.87
443.108	7.69
443.312	7.44
443.517	7.36
443.721	7.33
443.925	7.25
444.13	7.52
444.334	7.28
444.538	7.05
444.743	7.18
444.947	7.35
445.151	7.2
445.356	7.29
445.56	7.4
445.764	7.4
445.968	7.37
446.173	7.31
446.377	7.32
446.581	7.42
446.785	7.43
446.989	7.39
447.193	7.26
447.398	7.23
447.602	7.26
447.806	7.35
448.01	7.31
448.214	7.26
448.418	7.16
448.622	7.21
448.826	7.05
449.03	6.85
449.234	6.85
449.438	6.61
449.642	6.62
449.846	6.17
450.05	6.13
450.254	6.06
450.458	6.15
450.662	6.38
450.866	5.92
451.069	6.15
451.273	6.43
451.477	6.5
451.681	6.71
451.885	6.89
452.089	7.3
452.292	7.05
452.496	7.15
452.7	7
452.904	7.03
453.107	7.28
453.311	7.32
453.515	7.32
453.719	7.13
453.922	7.16
454.126	6.97
454.33	7.24
454.533	7.41
454.737	7.58
454.94	7.81
455.144	7.75
455.348	7.83
455.551	7.52
455.755	7.63
455.958	7.7
456.162	7.84
456.365	8.06
456.569	7.87
456.772	7.85
456.976	7.65
457.179	7.5
457.383	7.42
457.586	7.25
457.79	7.37
457.993	7.19
458.196	7.12
458.4	7.23
458.603	7.09
458.807	6.9
459.01	6.87
459.213	6.98
459.417	7.07
459.62	7.13
459.823	6.91
460.026	6.94
460.23	6.87
460.433	6.88
460.636	6.65
460.839	6.65
461.042	6.68
461.246	6.62
461.449	6.53
461.652	6.41
461.855	6.29
462.058	6.57
462.261	6.63
462.464	6.72
462.668	6.49
462.871	6.65
463.074	6.48
463.277	6.49
463.48	6.65
463.683	6.46
463.886	6.56
464.089	6.57
464.292	6.4
464.495	6.27
464.698	6.34
464.901	6.76
465.104	6.51
465.306	6.53
465.509	6.7
465.712	6.72
465.915	6.82
466.118	6.71
466.321	6.63
466.524	6.83
466.726	6.94
466.929	6.77
467.132	6.6
467.335	6.62
467.538	6.62
467.74	6.61
467.943	6.61
468.146	6.63
468.348	6.41
468.551	6.55
468.754	6.6
468.956	6.44
469.159	6.49
469.362	6.54
469.564	6.62
469.767	6.59
469.969	6.46
470.172	6.29
470.375	6.29
470.577	6.52
470.78	6.59
470.982	6.54
471.185	6.64
471.387	6.71
471.59	6.78
471.792	6.89
471.995	7.16
472.197	6.97
472.399	6.93
472.602	7.02
472.804	7.04
473.007	6.96
473.209	6.93
473.411	7.02
473.614	7
473.816	6.81
474.018	6.68
474.22	6.67
474.423	6.82
474.625	6.92
474.827	6.86
475.03	6.77
475.232	6.71
475.434	6.84
475.636	6.95
475.838	7.04
476.04	7.25
476.243	7.37
476.445	7.19
476.647	7.24
476.849	7.24
477.051	7.17
477.253	7.22
477.455	7.3
477.657	7.08
477.859	6.9
478.061	6.86
478.263	6.71
478.465	6.47
478.667	6.5
478.869	6.42
479.071	6.36
479.273	6.37
479.475	6.54
479.677	6.56
479.879	6.53
480.081	6.7
480.283	6.6
480.485	6.66
480.686	6.87
480.888	6.86
481.09	7
481.292	7.05
481.494	6.97
481.695	6.96
481.897	6.94
482.099	7.08
482.301	7.07
482.502	7.17
482.704	7.21
482.906	7.24
483.107	7.35
483.309	7.27
483.511	7.28
483.712	7.3
483.914	7.29
484.115	7.31
484.317	7.33
484.519	7.31
484.72	7.34
484.922	7.31
485.123	7.26
485.325	7.24
485.526	7.32
485.728	7.38
485.929	7.38
486.131	7.44
486.332	7.54
486.534	7.54
486.735	7.53
486.936	7.46
487.138	7.49
487.339	7.49
487.541	7.52
487.742	7.62
487.943	7.6
488.144	7.65
488.346	7.57
488.547	7.53
488.748	7.55
488.95	7.55
489.151	7.58
489.352	7.64
489.553	7.68
489.755	7.57
489.956	7.4
490.157	7.39
490.358	7.34
490.559	7.4
490.76	7.2
490.961	7.07
491.163	7.06
491.364	7.07
491.565	7
491.766	7.02
491.967	7.03
492.168	7.04
492.369	7.07
492.57	7.07
492.771	7.05
492.972	7.19
493.173	7.25
493.374	7.18
493.575	7.13
493.776	7.22
493.976	7.3
494.177	7.26
494.378	7.21
494.579	7.16
494.78	7.14
494.981	7.03
495.182	7.03
495.382	7.02
495.583	7
495.784	6.87
495.985	6.79
496.185	6.73
496.386	6.85
496.587	6.82
496.788	6.83
496.988	6.78
497.189	6.65
497.39	6.59
497.59	6.57
497.791	6.78
497.992	6.99
498.192	6.95
498.393	6.97
498.593	7.04
498.794	7.02
498.994	7.07
499.195	7.34
499.395	7.74
499.596	7.92
499.796	7.93
499.997	7.99
500.197	8.07
500.398	8.14
500.598	7.94
500.799	7.86
500.999	7.83
501.199	7.85
501.4	7.87
501.6	7.79
501.801	7.43
502.001	7.52
502.201	7.52
502.402	7.48
502.602	7.44
502.802	7.62
503.002	7.58
503.203	7.66
503.403	7.41
503.603	7.08
503.803	6.92
504.003	7.17
504.204	7.08
504.404	7.21
504.604	7.14
504.804	7.06
505.004	6.98
505.204	7.02
505.404	7.05
505.604	7.28
505.804	7.44
506.005	7.38
506.205	7.28
506.405	7.39
506.605	7.18
506.805	7.18
507.005	7.26
507.204	7.28
507.404	7.35
507.604	7.39
507.804	7.42
508.004	7.57
508.204	7.69
508.404	7.79
508.604	7.83
508.804	7.89
509.003	7.88
509.203	7.94
509.403	7.97
509.603	7.86
509.803	7.82
510.002	7.66
510.202	7.47
510.402	7.41
510.602	7.31
510.801	7.38
511.001	7.36
511.201	7.41
511.4	7.49
511.6	7.4
511.8	7.41
511.999	7.45
512.199	7.57
512.398	7.51
512.598	7.58
512.797	7.56
512.997	7.56
513.197	7.61
513.396	7.65
513.596	7.77
513.795	7.98
513.994	8.14
514.194	8.23
514.393	8.21
514.593	8.25
514.792	8.32
514.992	8.26
515.191	8.05
515.39	7.95
515.59	7.83
515.789	7.71
515.988	7.77
516.188	7.7
516.387	7.68
516.586	7.73
516.786	7.89
516.985	7.92
517.184	8.13
517.383	8.35
517.582	8.4
517.782	8.47
517.981	8.4
518.18	8.39
518.379	8.31
518.578	8.33
518.777	8.29
518.976	8.32
519.176	8.21
519.375	8.15
519.574	8.1
519.773	8.11
519.972	8.13
520.171	8.03
520.37	7.83
520.569	7.91
520.768	7.83
520.967	7.88
521.166	7.71
521.365	7.85
521.564	8.01
521.762	7.89
521.961	7.88
522.16	7.9
522.359	7.95
522.558	8.07
522.757	8.11
522.956	8.17
523.154	8.25
523.353	8.38
523.552	8.21
523.751	8.15
523.949	8.16
524.148	8.32
524.347	8.32
524.546	8.52
524.744	8.53
524.943	8.64
525.142	8.66
525.34	8.67
525.539	8.7
525.737	8.78
525.936	8.71
526.135	8.79
526.333	8.65
526.532	8.7
526.73	8.62
526.929	8.71
527.127	8.71
527.326	8.73
527.524	8.78
527.723	8.76
527.921	8.8
528.12	8.91
528.318	9.01
528.516	9.08
528.715	9.02
528.913	9.05
529.112	9.01
529.31	8.99
529.508	9.03
529.707	8.99
529.905	9.03
530.103	9.05
530.301	8.99
530.5	8.83
530.698	8.82
530.896	8.86
531.094	8.79
531.293	8.85
531.491	8.9
531.689	8.83
531.887	8.9
532.085	8.94
532.283	9.01
532.481	9.14
532.68	9.18
532.878	9.29
533.076	9.36
533.274	9.43
533.472	9.43
533.67	9.56
533.868	9.63
534.066	9.69
534.264	9.71
534.462	9.74
534.66	9.7
534.858	9.84
535.056	9.82
535.253	9.89
535.451	9.86
535.649	9.85
535.847	9.75
536.045	9.82
536.243	9.72
536.441	9.81
536.638	9.69
536.836	9.71
537.034	9.69
537.232	9.68
537.43	9.61
537.627	9.71
537.825	9.79
538.023	9.79
538.22	9.81
538.418	9.8
538.616	9.82
538.813	9.84
539.011	9.98
539.209	10.11
539.406	10.3
539.604	10.32
539.801	10.53
539.999	10.54
540.196	10.64
540.394	10.59
540.591	10.75
540.789	10.83
540.986	10.94
541.184	11.02
541.381	10.99
541.579	10.9
541.776	10.9
541.974	10.84
542.171	10.9
542.368	10.87
542.566	10.97
542.763	10.94
542.96	10.93
543.158	10.99
543.355	10.91
543.552	11
543.75	11.08
543.947	11.26
544.144	11.23
544.341	11.18
544.539	11.24
544.736	11.21
544.933	11.25
545.13	11.29
545.327	11.33
545.524	11.39
545.722	11.38
545.919	11.36
546.116	11.34
546.313	11.5
546.51	11.56
546.707	11.59
546.904	11.61
547.101	11.76
547.298	11.71
547.495	11.79
547.692	11.79
547.889	11.77
548.086	11.75
548.283	11.78
548.48	11.88
548.677	11.83
548.874	11.86
549.07	11.9
549.267	11.83
549.464	12.05
549.661	12.24
549.858	12.29
550.055	12.46
550.251	12.63
550.448	12.79
550.645	12.72
550.842	13.06
551.038	13.29
551.235	13.44
551.432	13.37
551.628	13.51
551.825	13.29
552.022	13.37
552.218	13.48
552.415	13.66
552.612	13.65
552.808	13.69
553.005	13.58
553.201	13.58
553.398	13.6
553.594	13.86
553.791	13.71
553.987	13.75
554.184	13.83
554.38	13.84
554.577	13.83
554.773	13.93
554.97	14.06
555.166	14.17
555.362	14.34
555.559	14.57
555.755	14.58
555.952	14.78
556.148	14.97
556.344	15.04
556.541	15.17
556.737	15.12
556.933	15.3
557.129	15.22
557.326	15.35
557.522	15.35
557.718	15.26
557.914	15.41
558.11	15.29
558.307	15.14
558.503	15.3
558.699	15.35
558.895	15.7
559.091	15.79
559.287	15.9
559.483	16.11
559.679	15.99
559.876	16.06
560.072	16.04
560.268	16.07
560.464	16.31
560.66	16.26
560.856	16.42
561.052	16.18
561.247	16.31
561.443	16.53
561.639	16.57
561.835	16.71
562.031	16.69
562.227	16.77
562.423	16.95
562.619	16.87
562.815	16.83
563.01	16.84
563.206	16.98
563.402	16.71
563.598	16.77
563.793	16.82
563.989	16.87
564.185	16.95
564.381	17
564.576	16.94
564.772	17
564.968	17.2
565.163	17.19
565.359	17.35
565.555	17.43
565.75	17.67
565.946	17.77
566.141	18.09
566.337	18.18
566.532	18.25
566.728	18.39
566.923	18.45
567.119	18.48
567.314	18.59
567.51	18.61
567.705	18.7
567.901	18.52
568.096	18.33
568.292	18.22
568.487	18.3
568.682	18.18
568.878	18.33
569.073	18.53
569.268	18.64
569.464	18.57
569.659	18.63
569.854	18.78
570.05	18.79
570.245	19.06
570.44	19.04
570.635	19.23
570.831	19.57
571.026	19.6
571.221	19.73
571.416	19.84
571.611	19.83
571.806	19.94
572.002	19.96
572.197	19.9
572.392	19.78
572.587	19.93
572.782	19.94
572.977	20.18
573.172	20.09
573.367	20
573.562	20.16
573.757	20.33
573.952	20.24
574.147	20.37
574.342	20.68
574.537	20.88
574.732	20.91
574.927	20.79
575.121	20.51
575.316	20.52
575.511	20.61
575.706	20.39
575.901	20.43
576.096	20.72
576.29	20.78
576.485	20.86
576.68	20.94
576.875	20.92
577.069	21.3
577.264	21.28
577.459	21.57
577.654	21.67
577.848	21.7
578.043	21.74
578.238	21.45
578.432	21.36
578.627	21.35
578.821	21.12
579.016	21.18
579.21	20.89
579.405	20.73
579.6	20.68
579.794	20.44
579.989	20.54
580.183	20.65
580.378	20.97
580.572	20.97
580.766	20.58
580.961	20.9
581.155	20.93
581.35	21.07
581.544	21.5
581.738	21.56
581.933	21.87
582.127	21.75
582.321	21.76
582.516	21.89
582.71	21.94
582.904	22.19
583.099	22.06
583.293	22
583.487	21.91
583.681	21.48
583.875	21.23
584.07	21.05
584.264	21.34
584.458	21.18
584.652	21.04
584.846	21.24
585.04	21.29
585.234	21.47
585.428	21.45
585.623	21.63
585.817	21.96
586.011	22.2
586.205	22.48
586.399	22.54
586.593	22.54
586.787	22.37
586.981	22.42
587.174	22.42
587.368	22.48
587.562	22.72
587.756	22.57
587.95	22.6
588.144	22.59
588.338	22.51
588.532	22.7
588.725	22.73
588.919	22.98
589.113	22.95
589.307	22.81
589.501	22.74
589.694	22.52
589.888	22.5
590.082	22.73
590.275	22.75
590.469	22.69
590.663	22.42
590.856	22.72
591.05	22.42
591.244	22.55
591.437	22.61
591.631	22.35
591.824	22.33
592.018	22.33
592.212	22.42
592.405	22.71
592.599	22.96
592.792	22.86
592.986	22.71
593.179	22.65
593.372	22.74
593.566	22.61
593.759	22.79
593.953	22.94
594.146	23.04
594.339	22.86
594.533	22.61
594.726	22.11
594.92	22.35
595.113	22.66
595.306	22.91
595.499	22.72
595.693	23.18
595.886	23.14
596.079	23.28
596.272	23.36
596.466	23.34
596.659	23.49
596.852	23.78
597.045	23.69
597.238	23.44
597.431	23.46
597.624	23.4
597.818	23.22
598.011	23.58
598.204	23.43
598.397	23.48
598.59	23.64
598.783	23.54
598.976	23.47
599.169	23.74
599.362	23.78
599.555	23.57
599.748	23.74
599.941	24
600.134	23.77
600.326	23.92
600.519	23.79
600.712	23.69
600.905	23.73
601.098	23.97
601.291	23.94
601.483	24.21
601.676	24.2
601.869	24.15
602.062	24.05
602.255	24.31
602.447	24.11
602.64	24.36
602.833	24.27
603.025	24.37
603.218	24.3
603.411	24.49
603.603	24.17
603.796	24.44
603.989	24.28
604.181	24.23
604.374	24.15
604.566	24.24
604.759	24.08
604.951	23.98
605.144	23.73
605.336	23.75
605.529	23.38
605.721	23.74
605.914	23.65
606.106	23.75
606.299	23.68
606.491	23.34
606.683	23.45
606.876	23.52
607.068	23.53
607.26	23.57
607.453	23.52
607.645	23.79
607.837	23.77
608.03	23.98
608.222	23.95
608.414	24.05
608.606	24.2
608.799	24.21
608.991	24.1
609.183	24.19
609.375	24.39
609.567	24.18
609.759	24.04
609.952	23.56
610.144	23.38
610.336	23.21
610.528	22.96
610.72	22.91
610.912	22.69
611.104	22.84
611.296	22.77
611.488	22.66
611.68	23.05
611.872	23.41
612.064	23.68
612.256	23.82
612.448	23.85
612.64	24.04
612.832	24.05
613.023	24.13
613.215	23.88
613.407	24.21
613.599	24.48
613.791	24.27
613.983	23.54
614.174	23.46
614.366	23.35
614.558	23.73
614.75	23.84
614.941	23.8
615.133	23.91
615.325	23.96
615.516	23.87
615.708	24.04
615.9	23.8
616.091	24
616.283	24.19
616.475	24.12
616.666	23.78
616.858	23.89
617.049	24.15
617.241	24.28
617.432	24.35
617.624	24.18
617.815	23.99
618.007	24.17
618.198	24.32
618.39	24.31
618.581	24.05
618.773	24.43
618.964	24.32
619.155	23.9
619.347	23.67
619.538	23.97
619.729	23.73
619.921	23.88
620.112	23.78
620.303	23.51
620.494	23.77
620.686	24.45
620.877	24.59
621.068	24.64
621.259	25.25
621.451	25.01
621.642	24.86
621.833	25.06
622.024	24.99
622.215	25.25
622.406	25.39
622.597	25.23
622.788	24.77
622.98	24.58
623.171	24.98
623.362	24.75
623.553	25.19
623.744	24.96
623.935	24.65
624.126	24.64
624.317	24.64
624.508	24.63
624.698	24.26
624.889	24.47
625.08	24.57
625.271	24.36
625.462	24.15
625.653	24.24
625.844	24.46
626.034	24.62
626.225	24.44
626.416	24.41
626.607	24.54
626.798	24.88
626.988	25.07
627.179	24.86
627.37	24.92
627.56	25.16
627.751	25.26
627.942	25.2
628.132	25.72
628.323	25.85
628.514	25.78
628.704	25.85
628.895	25.7
629.085	25.2
629.276	25.12
629.466	24.87
629.657	24.88
629.847	24.66
630.038	24.44
630.228	24.09
630.419	24.07
630.609	24.18
630.8	23.91
630.99	24.12
631.181	24.32
631.371	24.44
631.561	24.18
631.752	24.11
631.942	23.83
632.132	24.39
632.323	24.42
632.513	24.21
632.703	23.85
632.893	23.8
633.084	23.26
633.274	23.43
633.464	23.51
633.654	23.73
633.844	23.63
634.034	24.12
634.225	24.01
634.415	24
634.605	23.91
634.795	24.33
634.985	24.38
635.175	24.58
635.365	24.43
635.555	24.62
635.745	24.86
635.935	25.03
636.125	24.94
636.315	24.84
636.505	25.08
636.695	25.52
636.885	25.57
637.075	25.98
637.265	26.54
637.455	26.54
637.644	26.3
637.834	26.17
638.024	26
638.214	25.73
638.404	25.34
638.593	25.36
638.783	25.04
638.973	25.19
639.163	24.81
639.352	24.75
639.542	24.69
639.732	24.8
639.921	25.09
640.111	25.14
640.301	25.46
640.49	26.27
640.68	25.71
640.87	25.82
641.059	25.4
641.249	25.73
641.438	25.22
641.628	25.3
641.817	25.52
642.007	24.83
642.196	25.01
642.386	24.55
642.575	24.14
642.764	24.4
642.954	24.46
643.143	24.52
643.333	24.33
643.522	24.4
643.711	24.58
643.901	23.79
644.09	24.19
644.279	24.12
644.469	24.04
644.658	23.96
644.847	23.4
645.036	23.51
645.226	23.53
645.415	24.06
645.604	23.95
645.793	24.01
645.982	24.73
646.171	24.52
646.361	24.44
646.55	24.85
646.739	24.9
646.928	25.43
647.117	25.03
647.306	25.26
647.495	24.65
647.684	24.78
647.873	24.62
648.062	24.26
648.251	24.21
648.44	24.07
648.629	24.03
648.818	23.72
649.007	23.96
649.196	24.13
649.384	24.33
649.573	24.39
649.762	24.53
649.951	25.02
650.14	25.35
650.328	25.76
650.517	26.31
650.706	26.42
650.895	26.95
651.083	26.98
651.272	26.85
651.461	26.37
651.65	26.48
651.838	26.78
652.027	26.21
652.216	25.83
652.404	25.57
652.593	25.28
652.781	25.05
652.97	24.91
653.158	24.68
653.347	24.87
653.535	24.93
653.724	25.23
653.912	25.21
654.101	25.41
654.289	25.47
654.478	25.38
654.666	24.94
654.855	24.84
655.043	24.73
655.231	24.96
655.42	25.16
655.608	25.12
655.796	24.79
655.985	24.21
656.173	24.48
656.361	24.63
656.55	25.09
656.738	25.79
656.926	26.09
657.114	26.12
657.302	26.11
657.491	25.34
657.679	25.8
657.867	25.6
658.055	26.25
658.243	26.25
658.431	25.94
658.619	25.7
658.807	25.2
658.996	25.1
659.184	25.52
659.372	25.47
659.56	26.14
659.748	25.9
659.936	26.38
660.124	25.63
660.311	25.15
660.499	25.98
660.687	25.87
660.875	26.39
661.063	26.49
661.251	26.28
661.439	26
661.627	25.67
661.814	25.6
662.002	25.07
662.19	25.63
662.378	25.97
662.565	25.36
662.753	25.21
662.941	24.87
663.129	24.6
663.316	23.95
663.504	23.98
663.692	24.12
663.879	23.97
664.067	23.91
664.254	23.65
664.442	23.75
664.63	23.7
664.817	24.18
665.005	23.75
665.192	24.31
665.38	24.65
665.567	24.78
665.755	25.1
665.942	25.25
666.13	25.31
666.317	25.93
666.504	25.76
666.692	26
666.879	26.11
667.067	25.89
667.254	25.45
667.441	25.64
667.629	25.91
667.816	25.49
668.003	25.67
668.19	25.58
668.378	25.48
668.565	25.62
668.752	25.09
668.939	24.72
669.127	25.15
669.314	25.18
669.501	25.01
669.688	24.58
669.875	24.98
670.062	24.87
670.249	25.46
670.436	25.36
670.623	25.41
670.81	25.71
670.997	26.23
671.184	26.77
671.371	27.15
671.558	27.16
671.745	27.41
671.932	26.9
672.119	26.89
672.306	27.14
672.493	26.89
672.68	26.34
672.867	26.84
673.054	26.46
673.24	25.9
673.427	25.49
673.614	25.33
673.801	24.57
673.988	24.76
674.174	24.92
674.361	23.89
674.548	24.22
674.734	24.49
674.921	23.92
675.108	24.11
675.294	24.72
675.481	24.56
675.668	24.84
675.854	25.39
676.041	25.26
676.227	24.83
676.414	25.11
676.601	25.1
676.787	25.31
676.974	24.93
677.16	24.67
677.347	23.7
677.533	24.33
677.719	24.07
677.906	24.35
678.092	24.77
678.279	25.24
678.465	25.43
678.651	25.48
678.838	25.53
679.024	26.15
679.21	26.36
679.397	27.18
679.583	26.83
679.769	26.58
679.955	26.28
680.142	25.92
680.328	25.78
680.514	26.15
680.7	26.31
680.886	26.43
681.073	26.63
681.259	26.6
681.445	26.57
681.631	26.32
681.817	27.19
682.003	27.63
682.189	27.8
682.375	28.29
682.561	27.75
682.747	27.33
682.933	27.08
683.119	26.39
683.305	26.26
683.491	26.34
683.677	26.46
683.863	26.7
684.049	26.21
684.235	26.32
684.42	25.68
684.606	25.7
684.792	26.4
684.978	26.34
685.164	26.95
685.349	27.01
685.535	26.36
685.721	26.86
685.907	26.03
686.092	26.82
686.278	26.99
686.464	27.2
686.649	27.16
686.835	26.89
687.021	26.87
687.206	26.51
687.392	26.56
687.577	26.4
687.763	26.02
687.948	26.02
688.134	25.52
688.319	25.77
688.505	26.14
688.69	26.12
688.876	25.37
689.061	25.64
689.247	25.48
689.432	25.11
689.618	24.94
689.803	25.42
689.988	24.97
690.174	24.93
690.359	24.49
690.544	24.24
690.73	24.64
690.915	24.99
691.1	25.15
691.285	25.35
691.471	25.38
691.656	25.85
691.841	25.59
692.026	25.87
692.211	26.01
692.396	25.31
692.582	24.96
692.767	23.77
692.952	23.59
693.137	23.9
693.322	23.96
693.507	23.9
693.692	24.21
693.877	23.74
694.062	24.27
694.247	24.27
694.432	24.97
694.617	24.97
694.802	25.69
694.987	26.75
695.172	25.85
695.357	25.48
695.541	26.16
695.726	26.18
695.911	26.05
696.096	25.13
696.281	25.07
696.466	24.91
696.65	25.15
696.835	25.06
697.02	24.71
697.204	24.62
697.389	24.86
697.574	24.69
697.759	24.64
697.943	25.25
698.128	25.95
698.312	26.27
698.497	26.62
698.682	26.53
698.866	26.39
699.051	25.94
699.235	26.18
699.42	26.41
699.604	26.91
699.789	26.5
699.973	26.34
700.158	26.1
700.342	25.67
700.527	25.46
700.711	25.2
700.895	26
701.08	26.42
701.264	25.77
701.448	25.81
701.633	25.54
701.817	25.48
702.001	25.4
702.186	25.29
702.37	25.4
702.554	25.62
702.738	25.97
702.923	25.97
703.107	25.54
703.291	26.93
703.475	26.18
703.659	25.3
703.843	26.7
704.027	27.03
704.212	27.1
704.396	26.68
704.58	26.31
704.764	26.19
704.948	25.51
705.132	25.07
705.316	24.8
705.5	25.1
705.684	24.45
705.868	23.12
706.052	22.6
706.235	22.95
706.419	22.77
706.603	24.21
706.787	24.67
706.971	25.03
707.155	24.69
707.339	24.68
707.522	24.21
707.706	24.95
707.89	25.54
708.074	25.79
708.257	25.33
708.441	26.24
708.625	24.68
708.808	23.93
708.992	23.75
709.176	24
709.359	23.49
709.543	23.96
709.727	24.96
709.91	24.64
710.094	24.58
710.277	24.64
710.461	24.77
710.644	24.27
710.828	24.73
711.011	25.13
711.195	25.96
711.378	25.97
711.562	26.13
711.745	25.51
711.928	25.77
712.112	25.91
712.295	26.06
712.478	26.24
712.662	27.13
712.845	27.68
713.028	26.92
713.212	26.53
713.395	26.29
713.578	25.41
713.761	25.46
713.945	25.88
714.128	25.39
714.311	25.66
714.494	24.97
714.677	24.58
714.86	23.75
715.043	24.43
715.227	24.64
715.41	25.25
715.593	26.28
715.776	25.91
715.959	26.03
716.142	26.07
716.325	26.03
716.508	26.88
716.691	27.2
716.874	27.37
717.057	26.41
717.239	26.73
717.422	26.15
717.605	25.55
717.788	25.27
717.971	24.39
718.154	24.26
718.337	23.98
718.519	23.52
718.702	23.14
718.885	23.6
719.068	24.22
719.25	23.09
719.433	22.8
719.616	22.55
719.798	23.07
719.981	24.31
720.164	24.96
720.346	25.12
720.529	23.97
720.712	24.2
720.894	23.48
721.077	22.43
721.259	22.93
721.442	24.09
721.624	25.01
721.807	24.92
721.989	23.37
722.172	23.44
722.354	23.87
722.537	24.93
722.719	25.79
722.901	25.98
723.084	26.26
723.266	26.22
723.448	25.45
723.631	24.71
723.813	23.6
723.995	24.08
724.178	24.79
724.36	23.6
724.542	23.14
724.724	22.64
724.907	22.27
725.089	23.44
725.271	23.88
725.453	23.54
725.635	24.09
725.817	25.02
725.999	25.78
726.181	25.56
726.364	26.94
726.546	27.08
726.728	26.94
726.91	28.18
727.092	27.74
727.274	27.23
727.456	27.79
727.638	27.74
727.819	27.85
728.001	26.88
728.183	26.89
728.365	26.1
728.547	26.04
728.729	25.69
728.911	24.14
729.093	24.95
729.274	26.61
729.456	27.29
729.638	27.34
729.82	27.43
730.001	28.03
730.183	27.85
730.365	28.46
730.546	28.82
730.728	28.37
730.91	28.48
731.091	27.54
731.273	25.37
731.455	24.4
731.636	25.16
731.818	25.67
731.999	24.32
732.181	24.38
732.362	23.19
732.544	22.98
732.725	22.84
732.907	24.49
733.088	24.99
733.27	25.76
733.451	25.59
733.633	25.71
733.814	25.25
733.995	26.69
734.177	26.39
734.358	26.71
734.539	26.98
734.721	26.97
734.902	26.08
735.083	25.47
735.264	26.74
735.446	27.16
735.627	25.33
735.808	25.21
735.989	24.16
736.17	24.85
736.351	24.63
736.533	26.14
736.714	27.13
736.895	26.91
737.076	26.98
737.257	26.29
737.438	26.59
737.619	26.92
737.8	27.37
737.981	27.45
738.162	25.08
738.343	25.11
738.524	22.43
738.705	23
738.886	22.43
739.067	21.83
739.247	21.76
739.428	21.09
739.609	22.43
739.79	22.01
739.971	22.66
740.151	24.74
740.332	25.53
740.513	25.87
740.694	25.52
740.874	26.8
741.055	27.56
741.236	26.84
741.417	26.9
741.597	26.36
741.778	25.22
741.958	24.06
742.139	22.26
742.32	21.18
742.5	20.63
742.681	19.47
742.861	19.5
743.042	18.21
743.222	17.92
743.403	18.2
743.583	17.75
743.764	19.32
743.944	19.81
744.124	19.08
744.305	21.22
744.485	22.78
744.666	24.18
744.846	22.48
745.026	22.96
745.207	22.89
745.387	23.39
745.567	23.68
745.747	24.77
745.928	24.22
746.108	25.65
746.288	24.7
746.468	24.81
746.648	22.14
746.829	23.02
747.009	25.86
747.189	26.35
747.369	26.26
747.549	25.67
747.729	24.35
747.909	25.8
748.089	25.79
748.269	25.46
748.449	26.32
748.629	27.96
748.809	28.42
748.989	25.92
749.169	25.87
749.349	25.42
749.529	25.22
749.709	25.12
749.889	23.71
750.068	23.63
750.248	23.59
750.428	21.72
750.608	23
750.788	22.32
750.967	22.73
751.147	23.37
751.327	23.59
751.507	23.85
751.686	26.3
751.866	28.99
752.046	28.1
752.225	28.7
752.405	29.36
752.585	29.51
752.764	29.29
752.944	27.53
753.123	26.65
753.303	27.61
753.482	28.67
753.662	26.91
753.841	26.4
754.021	27.83
754.2	27.51
754.38	28.53
754.559	26.82
754.739	27.53
754.918	29.2
755.097	29.24
755.277	27.77
755.456	26.99
755.635	27.69
755.815	27.37
755.994	27.23
756.173	26.58
756.352	25.77
756.532	26.27
756.711	26.85
756.89	27.64
757.069	25.53
757.248	25.46
757.427	26.2
757.607	25.17
757.786	24.21
757.965	24.51
758.144	24.82
758.323	23.55
758.502	22.71
758.681	21.68
758.86	20.63
759.039	22.78
759.218	24.56
759.397	23.79
759.576	23.24
759.755	21.27
759.934	19.96
760.113	20.03
760.291	21.21
760.47	23.34
760.649	23.61
760.828	25.2
761.007	25.38
761.186	24.28
761.364	24.41
761.543	25.23
761.722	26.95
761.901	27.31
762.079	27.34
762.258	26.78
762.437	24.99
762.615	25.08
762.794	24.85
762.972	24.73
763.151	24.96
763.33	25.09
763.508	24.56
763.687	24.43
763.865	25.01
764.044	25.47
764.222	25.36
764.401	26.83
764.579	27.1
764.758	26.32
764.936	26.56
765.114	26.71
765.293	26.35
765.471	26.12
765.65	25.72
765.828	25.44
766.006	25.26
766.184	26.02
766.363	26.14
766.541	24.77
766.719	24.76
766.898	25.49
767.076	24.6
767.254	24.93
767.432	26.4
767.61	26.44
767.788	27.51
767.967	28.87
768.145	28.51
768.323	26.44
768.501	27.58
768.679	27.84
768.857	26.26
769.035	25.89
769.213	23.97
769.391	22.58
769.569	24.23
769.747	21.29
769.925	18.44
770.103	18.69
770.281	19.1
770.459	20.43
770.636	20.24
770.814	21.41
770.992	20.17
771.17	24.36
771.348	24.54
771.525	23.45
771.703	26
771.881	25.96
772.059	25.29
772.236	25.53
772.414	21.81
772.592	20.57
772.769	20.85
772.947	23.42
773.125	22.49
773.302	22.27
773.48	24.19
773.657	23.24
773.835	24.03
774.013	22.27
774.19	18.73
774.368	21.65
774.545	23.77
774.723	20.8
774.9	22.19
775.077	20.5
775.255	19.4
775.432	18.75
775.61	17.84
775.787	17.35
775.964	18.4
776.142	21.69
776.319	19.08
776.496	19.83
776.674	21.16
776.851	17.18
777.028	19.13
777.205	20.09
777.382	19.93
777.56	19.49
777.737	18.4
777.914	15.51
778.091	14.69
778.268	17.05
778.445	16.86
778.622	18.26
778.8	20.19
778.977	19.63
779.154	19.96
779.331	18.08
779.508	19.74
779.685	20.3
779.862	20.96
780.038	22.69
780.215	23.97
780.392	19.25
780.569	17.76
780.746	16.19
780.923	15.09
781.1	16.44
781.277	18.84
781.453	15.64
781.63	18.22
781.807	19.63
781.984	17.74
782.16	17.8
782.337	21.31
782.514	24.49
782.691	26.59
782.867	27.26
783.044	25.4
783.221	24.92
783.397	26.81
783.574	26.14
783.75	26.22
783.927	26.19
784.103	24.06
784.28	20.94
784.456	17.13
784.633	14.55
784.809	15.08
784.986	14.42
785.162	11.83
785.339	11.17
785.515	10.63
785.692	12.65
785.868	12.78
786.044	14.61
786.221	17.21
786.397	18.8
786.573	21.63
786.749	17.73
786.926	19.85
787.102	20.49
787.278	20.44
787.454	22.43
787.631	19.05
787.807	17.09
787.983	15.47
788.159	15.53
788.335	16.2
788.511	15.55
788.687	17.07
788.863	15.2
789.039	13.82
789.216	15.01
789.392	11.63
789.568	16.31
789.744	19.08
789.919	22.89
790.095	23.22
790.271	22.99
790.447	21.34
790.623	21.21
790.799	22.43
790.975	28.73
791.151	33.12
791.327	34.01
791.502	33.86
791.678	33.49
791.854	29.74
792.03	31.3
792.205	30.76
792.381	32.54
792.557	31.52
792.733	28.41
792.908	27.66
793.084	23.61
793.259	23.53
793.435	24.47
793.611	25.12
793.786	26.08
793.962	23.15
794.137	25.12
794.313	20.9
794.488	25.65
794.664	26.61
794.839	22.32
795.015	22.23
795.19	21.56
795.366	19.61
795.541	16.75
795.716	19.17
795.892	22.2
796.067	14.68
796.242	18.73
796.418	15.86
796.593	20.96
796.768	25.21
796.944	26.23
797.119	28.88
797.294	26.01
797.469	27.96
797.644	21.93
797.82	20.54
797.995	25.49
798.17	26.09
798.345	24.51
798.52	22.74
798.695	20.17
798.87	15.16
799.045	13.56
799.22	13.7
799.395	12.39
799.57	15.4
799.745	17.23
799.92	18.33
800.095	16.11
800.27	18.74
800.445	19.83
800.62	22.71
800.795	27.56
800.97	29.72
801.145	33.55
801.319	32.85
801.494	33.61
801.669	33.31
801.844	35.01
802.018	36.18
802.193	35.77
802.368	32.98
802.543	26.13
802.717	21.61
802.892	19.07
803.067	18.64
803.241	23.49
803.416	23.03
803.59	22.25
803.765	19.92
803.94	26.14
804.114	22.27
804.289	19.02
804.463	20.89
804.638	25.44
804.812	30.24
804.986	26.13
805.161	23
805.335	25.81
805.51	27.86
805.684	25.47
805.858	21.03
806.033	19.92
806.207	20.8
806.381	22.05
806.556	20.85
806.73	13.27
806.904	16.36
807.078	14.65
807.253	13.71
807.427	8.09
807.601	8.98
807.775	4.71
807.949	7.99
808.123	14.18
808.298	20.37
808.472	17.63
808.646	16.83
808.82	14.28
808.994	17.08
809.168	15.91
809.342	19.01
809.516	18.53
809.69	21.87
809.864	20.34
810.038	16.18
810.212	12.36
810.385	16.19
810.559	21.2
810.733	18.74
810.907	18.71
811.081	16.06
811.255	15.34
811.428	18.2
811.602	16.42
811.776	21.04
811.95	24.94
812.123	19.97
812.297	15.47
812.471	9.83
812.644	14.72
812.818	14.13
812.992	21.94
813.165	20.74
813.339	20.6
813.512	21.21
813.686	15.19
813.86	14.2
814.033	22.34
814.207	24
814.38	23.51
814.554	23.18
814.727	21.28
814.9	19.97
815.074	22.53
815.247	20.63
815.421	24.74
815.594	24.49
815.767	18.15
815.941	13.94
816.114	16.96
816.287	21.27
816.46	15.84
816.634	18.47
816.807	19.15
816.98	21.14
817.153	25.98
817.327	24.48
817.5	26.01
817.673	29.24
817.846	27.7
818.019	28
818.192	24.72
818.365	29.98
818.538	26.24
818.711	20.72
818.884	17.25
819.057	11.49
819.23	8.92
819.403	9.88
819.576	14.49
819.749	20.03
819.922	16.69
820.095	22.28
820.268	21.81
820.441	24.47
820.614	27.44
820.786	24.46
820.959	24.39
821.132	26.72
821.305	27.15
821.477	27.49
821.65	27.49
821.823	29.5
821.996	27.19
822.168	29.35
822.341	29.45
822.514	29.13
822.686	30.37
822.859	30.23
823.031	30.02
823.204	30.28
823.376	30.53
823.549	30.64
823.722	30.4
823.894	31.19
824.067	29.59
824.239	29.49
824.411	30.14
824.584	29.84
824.756	30.37
824.929	29.41
825.101	29.6
825.273	28.14
825.446	28.12
825.618	28.14
825.79	29.13
825.963	29.93
826.135	29.11
826.307	29.92
826.479	29.34
826.652	27.96
826.824	28
826.996	28.59
827.168	29.75
827.34	27.77
827.512	25.07
827.684	24.37
827.856	23.83
828.029	24.51
828.201	22.36
828.373	21.7
828.545	22.95
828.717	22
828.889	20.49
829.061	19.88
829.232	19.57
829.404	22.08
829.576	20.06
829.748	20.06
829.92	18.95
830.092	21.82
830.264	21.33
830.436	20.15
830.607	21.52
830.779	17.5
830.951	16.26
831.123	14.4
831.294	17.69
831.466	16.78
831.638	16.98
831.809	19.12
831.981	9.66
832.153	15.05
832.324	10.76
832.496	17.22
832.667	17.88
832.839	19.52
833.011	25.68
833.182	24.75
833.354	25.35
833.525	26.56
833.697	25.89
833.868	26.48
834.039	23.72
834.211	30.44
834.382	27.05
834.554	30.2
834.725	26.7
834.896	27.2
835.068	26.03
835.239	26.33
835.41	25.01
835.581	24.39
835.753	24.7
835.924	25.57
836.095	21.94
836.266	27.26
836.438	23.17
836.609	26.97
836.78	28.59
836.951	24.37
837.122	25.87
837.293	24.92
837.464	24.3
837.635	22.68
837.806	20.2
837.977	23.53
838.148	17.98
838.319	20.07
838.49	18.93
838.661	15.17
838.832	17.04
839.003	10.73
839.174	9.16
839.345	14.27
839.516	17.59
839.687	22.78
839.857	17.32
840.028	16.38
840.199	12.41
840.37	7.05
840.54	5
840.711	0.4
840.882	10.21
841.053	6.89
841.223	9.31
841.394	-0.08
841.564	6.08
841.735	4.69
841.906	10.46
842.076	13.25
842.247	9.3
842.417	6.35
842.588	16.31
842.758	9.4
842.929	14.27
843.099	7.4
843.27	9.05
843.44	0.12
843.611	-4.72
843.781	-37.57
843.951	-32.72
844.122	-12.3
844.292	-15.8
844.462	-19.52
844.633	-26
844.803	-40.39
844.973	-40.27
845.144	-38.19
845.314	-40.74
845.484	-27.11
845.654	-7.59
845.824	-1.21
845.995	-12.28
846.165	-13
846.335	-17.63
846.505	-10.75
846.675	-12.12
846.845	-17.19
847.015	-14.88
847.185	-9.79
847.355	-15.32
847.525	-4.45
847.695	-39.06
847.865	-40.64
848.035	-28.71
848.205	-32.24
848.375	-43.56
848.545	-32.64
848.715	-15.4
848.884	-12.08
849.054	-8.35
849.224	-9.87
849.394	-31.52
849.564	-14.56
849.733	-24.27
849.903	-40.28
850.073	-42.1
850.243	-32.29
850.412	-44.26
850.582	-32.16
850.752	-28.01
850.921	-20.44
851.091	-16.23
851.26	-7.75
851.43	-6.82
851.599	-1.94
851.769	21.49
851.939	31.47
852.108	12.82
852.278	25.27
852.447	5.83
852.616	15.16
852.786	7.67
852.955	5.25
853.125	21.29
853.294	21.46
853.463	29.28
853.633	37.26
853.802	37.73
853.971	35.32
854.141	36.11
854.31	26.06
854.479	5.77
854.648	-4.08
854.818	-18.42
854.987	-47.66
855.156	-26.73
855.325	-32.17
855.494	-30.54
855.663	-44.43
855.832	-28
856.001	-40.78
856.171	-71.74
856.34	-66.25
856.509	-26.09
856.678	-0.72
856.847	8.35
857.016	-29.56
857.185	6.38
857.353	-24.3
857.522	10.72
857.691	14.32
857.86	20.2
858.029	32.78
858.198	14.56
858.367	-6
858.535	-17.45
858.704	6.47
858.873	7.32
859.042	-46.36
859.21	-17.58
859.379	-68.75
859.548	-88.47
859.717	-62.36
859.885	-80.7
860.054	-47.09
860.222	-73.01
860.391	-76.37
860.56	-275.89
860.728	-392.04
860.897	-109.84
861.065	-311.59
861.234	-138.11
861.402	-126.51
861.571	-37.66
861.739	-105.42
861.908	-78.55
862.076	-18.09
862.244	-13.7
862.413	-4.43
862.581	23.63
862.749	24.33
862.918	16.76
863.086	3.25
863.254	19.08
863.423	-14.04
863.591	37.97
863.759	44.78
863.927	43.82
864.096	41.66
864.264	45.79
864.432	47.63
864.6	61.28
864.768	57.66
864.936	51.64
865.104	34.92
865.272	11.06
865.44	-10.65
865.608	-60.82
865.776	-54.6
865.944	-73.88
866.112	-112.81
866.28	-96.54
866.448	-95.53
866.616	-97.13
866.784	-51.03
866.952	-33.22
867.12	-26.11
867.288	-16.96
867.455	3.21
867.623	-6.81
867.791	-2.13
867.959	3.99
868.127	-6.07
868.294	-32.95
868.462	11.79
868.63	-29.33
868.797	-63.14
868.965	3.48
869.133	-9.8
869.3	18.11
869.468	49.19
869.636	52.2
869.803	42.35
869.971	60.31
870.138	71.05
870.306	40.52
870.473	38.74
870.641	34.69
870.808	22.87
870.975	-32.76
871.143	-64.87
871.31	-66.7
871.478	-55.2
871.645	-55.02
871.812	-72.41
871.98	-98.72
872.147	-74.91
872.314	-10.93
872.482	-15.25
872.649	-9.31
872.816	19.34
872.983	21.64
873.15	28.81
873.318	30.46
873.485	3.38
873.652	-9.91
873.819	-15
873.986	-3.05
874.153	-78.83
874.32	-78.91
874.487	-74.03
874.654	-126.25
874.821	-126.23
874.988	-206.57
875.155	-206.68
875.322	-45.04
875.489	-12.47
875.656	32.22
875.823	31.32
875.99	44.42
876.157	31
876.324	43.95
876.49	55.53
876.657	50.89
876.824	18.01
876.991	-13.66
877.157	3.2
877.324	-28.38
877.491	-71.18
877.658	-52.01
877.824	-85.45
877.991	-50.82
878.157	-69.44
878.324	-86.73
878.491	-77.34
878.657	-38.72
878.824	-27.87
878.99	-70.05
879.157	-23.69
879.323	-55.48
879.49	-54.78
879.656	-39.89
879.823	-35.85
879.989	-37.34
880.156	-49.65
880.322	-31.42
880.488	-8.87
880.655	-12.8
880.821	-27.82
880.987	-24.61
881.154	12.96
881.32	4.16
881.486	14.32
881.652	15.7
881.819	2.95
881.985	15.33
882.151	16.34
882.317	14.68
882.483	21.14
882.649	25.12
882.816	25.41
882.982	26.9
883.148	25.58
883.314	23.38
883.48	21.89
883.646	25.08
883.812	20.78
883.978	20.84
884.144	24.04
884.31	24.1
884.476	26.36
884.642	23.16
884.807	22.6
884.973	21.94
885.139	24.59
885.305	26.52
885.471	23.91
885.637	22.9
885.802	24.57
885.968	22.7
886.134	22.49
886.3	23.78
886.465	27.67
886.631	29.56
886.797	34.54
886.962	30.07
887.128	30.18
887.293	28.13
887.459	35.89
887.625	32.64
887.79	25.36
887.956	24.62
888.121	20.1
888.287	17.43
888.452	10.27
888.618	11.09
888.783	11.84
