Data from 2937843_Reflection_3.txt Node
Date: Wed Jul 15 16:12:08 EDT 2015
User: robert
Spectrometer: USB4E03001
Autoset integration time: false
Trigger mode: 4
Integration Time (sec): 1.000000E-1
Scans to average: 10
Electric dark correction enabled: true
Nonlinearity correction enabled: false
Boxcar width: 5
Stray light correction enabled: false
XAxis mode: Wavelengths
Stop averaging: false
Number of Pixels in Spectrum: 3648
>>>>>Begin Spectral Data<<<<<
177.566	120.07
177.785	213.05
178.005	29.99
178.225	-306.85
178.445	46.11
178.665	107.36
178.885	43.03
179.105	30.34
179.324	0.6
179.544	3760.94
179.764	-287.93
179.984	-119.5
180.204	11.86
180.423	11.66
180.643	-25.21
180.863	29.28
181.083	60.13
181.302	167.39
181.522	101.72
181.742	83.4
181.961	77.53
182.181	-6074.07
182.401	-103.01
182.621	-134.5
182.84	681.36
183.06	84.07
183.279	38.14
183.499	26.31
183.719	-10.51
183.938	30.89
184.158	27.04
184.377	50.59
184.597	60.54
184.816	28.08
185.036	42.14
185.256	3.21
185.475	-6.32
185.695	-23.56
185.914	-28.26
186.134	-25.08
186.353	-2059.49
186.572	-284.63
186.792	-60.05
187.011	-28.19
187.231	-65.19
187.45	-68.68
187.67	55.64
187.889	38.71
188.108	45.35
188.328	42.54
188.547	-19.54
188.766	-31.47
188.986	-56.82
189.205	202.38
189.424	170.76
189.644	143.02
189.863	35.15
190.082	-7.11
190.302	-65.8
190.521	-89.38
190.74	-152.95
190.959	-104.75
191.178	-655.98
191.398	-227.5
191.617	8446.97
191.836	-3588.39
192.055	299.16
192.274	442.74
192.494	508.86
192.713	323.98
192.932	-31.6
193.151	85.12
193.37	-38.6
193.589	37.8
193.808	-377.53
194.027	-36.83
194.246	-25.83
194.465	-11.15
194.685	4740
194.904	282.56
195.123	-300.18
195.342	789
195.561	155.4
195.78	192.51
195.999	251.7
196.218	-13336.84
196.436	207.49
196.655	181.47
196.874	881.31
197.093	31770.37
197.312	-1205.55
197.531	241.5
197.75	186.42
197.969	208.25
198.188	166.31
198.407	126.19
198.625	97.7
198.844	102.34
199.063	107.92
199.282	75.64
199.501	67.49
199.719	45.93
199.938	55.76
200.157	101.12
200.376	103.86
200.594	109.85
200.813	-59.78
201.032	38.99
201.251	-21.65
201.469	-218.54
201.688	-472.51
201.907	-196.44
202.125	1873.95
202.344	-269.26
202.563	-379.09
202.781	-19024
203	-207.64
203.218	-306.68
203.437	-171.98
203.656	-2.84
203.874	26.86
204.093	43.4
204.311	93.5
204.53	52.7
204.748	-26.05
204.967	-166.45
205.185	16.52
205.404	117.44
205.622	113.38
205.841	136.86
206.059	108.97
206.278	94.11
206.496	93.95
206.715	72.58
206.933	60.65
207.151	87.17
207.37	109.62
207.588	110.49
207.806	112.97
208.025	103.16
208.243	78.17
208.461	88.13
208.68	121.72
208.898	79.46
209.116	95.56
209.335	67.88
209.553	63.47
209.771	65.24
209.989	60.32
210.208	12.26
210.426	-3.38
210.644	2.38
210.862	60.34
211.081	-62.43
211.299	-17.66
211.517	-49.39
211.735	-516.33
211.953	-1614.71
212.171	194.92
212.39	-6.59
212.608	890.68
212.826	270.21
213.044	144.92
213.262	62.01
213.48	100.61
213.698	-930.41
213.916	84.68
214.134	103.89
214.352	169.24
214.57	325.74
214.788	-27.32
215.006	76.45
215.224	-268.42
215.442	-349.59
215.66	291.11
215.878	216.34
216.096	1289.02
216.314	129.89
216.532	67.51
216.75	304.9
216.968	-732.88
217.185	-44.63
217.403	-54.63
217.621	513.73
217.839	495.97
218.057	308.83
218.275	-423.54
218.492	-356.8
218.71	-461.27
218.928	-183.56
219.146	73.49
219.363	18.8
219.581	-7.22
219.799	49.18
220.017	86.76
220.234	96.29
220.452	98.42
220.67	76.84
220.887	73.46
221.105	93.3
221.323	73.79
221.54	71.47
221.758	77.78
221.976	105.8
222.193	110.18
222.411	83.85
222.629	68.49
222.846	60.33
223.064	101.64
223.281	95.44
223.499	41.36
223.716	35.52
223.934	31.46
224.151	61.48
224.369	54.31
224.586	63.54
224.804	25.21
225.021	40.22
225.239	58.31
225.456	1.3
225.674	20.39
225.891	42.29
226.108	50.05
226.326	46.67
226.543	40.67
226.76	41.23
226.978	35.58
227.195	43.9
227.413	47.33
227.63	40.16
227.847	45.28
228.064	39.2
228.282	37.11
228.499	36.92
228.716	37.32
228.934	31.97
229.151	31.16
229.368	28
229.585	24.5
229.802	21.75
230.02	22.48
230.237	19.7
230.454	21.14
230.671	21.99
230.888	20.21
231.105	16.89
231.323	18.36
231.54	23.41
231.757	24.78
231.974	29.36
232.191	34.94
232.408	30.48
232.625	34.01
232.842	34.54
233.059	29.98
233.276	25.78
233.493	16.44
233.71	24.45
233.927	20.21
234.144	23.13
234.361	16.48
234.578	11.43
234.795	20.42
235.012	19.9
235.229	17.62
235.446	19.71
235.663	17.81
235.879	29.16
236.096	25.33
236.313	15.61
236.53	10.83
236.747	16.88
236.964	16.72
237.181	11.24
237.397	11.89
237.614	8.79
237.831	15.07
238.048	22.39
238.264	15.64
238.481	20.67
238.698	26.36
238.915	36.74
239.131	39.6
239.348	40.68
239.565	38.52
239.781	34.6
239.998	38.29
240.215	39.01
240.431	37.68
240.648	34.45
240.865	31.45
241.081	31.48
241.298	28.64
241.514	25.55
241.731	25.53
241.947	25.09
242.164	24.14
242.38	21.47
242.597	21.14
242.814	20.59
243.03	22.65
243.246	23.6
243.463	22.33
243.679	22.5
243.896	21.34
244.112	21.92
244.329	22.76
244.545	25.78
244.762	27.38
244.978	23.35
245.194	23.46
245.411	21.63
245.627	19.89
245.843	21.36
246.06	20.12
246.276	21.84
246.492	20.12
246.709	19.34
246.925	18.52
247.141	18.71
247.357	19.35
247.574	19.04
247.79	19.29
248.006	19.1
248.222	18.67
248.439	19.33
248.655	18.49
248.871	18.37
249.087	19.13
249.303	19.68
249.519	18.9
249.736	19.34
249.952	19.27
250.168	19.88
250.384	18.35
250.6	19.96
250.816	19.74
251.032	21.09
251.248	20.68
251.464	19.52
251.68	19.53
251.896	19.54
252.112	16.26
252.328	16.22
252.544	14.34
252.76	16.12
252.976	14.65
253.192	13.24
253.408	11.57
253.624	10.08
253.84	10.53
254.056	13.19
254.272	12.82
254.487	16.53
254.703	20.37
254.919	24.82
255.135	25.7
255.351	25.15
255.567	26.92
255.782	28.34
255.998	29.26
256.214	28.05
256.43	22.58
256.646	22.33
256.861	20.3
257.077	16.84
257.293	15.52
257.508	13.69
257.724	15.65
257.94	16.97
258.155	16.56
258.371	17.06
258.587	15.52
258.802	15.87
259.018	15.19
259.234	14.1
259.449	15.36
259.665	14.95
259.88	15.34
260.096	14.31
260.312	13.2
260.527	12.57
260.743	13.26
260.958	13.66
261.174	12.9
261.389	13.67
261.605	13.86
261.82	11.99
262.036	11.7
262.251	11.08
262.466	12.61
262.682	13.62
262.897	15.36
263.113	13.47
263.328	13.7
263.543	15.15
263.759	15.48
263.974	16.14
264.189	17.44
264.405	19.55
264.62	20.31
264.835	17.9
265.051	15.09
265.266	11.7
265.481	14.17
265.696	14.58
265.912	13.8
266.127	9.53
266.342	10.54
266.557	9.28
266.773	6.48
266.988	7.68
267.203	8.66
267.418	10.13
267.633	9.82
267.848	8.93
268.064	9.35
268.279	10.13
268.494	13.67
268.709	11.76
268.924	12.65
269.139	14.34
269.354	13.62
269.569	12.86
269.784	14.15
269.999	15.63
270.214	15.42
270.429	15.04
270.644	13.58
270.859	13.85
271.074	15.37
271.289	16.06
271.504	15.95
271.719	16.46
271.934	16.37
272.149	15.42
272.363	15.19
272.578	15.29
272.793	15.26
273.008	17.18
273.223	16.02
273.438	15.19
273.653	14.67
273.867	14.13
274.082	13.76
274.297	15.23
274.512	15.83
274.726	17.77
274.941	15.46
275.156	16.43
275.371	14.37
275.585	13.12
275.8	13.79
276.015	12.72
276.229	13.28
276.444	11.12
276.659	10.54
276.873	9.87
277.088	9.35
277.302	11.68
277.517	10.59
277.732	11.74
277.946	13.16
278.161	13.69
278.375	15.08
278.59	15.59
278.804	14.24
279.019	12.42
279.233	11.89
279.448	11.89
279.662	12.35
279.877	13.53
280.091	11.01
280.306	11.96
280.52	12.94
280.735	12.37
280.949	12.08
281.163	14.28
281.378	16.15
281.592	17.2
281.806	16.94
282.021	15.28
282.235	14.91
282.449	15.93
282.664	14.91
282.878	14.16
283.092	14.63
283.307	12.89
283.521	12.88
283.735	11.31
283.949	10.63
284.164	10.13
284.378	11.15
284.592	9.74
284.806	9.4
285.02	10.16
285.234	10.76
285.449	10.46
285.663	12.5
285.877	12.51
286.091	12.55
286.305	12.82
286.519	12.56
286.733	12.53
286.947	12.99
287.161	13.32
287.375	11.9
287.589	11.2
287.803	11.67
288.017	11.42
288.231	12.04
288.445	13.02
288.659	12.27
288.873	12.62
289.087	13.35
289.301	14.17
289.515	15.26
289.729	15.35
289.943	15.22
290.157	13.46
290.371	13.17
290.584	13.78
290.798	12.59
291.012	11.69
291.226	11.4
291.44	12.05
291.654	12.37
291.867	12.57
292.081	15.3
292.295	16.99
292.509	19.44
292.722	19.67
292.936	17.88
293.15	20.03
293.364	22.47
293.577	22.95
293.791	21.42
294.005	19.88
294.218	17.94
294.432	15.99
294.645	14.13
294.859	12.62
295.073	11.9
295.286	10.86
295.5	10.07
295.713	9.34
295.927	9.49
296.14	10.57
296.354	11.22
296.568	12.4
296.781	12.41
296.994	12.24
297.208	12.97
297.421	12.83
297.635	13.9
297.848	13.97
298.062	13.71
298.275	14.54
298.489	13.9
298.702	13.95
298.915	14.23
299.129	15.16
299.342	16.36
299.555	15.67
299.769	16.62
299.982	17.19
300.195	17.47
300.409	19.18
300.622	17.67
300.835	17.66
301.048	17.73
301.262	15.53
301.475	13.69
301.688	13.28
301.901	14.22
302.115	14.23
302.328	14.84
302.541	14.26
302.754	12.99
302.967	12.72
303.18	12.47
303.393	12.47
303.607	13.69
303.82	14.56
304.033	13.75
304.246	14.59
304.459	15.07
304.672	15.33
304.885	15.67
305.098	15.96
305.311	16.73
305.524	17.2
305.737	18.11
305.95	18.17
306.163	18.13
306.376	20.64
306.589	20.91
306.802	20.42
307.015	19.66
307.228	18.62
307.44	17.89
307.653	19.8
307.866	19.56
308.079	18.38
308.292	20.82
308.505	21.4
308.718	19.19
308.93	18.57
309.143	17.28
309.356	16.01
309.569	15.67
309.781	15.21
309.994	15.14
310.207	14.92
310.42	15.69
310.632	15.06
310.845	15.72
311.058	15.62
311.27	15.88
311.483	17.26
311.696	18.89
311.908	19.57
312.121	20.67
312.333	19.05
312.546	19.52
312.759	19.61
312.971	19.36
313.184	19.86
313.396	20.01
313.609	17.91
313.821	16.47
314.034	15.26
314.246	14.65
314.459	14.04
314.671	14.65
314.884	14.51
315.096	15.99
315.309	14.73
315.521	13.26
315.733	13.68
315.946	15.14
316.158	14.98
316.371	17.17
316.583	17.37
316.795	17.4
317.008	17.9
317.22	17.41
317.432	14.99
317.644	15.17
317.857	15.8
318.069	15.05
318.281	14.88
318.494	17.04
318.706	15
318.918	14.45
319.13	15.75
319.342	17.13
319.555	17.42
319.767	15.82
319.979	16.64
320.191	16.4
320.403	16.19
320.615	16.7
320.827	15.47
321.039	15.6
321.252	16.05
321.464	16.43
321.676	15.38
321.888	16.32
322.1	16.51
322.312	16.68
322.524	15.47
322.736	16.89
322.948	14.38
323.16	14.04
323.372	13.99
323.584	14.65
323.796	11.35
324.007	11.87
324.219	10.74
324.431	12.52
324.643	11.49
324.855	11.8
325.067	10.59
325.279	13.37
325.491	13.82
325.702	13.57
325.914	13.7
326.126	15.7
326.338	15.85
326.55	17.1
326.761	16.52
326.973	16.97
327.185	17.77
327.396	17.97
327.608	15.89
327.82	16.98
328.032	15.04
328.243	15.03
328.455	14.91
328.666	13.07
328.878	12.41
329.09	11.52
329.301	11.12
329.513	10.05
329.725	10.98
329.936	12.72
330.148	12.31
330.359	15.06
330.571	15.76
330.782	15.56
330.994	13.82
331.205	12.91
331.417	15.52
331.628	15.5
331.84	15.4
332.051	14.24
332.262	12.75
332.474	12.09
332.685	11.33
332.897	10.1
333.108	11.58
333.319	14.64
333.531	16.14
333.742	14.19
333.953	15.43
334.165	15.72
334.376	15.09
334.587	16.62
334.799	14.74
335.01	14.83
335.221	14.81
335.432	13.5
335.644	13.57
335.855	12.36
336.066	12.85
336.277	11
336.488	12.21
336.7	14.41
336.911	13.81
337.122	15.51
337.333	15.21
337.544	14.96
337.755	16.52
337.966	15.04
338.177	15.48
338.388	15.43
338.599	17.09
338.811	16.42
339.022	14.99
339.233	14.19
339.444	14.57
339.655	15.56
339.866	16.56
340.076	14.72
340.287	16.57
340.498	16.74
340.709	16.1
340.92	14.79
341.131	15.32
341.342	14.5
341.553	16.02
341.764	15.52
341.975	15.26
342.185	15.05
342.396	15.26
342.607	15.92
342.818	16.04
343.029	16.87
343.239	17.91
343.45	15.99
343.661	16.56
343.872	16.8
344.082	17.39
344.293	17.11
344.504	16.62
344.714	16.05
344.925	15.09
345.136	14.27
345.346	14.14
345.557	13.95
345.768	15.58
345.978	15.69
346.189	14.76
346.399	14.89
346.61	14.57
346.821	15.26
347.031	16.96
347.242	16.36
347.452	16.8
347.663	15.55
347.873	15.02
348.084	14.95
348.294	16.48
348.504	16.48
348.715	15.79
348.925	17
349.136	16
349.346	14.71
349.557	14.75
349.767	14.15
349.977	15.11
350.188	16.28
350.398	14.21
350.608	13.17
350.819	13.42
351.029	12.53
351.239	12.9
351.449	14.49
351.66	15.28
351.87	16.09
352.08	17.17
352.29	17.17
352.501	16.08
352.711	18.02
352.921	16.71
353.131	17.25
353.341	17.73
353.552	17.64
353.762	16.51
353.972	15.83
354.182	14.74
354.392	14.02
354.602	15.09
354.812	14.76
355.022	14.37
355.232	15.06
355.442	14.49
355.652	15.04
355.862	14.65
356.072	13.93
356.282	13.62
356.492	14.04
356.702	14.42
356.912	12.81
357.122	13.69
357.332	12.9
357.542	13.48
357.752	12.93
357.962	12.6
358.171	11.91
358.381	11.76
358.591	12.8
358.801	13.35
359.011	14.01
359.221	14.36
359.43	13.96
359.64	14.4
359.85	14.27
360.06	14.57
360.269	14.73
360.479	15.5
360.689	16.15
360.899	15.8
361.108	15.23
361.318	14.67
361.528	15.02
361.737	15.49
361.947	15.5
362.156	15.23
362.366	14.81
362.576	14.72
362.785	14.11
362.995	13.86
363.204	12.96
363.414	13.86
363.623	13.72
363.833	13.31
364.042	13.14
364.252	12.59
364.461	12.46
364.671	12.7
364.88	12.25
365.09	12.09
365.299	12.68
365.509	13.31
365.718	12.21
365.927	12.06
366.137	12.35
366.346	12.07
366.555	12.58
366.765	12.82
366.974	12.39
367.183	12.76
367.393	13.44
367.602	13.95
367.811	13.77
368.021	13.8
368.23	13.25
368.439	13.71
368.648	12.55
368.857	12.16
369.067	11.74
369.276	12.33
369.485	11.69
369.694	11.14
369.903	10.49
370.112	10.93
370.321	10.84
370.531	11.65
370.74	11.04
370.949	12.46
371.158	11.96
371.367	12.09
371.576	12.08
371.785	12.66
371.994	12.05
372.203	11.9
372.412	12
372.621	11.69
372.83	12.37
373.039	11.97
373.248	10.87
373.457	11.77
373.666	11.82
373.874	11.38
374.083	11.01
374.292	11.74
374.501	10.83
374.71	10.69
374.919	10.99
375.128	9.78
375.336	9.98
375.545	10.47
375.754	10.79
375.963	10.53
376.171	10.73
376.38	11
376.589	10.12
376.798	10.94
377.006	10.62
377.215	10.81
377.424	10.71
377.632	10.86
377.841	10.32
378.05	9.54
378.258	9.47
378.467	9.66
378.675	9.39
378.884	9.93
379.093	9.95
379.301	10.37
379.51	10.5
379.718	10.68
379.927	10.36
380.135	10.09
380.344	9.93
380.552	10.09
380.761	10.2
380.969	10.77
381.177	10.77
381.386	10.37
381.594	10.11
381.803	9.28
382.011	9.37
382.219	9.61
382.428	9.94
382.636	10.71
382.845	10.63
383.053	10.22
383.261	9.76
383.469	10.36
383.678	10.15
383.886	10.01
384.094	10.61
384.302	10.5
384.511	10.38
384.719	10.47
384.927	10.16
385.135	10
385.343	10.05
385.552	9.57
385.76	8.82
385.968	8.9
386.176	9.14
386.384	8.65
386.592	8.58
386.8	8.49
387.008	8.55
387.216	8.37
387.424	7.9
387.633	7.78
387.841	8.49
388.049	8.97
388.257	8.61
388.465	8.04
388.672	8.11
388.88	8
389.088	8.14
389.296	8.18
389.504	8.17
389.712	8.7
389.92	8.77
390.128	8.32
390.336	7.68
390.544	7.65
390.751	7.74
390.959	7.9
391.167	8.1
391.375	8
391.583	7.96
391.79	7.85
391.998	7.76
392.206	7.43
392.414	7.34
392.621	7.44
392.829	7.86
393.037	7.69
393.244	7.86
393.452	7.49
393.66	7.26
393.867	7.14
394.075	7.07
394.283	7.25
394.49	7.23
394.698	7.08
394.905	7.02
395.113	7.01
395.32	7.44
395.528	6.89
395.735	6.92
395.943	6.86
396.15	6.74
396.358	6.9
396.565	6.6
396.773	6.87
396.98	6.68
397.188	6.96
397.395	6.89
397.602	6.67
397.81	6.66
398.017	6.97
398.225	6.96
398.432	7.11
398.639	7.02
398.847	7.14
399.054	6.84
399.261	7.08
399.468	6.43
399.676	6.05
399.883	5.77
400.09	5.88
400.297	5.75
400.505	6.21
400.712	6.02
400.919	5.98
401.126	5.74
401.333	6.21
401.54	6.33
401.748	6.93
401.955	7.15
402.162	7.22
402.369	7.32
402.576	7
402.783	6.5
402.99	6.68
403.197	6.46
403.404	6.41
403.611	6.32
403.818	6.08
404.025	5.84
404.232	5.92
404.439	6.32
404.646	6.07
404.853	6.24
405.06	6.27
405.267	5.92
405.474	5.97
405.681	6.13
405.887	5.87
406.094	5.88
406.301	6.01
406.508	6.05
406.715	5.52
406.922	5.76
407.128	5.77
407.335	5.71
407.542	5.81
407.749	6
407.955	5.98
408.162	6.11
408.369	6.22
408.575	6.22
408.782	5.97
408.989	6.29
409.195	6.01
409.402	6.02
409.609	5.85
409.815	5.72
410.022	5.64
410.228	5.62
410.435	5.36
410.642	5.27
410.848	5.43
411.055	5.09
411.261	5.02
411.468	5.05
411.674	4.95
411.881	5.24
412.087	5.75
412.294	5.92
412.5	6.07
412.706	6.34
412.913	6.73
413.119	6.44
413.326	6.48
413.532	6.36
413.738	6.45
413.945	6.27
414.151	6.4
414.357	6.22
414.564	5.89
414.77	5.63
414.976	5.3
415.182	5.22
415.389	5.49
415.595	5.56
415.801	5.44
416.007	5.4
416.214	5.49
416.42	5.3
416.626	5.38
416.832	5.27
417.038	5.35
417.244	5.57
417.45	5.51
417.657	5.26
417.863	5.36
418.069	5.52
418.275	5.44
418.481	5.48
418.687	5.5
418.893	5.3
419.099	5.42
419.305	5.28
419.511	5.28
419.717	5.19
419.923	5.16
420.129	5.25
420.335	5.19
420.541	5.27
420.746	5.25
420.952	5.31
421.158	5.45
421.364	5.22
421.57	5.32
421.776	5.27
421.982	5.19
422.187	5.19
422.393	5.25
422.599	5.21
422.805	5.32
423.01	5.4
423.216	5.22
423.422	5.09
423.628	5.26
423.833	5.24
424.039	5.25
424.245	5.48
424.45	5.52
424.656	5.49
424.862	5.59
425.067	5.44
425.273	5.38
425.478	5.48
425.684	5.51
425.889	5.51
426.095	5.41
426.301	5.43
426.506	5.18
426.712	5.27
426.917	5.08
427.123	4.85
427.328	4.86
427.533	4.88
427.739	4.92
427.944	5.19
428.15	5.18
428.355	5.4
428.561	5.39
428.766	5.44
428.971	5.54
429.177	5.72
429.382	6.02
429.587	5.99
429.793	5.92
429.998	6.01
430.203	5.52
430.408	5.53
430.614	5.28
430.819	5.26
431.024	5.35
431.229	5.03
431.434	5
431.64	5.02
431.845	5.29
432.05	4.98
432.255	4.78
432.46	5.14
432.665	5.26
432.87	5.41
433.076	5.44
433.281	5.32
433.486	5.31
433.691	5.27
433.896	5.04
434.101	4.79
434.306	5.09
434.511	5.1
434.716	5
434.921	4.86
435.126	4.85
435.331	4.79
435.535	4.95
435.74	5.14
435.945	5.04
436.15	5.2
436.355	5.2
436.56	5.05
436.765	5.06
436.97	4.96
437.174	5.23
437.379	5.2
437.584	5.19
437.789	5.12
437.993	4.94
438.198	4.89
438.403	4.84
438.608	4.94
438.812	4.94
439.017	5.03
439.222	5.1
439.426	4.94
439.631	4.92
439.836	4.85
440.04	4.88
440.245	4.79
440.45	4.91
440.654	4.93
440.859	4.95
441.063	5.15
441.268	5.12
441.472	5.06
441.677	5.19
441.881	5.23
442.086	5.29
442.29	5.34
442.495	5.31
442.699	5.21
442.904	5.31
443.108	5.1
443.312	4.96
443.517	5.07
443.721	5.18
443.925	4.99
444.13	4.91
444.334	4.78
444.538	4.79
444.743	4.89
444.947	4.97
445.151	4.91
445.356	4.96
445.56	4.87
445.764	4.79
445.968	4.7
446.173	4.69
446.377	4.81
446.581	4.91
446.785	4.78
446.989	4.67
447.193	4.58
447.398	4.42
447.602	4.52
447.806	4.45
448.01	4.31
448.214	4.34
448.418	4.45
448.622	4.39
448.826	4.37
449.03	4.38
449.234	4.61
449.438	4.9
449.642	5.18
449.846	5
450.05	4.94
450.254	5.2
450.458	5.17
450.662	5.07
450.866	5.07
451.069	5.03
451.273	5
451.477	4.85
451.681	4.63
451.885	4.41
452.089	4.35
452.292	4.55
452.496	4.45
452.7	4.41
452.904	4.41
453.107	4.35
453.311	4.46
453.515	4.61
453.719	4.69
453.922	4.62
454.126	4.52
454.33	4.65
454.533	4.75
454.737	4.57
454.94	4.49
455.144	4.4
455.348	4.31
455.551	4.07
455.755	4
455.958	3.98
456.162	3.97
456.365	4.26
456.569	4.25
456.772	4.37
456.976	4.59
457.179	4.53
457.383	4.6
457.586	4.59
457.79	4.77
457.993	4.63
458.196	4.58
458.4	4.61
458.603	4.5
458.807	4.49
459.01	4.49
459.213	4.28
459.417	4.42
459.62	4.47
459.823	4.5
460.026	4.48
460.23	4.53
460.433	4.63
460.636	4.66
460.839	4.6
461.042	4.57
461.246	4.43
461.449	4.65
461.652	4.43
461.855	4.45
462.058	4.42
462.261	4.39
462.464	4.37
462.668	4.36
462.871	4.41
463.074	4.48
463.277	4.7
463.48	4.69
463.683	4.78
463.886	4.98
464.089	4.87
464.292	4.93
464.495	4.85
464.698	4.88
464.901	4.68
465.104	4.69
465.306	4.66
465.509	4.51
465.712	4.44
465.915	4.33
466.118	4.51
466.321	4.45
466.524	4.51
466.726	4.61
466.929	4.56
467.132	4.63
467.335	4.46
467.538	4.51
467.74	4.38
467.943	4.65
468.146	4.53
468.348	4.3
468.551	4.39
468.754	4.55
468.956	4.46
469.159	4.38
469.362	4.5
469.564	4.67
469.767	4.79
469.969	4.94
470.172	4.78
470.375	4.86
470.577	4.95
470.78	4.91
470.982	4.78
471.185	4.74
471.387	4.8
471.59	4.73
471.792	4.61
471.995	4.37
472.197	4.42
472.399	4.58
472.602	4.56
472.804	4.56
473.007	4.66
473.209	4.53
473.411	4.66
473.614	4.6
473.816	4.45
474.018	4.41
474.22	4.44
474.423	4.54
474.625	4.26
474.827	4.29
475.03	4.33
475.232	4.34
475.434	4.58
475.636	4.61
475.838	4.82
476.04	5.03
476.243	5.14
476.445	5.25
476.647	4.96
476.849	5.09
477.051	4.97
477.253	5.03
477.455	5.03
477.657	4.83
477.859	4.82
478.061	4.64
478.263	4.59
478.465	4.52
478.667	4.5
478.869	4.68
479.071	4.77
479.273	4.89
479.475	4.74
479.677	4.57
479.879	4.45
480.081	4.4
480.283	4.43
480.485	4.35
480.686	4.34
480.888	4.4
481.09	4.52
481.292	4.41
481.494	4.49
481.695	4.61
481.897	4.64
482.099	4.77
482.301	4.67
482.502	4.5
482.704	4.52
482.906	4.49
483.107	4.37
483.309	4.38
483.511	4.36
483.712	4.29
483.914	4.25
484.115	4.21
484.317	4.22
484.519	4.29
484.72	4.32
484.922	4.28
485.123	4.24
485.325	4.28
485.526	4.27
485.728	4.23
485.929	4.25
486.131	4.25
486.332	4.35
486.534	4.3
486.735	4.23
486.936	4.31
487.138	4.34
487.339	4.41
487.541	4.38
487.742	4.33
487.943	4.36
488.144	4.37
488.346	4.39
488.547	4.31
488.748	4.31
488.95	4.39
489.151	4.33
489.352	4.29
489.553	4.3
489.755	4.32
489.956	4.2
490.157	4.29
490.358	4.29
490.559	4.28
490.76	4.33
490.961	4.35
491.163	4.31
491.364	4.39
491.565	4.45
491.766	4.51
491.967	4.56
492.168	4.56
492.369	4.44
492.57	4.4
492.771	4.35
492.972	4.37
493.173	4.3
493.374	4.31
493.575	4.24
493.776	4.21
493.976	4.12
494.177	3.95
494.378	4.13
494.579	4.2
494.78	4.29
494.981	4.43
495.182	4.41
495.382	4.65
495.583	4.65
495.784	4.75
495.985	4.67
496.185	4.6
496.386	4.6
496.587	4.52
496.788	4.65
496.988	4.62
497.189	4.6
497.39	4.5
497.59	4.39
497.791	4.41
497.992	4.37
498.192	4.39
498.393	4.46
498.593	4.72
498.794	4.8
498.994	4.84
499.195	4.86
499.395	4.95
499.596	5.18
499.796	5.07
499.997	4.92
500.197	5.04
500.398	5.27
500.598	5.27
500.799	4.93
500.999	4.84
501.199	4.78
501.4	4.69
501.6	4.5
501.801	4.38
502.001	4.52
502.201	4.67
502.402	4.57
502.602	4.44
502.802	4.54
503.002	4.53
503.203	4.54
503.403	4.54
503.603	4.46
503.803	4.54
504.003	4.41
504.204	4.5
504.404	4.48
504.604	4.6
504.804	4.54
505.004	4.53
505.204	4.54
505.404	4.52
505.604	4.47
505.804	4.59
506.005	4.67
506.205	4.78
506.405	4.75
506.605	4.78
506.805	4.6
507.005	4.66
507.204	4.59
507.404	4.84
507.604	4.92
507.804	4.79
508.004	4.73
508.204	4.53
508.404	4.32
508.604	4.3
508.804	4.19
509.003	4.44
509.203	4.52
509.403	4.64
509.603	4.64
509.803	4.71
510.002	4.64
510.202	4.71
510.402	4.83
510.602	5.1
510.801	4.99
511.001	5.22
511.201	5.06
511.4	5.11
511.6	5.12
511.8	5.09
511.999	5.07
512.199	5.27
512.398	5.33
512.598	5.4
512.797	5.43
512.997	5.57
513.197	5.6
513.396	5.71
513.596	5.56
513.795	5.54
513.994	5.59
514.194	5.51
514.393	5.58
514.593	5.59
514.792	5.49
514.992	5.43
515.191	5.64
515.39	5.48
515.59	5.56
515.789	5.54
515.988	5.51
516.188	5.62
516.387	5.64
516.586	5.64
516.786	5.61
516.985	5.76
517.184	5.75
517.383	5.62
517.582	5.64
517.782	5.65
517.981	5.62
518.18	5.66
518.379	5.51
518.578	5.53
518.777	5.54
518.976	5.58
519.176	5.72
519.375	5.64
519.574	5.55
519.773	5.68
519.972	5.65
520.171	5.76
520.37	5.69
520.569	5.85
520.768	5.93
520.967	5.94
521.166	5.9
521.365	5.82
521.564	5.87
521.762	5.9
521.961	5.84
522.16	5.76
522.359	5.83
522.558	5.7
522.757	5.83
522.956	5.79
523.154	5.76
523.353	5.73
523.552	5.66
523.751	5.81
523.949	5.95
524.148	5.93
524.347	5.87
524.546	5.82
524.744	5.89
524.943	5.75
525.142	5.79
525.34	5.79
525.539	5.82
525.737	5.76
525.936	5.69
526.135	5.74
526.333	5.76
526.532	5.87
526.73	6.03
526.929	6.08
527.127	6.05
527.326	6.05
527.524	6.12
527.723	6.21
527.921	6.25
528.12	6.3
528.318	6.22
528.516	6.18
528.715	6.16
528.913	6
529.112	6.07
529.31	6.09
529.508	6.1
529.707	6.14
529.905	6.11
530.103	6.05
530.301	6.03
530.5	6.19
530.698	6.2
530.896	6.32
531.094	6.51
531.293	6.51
531.491	6.62
531.689	6.64
531.887	6.62
532.085	6.69
532.283	6.76
532.481	6.83
532.68	6.63
532.878	6.68
533.076	6.56
533.274	6.62
533.472	6.66
533.67	6.68
533.868	6.63
534.066	6.61
534.264	6.55
534.462	6.61
534.66	6.49
534.858	6.66
535.056	6.76
535.253	6.94
535.451	6.86
535.649	6.83
535.847	6.73
536.045	6.9
536.243	6.98
536.441	7.14
536.638	7.16
536.836	7.3
537.034	7.24
537.232	7.17
537.43	7.11
537.627	7.2
537.825	7.33
538.023	7.36
538.22	7.28
538.418	7.23
538.616	7.24
538.813	7.23
539.011	7.31
539.209	7.3
539.406	7.32
539.604	7.32
539.801	7.29
539.999	7.25
540.196	7.32
540.394	7.28
540.591	7.42
540.789	7.27
540.986	7.23
541.184	7.2
541.381	7.31
541.579	7.34
541.776	7.38
541.974	7.4
542.171	7.38
542.368	7.43
542.566	7.51
542.763	7.48
542.96	7.56
543.158	7.64
543.355	7.67
543.552	7.56
543.75	7.58
543.947	7.64
544.144	7.69
544.341	7.75
544.539	7.81
544.736	7.89
544.933	7.87
545.13	7.98
545.327	8.14
545.524	8.18
545.722	8.32
545.919	8.54
546.116	8.64
546.313	8.6
546.51	8.72
546.707	8.69
546.904	8.72
547.101	8.8
547.298	8.76
547.495	8.67
547.692	8.93
547.889	8.96
548.086	8.86
548.283	8.75
548.48	8.8
548.677	8.8
548.874	8.87
549.07	8.94
549.267	9.01
549.464	9.13
549.661	9.22
549.858	8.87
550.055	9.1
550.251	9.02
550.448	9.1
550.645	9.16
550.842	9.16
551.038	9.13
551.235	9.29
551.432	9.12
551.628	9.14
551.825	9.14
552.022	9.48
552.218	9.26
552.415	9.54
552.612	9.65
552.808	9.8
553.005	9.82
553.201	9.76
553.398	9.63
553.594	9.73
553.791	9.7
553.987	9.88
554.184	9.89
554.38	10.11
554.577	10.07
554.773	9.97
554.97	9.97
555.166	10.09
555.362	10.21
555.559	10.36
555.755	10.53
555.952	10.66
556.148	10.62
556.344	10.58
556.541	10.42
556.737	10.3
556.933	10.38
557.129	10.31
557.326	10.32
557.522	10.49
557.718	10.49
557.914	10.61
558.11	10.76
558.307	10.78
558.503	10.82
558.699	11
558.895	11.18
559.091	11.35
559.287	11.41
559.483	11.45
559.679	11.51
559.876	11.8
560.072	11.87
560.268	11.87
560.464	11.81
560.66	11.8
560.856	11.81
561.052	11.82
561.247	11.82
561.443	11.87
561.639	11.98
561.835	12
562.031	11.74
562.227	11.56
562.423	11.78
562.619	11.82
562.815	11.89
563.01	12.19
563.206	12.19
563.402	12.23
563.598	12.36
563.793	12.28
563.989	12.34
564.185	12.15
564.381	12.38
564.576	12.28
564.772	12.46
564.968	12.61
565.163	12.33
565.359	12.31
565.555	12.44
565.75	12.41
565.946	12.68
566.141	12.59
566.337	12.95
566.532	12.89
566.728	12.92
566.923	12.9
567.119	13
567.314	13.15
567.51	13.27
567.705	13.26
567.901	13.37
568.096	13.2
568.292	13.37
568.487	13.41
568.682	13.53
568.878	13.5
569.073	13.56
569.268	13.51
569.464	13.56
569.659	13.56
569.854	13.61
570.05	13.61
570.245	13.74
570.44	13.8
570.635	13.85
570.831	13.97
571.026	14.15
571.221	14.23
571.416	14.44
571.611	14.51
571.806	14.71
572.002	14.6
572.197	14.63
572.392	14.75
572.587	14.94
572.782	14.95
572.977	15.08
573.172	15.02
573.367	15.05
573.562	14.88
573.757	14.98
573.952	14.93
574.147	14.92
574.342	15.14
574.537	15.05
574.732	14.9
574.927	15.11
575.121	14.98
575.316	15.02
575.511	14.95
575.706	15.17
575.901	15.26
576.096	15.26
576.29	15.7
576.485	15.65
576.68	15.91
576.875	15.94
577.069	15.97
577.264	15.97
577.459	16.07
577.654	16.23
577.848	16.24
578.043	15.94
578.238	16.06
578.432	15.81
578.627	15.98
578.821	15.85
579.016	15.71
579.21	15.64
579.405	16.03
579.6	16.08
579.794	16.15
579.989	16.17
580.183	16.54
580.378	16.63
580.572	16.77
580.766	16.71
580.961	16.82
581.155	16.84
581.35	16.8
581.544	16.54
581.738	16.97
581.933	17.15
582.127	17.24
582.321	17.16
582.516	17.26
582.71	17.03
582.904	17.19
583.099	17.23
583.293	17.43
583.487	17.32
583.681	17.56
583.875	17.13
584.07	16.83
584.264	16.8
584.458	16.75
584.652	16.66
584.846	16.96
585.04	16.77
585.234	16.67
585.428	16.73
585.623	17.1
585.817	16.8
586.011	16.73
586.205	16.98
586.399	17.06
586.593	17.27
586.787	17.23
586.981	17.21
587.174	17.1
587.368	16.88
587.562	16.98
587.756	16.98
587.95	17.19
588.144	17.24
588.338	17.2
588.532	17.17
588.725	17.36
588.919	17.47
589.113	17.51
589.307	17.85
589.501	18.25
589.694	18.22
589.888	18.1
590.082	18.14
590.275	18.34
590.469	18.35
590.663	18.51
590.856	18.38
591.05	18.24
591.244	18.32
591.437	18.02
591.631	18.1
591.824	17.97
592.018	18.17
592.212	18.08
592.405	18.23
592.599	18.53
592.792	18.18
592.986	18.26
593.179	18.46
593.372	18.5
593.566	18.76
593.759	18.58
593.953	18.55
594.146	18.39
594.339	18.63
594.533	18.5
594.726	18.3
594.92	18.65
595.113	18.71
595.306	18.72
595.499	18.64
595.693	18.72
595.886	18.51
596.079	18.8
596.272	18.78
596.466	18.74
596.659	18.72
596.852	18.76
597.045	18.51
597.238	18.42
597.431	18.43
597.624	18.53
597.818	18.4
598.011	18.7
598.204	18.54
598.397	18.61
598.59	18.74
598.783	18.98
598.976	19.33
599.169	19.39
599.362	19.52
599.555	19.68
599.748	19.52
599.941	19.86
600.134	19.99
600.326	20.25
600.519	20.4
600.712	20.19
600.905	20.02
601.098	19.7
601.291	19.87
601.483	19.86
601.676	19.82
601.869	20.02
602.062	19.67
602.255	19.41
602.447	19.43
602.64	19.26
602.833	19.44
603.025	19.4
603.218	19.4
603.411	19.31
603.603	19.23
603.796	19.01
603.989	18.8
604.181	19.09
604.374	19.16
604.566	19.19
604.759	19.58
604.951	19.45
605.144	19.59
605.336	19.67
605.529	19.76
605.721	19.84
605.914	20.2
606.106	20.42
606.299	20.28
606.491	20.3
606.683	20.23
606.876	19.99
607.068	20.09
607.26	19.92
607.453	20.2
607.645	20.36
607.837	20.42
608.03	20.25
608.222	20.34
608.414	20.29
608.606	20.3
608.799	20.33
608.991	20.33
609.183	20.55
609.375	20.58
609.567	20.56
609.759	20.5
609.952	20.53
610.144	20.51
610.336	20.45
610.528	20.45
610.72	20.36
610.912	20.23
611.104	20.06
611.296	20.12
611.488	20.2
611.68	20.02
611.872	19.93
612.064	19.65
612.256	19.81
612.448	19.74
612.64	19.96
612.832	20.28
613.023	20.35
613.215	20.75
613.407	20.37
613.599	20.55
613.791	20.31
613.983	20.54
614.174	20.79
614.366	20.51
614.558	20.7
614.75	20.69
614.941	20.58
615.133	20.53
615.325	20.15
615.516	20.07
615.708	19.79
615.9	20.05
616.091	19.97
616.283	20.03
616.475	20.24
616.666	20.55
616.858	20.47
617.049	20.55
617.241	20.74
617.432	20.69
617.624	21.04
617.815	21.24
618.007	21.36
618.198	21.32
618.39	21.33
618.581	21.41
618.773	21.08
618.964	20.97
619.155	20.93
619.347	20.91
619.538	20.87
619.729	20.86
619.921	20.62
620.112	20.6
620.303	20.51
620.494	20.36
620.686	20.27
620.877	20.29
621.068	20.22
621.259	20.19
621.451	19.98
621.642	20.22
621.833	20.14
622.024	20.44
622.215	20.43
622.406	20.77
622.597	21.09
622.788	21.01
622.98	20.94
623.171	20.98
623.362	20.9
623.553	21.16
623.744	21.3
623.935	21.31
624.126	21.28
624.317	21.08
624.508	20.89
624.698	20.86
624.889	20.83
625.08	20.83
625.271	21.07
625.462	21.13
625.653	21.4
625.844	21.27
626.034	21.06
626.225	20.81
626.416	20.65
626.607	20.53
626.798	20.3
626.988	20.58
627.179	20.59
627.37	20.65
627.56	20.9
627.751	20.86
627.942	20.91
628.132	21.14
628.323	21.1
628.514	21.42
628.704	21.33
628.895	21.47
629.085	21.55
629.276	21.59
629.466	21.39
629.657	21.29
629.847	21.09
630.038	21.24
630.228	21.24
630.419	21.4
630.609	21.32
630.8	21.55
630.99	21.31
631.181	21.25
631.371	21.48
631.561	21.74
631.752	21.49
631.942	21.43
632.132	21.25
632.323	21.41
632.513	21.47
632.703	21.35
632.893	21.5
633.084	21.79
633.274	21.81
633.464	21.17
633.654	21.07
633.844	21.5
634.034	21.61
634.225	21.94
634.415	21.59
634.605	21.59
634.795	21.7
634.985	21.8
635.175	22.01
635.365	21.77
635.555	22.31
635.745	22.33
635.935	22.09
636.125	22.09
636.315	21.77
636.505	22.29
636.695	22.16
636.885	22.29
637.075	22
637.265	22.07
637.455	22.3
637.644	22.21
637.834	22.35
638.024	22.5
638.214	22.54
638.404	23.01
638.593	22.91
638.783	22.96
638.973	22.88
639.163	23.17
639.352	22.77
639.542	22.52
639.732	22.7
639.921	22.87
640.111	22.57
640.301	22.51
640.49	22.02
640.68	21.87
640.87	21.79
641.059	22.25
641.249	22.3
641.438	22.2
641.628	22.48
641.817	22.42
642.007	22.01
642.196	22.56
642.386	22.42
642.575	22.88
642.764	22.87
642.954	23.24
643.143	22.85
643.333	22.59
643.522	22.85
643.711	22.86
643.901	22.85
644.09	22.73
644.279	22.24
644.469	22.63
644.658	22.25
644.847	21.98
645.036	21.53
645.226	21.18
645.415	21.12
645.604	21.05
645.793	20.98
645.982	20.5
646.171	21.54
646.361	21.81
646.55	21.74
646.739	21.75
646.928	22.11
647.117	22.45
647.306	22.86
647.495	22.93
647.684	23.18
647.873	22.96
648.062	23.72
648.251	23.38
648.44	23.35
648.629	23.67
648.818	23.93
649.007	24.05
649.196	24.01
649.384	24.51
649.573	24.64
649.762	24.57
649.951	25.05
650.14	24.96
650.328	24.32
650.517	24.23
650.706	23.72
650.895	23.36
651.083	23.44
651.272	23.28
651.461	22.91
651.65	22.92
651.838	22.87
652.027	22.72
652.216	22.58
652.404	23.38
652.593	23.77
652.781	23.45
652.97	23.79
653.158	23.26
653.347	23.76
653.535	23.79
653.724	23.86
653.912	23.85
654.101	23.37
654.289	23.54
654.478	23.1
654.666	22.94
654.855	23.51
655.043	23.32
655.231	23.69
655.42	23.53
655.608	23.66
655.796	24
655.985	24.05
656.173	24.49
656.361	24.17
656.55	24.3
656.738	24.32
656.926	24.61
657.114	24.74
657.302	24.56
657.491	24.56
657.679	24.6
657.867	24.27
658.055	24.29
658.243	24.43
658.431	24.29
658.619	24.75
658.807	24.46
658.996	24.3
659.184	24.34
659.372	24.41
659.56	24.51
659.748	24.17
659.936	24.38
660.124	24.56
660.311	24.43
660.499	24.56
660.687	24.09
660.875	24.5
661.063	24.5
661.251	24.71
661.439	25.08
661.627	24.78
661.814	25.11
662.002	24.9
662.19	24.79
662.378	24.65
662.565	24.34
662.753	23.9
662.941	23.18
663.129	23.29
663.316	22.96
663.504	22.8
663.692	23.06
663.879	22.72
664.067	22.99
664.254	22.72
664.442	23.31
664.63	24
664.817	24.23
665.005	24.91
665.192	24.67
665.38	24.66
665.567	24.36
665.755	23.95
665.942	23.95
666.13	23.93
666.317	23.9
666.504	23.53
666.692	23.31
666.879	23.82
667.067	23.61
667.254	23.55
667.441	23.9
667.629	23.9
667.816	24.38
668.003	24.54
668.19	24.5
668.378	24.75
668.565	25.02
668.752	25.21
668.939	25.05
669.127	24.68
669.314	25.08
669.501	24.76
669.688	25.16
669.875	25.26
670.062	25.67
670.249	25.62
670.436	25.63
670.623	25.54
670.81	25.18
670.997	25.4
671.184	25.59
671.371	25.2
671.558	25.58
671.745	25.21
671.932	24.89
672.119	24.66
672.306	24.5
672.493	23.99
672.68	24.21
672.867	24.39
673.054	24.03
673.24	23.96
673.427	23.85
673.614	23.58
673.801	23.8
673.988	24.08
674.174	24.14
674.361	24.51
674.548	25.36
674.734	24.74
674.921	24.51
675.108	24.18
675.294	24.88
675.481	24.81
675.668	24.92
675.854	25.12
676.041	24.98
676.227	24.54
676.414	24.22
676.601	23.8
676.787	24.21
676.974	24.63
677.16	24.85
677.347	24.67
677.533	24.81
677.719	25.07
677.906	25.13
678.092	25.26
678.279	25.35
678.465	25.76
678.651	25.74
678.838	25.7
679.024	25.64
679.21	26.3
679.397	26.26
679.583	26.27
679.769	26.02
679.955	25.36
680.142	25.55
680.328	25.81
680.514	25.46
680.7	25.9
680.886	26.17
681.073	26.01
681.259	25.66
681.445	25.7
681.631	25.95
681.817	25.76
682.003	26.45
682.189	26.18
682.375	25.92
682.561	25.88
682.747	25.85
682.933	25.75
683.119	25.98
683.305	26.01
683.491	25.83
683.677	25.88
683.863	26.17
684.049	26.01
684.235	25.66
684.42	25.56
684.606	25.96
684.792	25.25
684.978	24.95
685.164	25.04
685.349	25.1
685.535	25.42
685.721	25.56
685.907	25.11
686.092	24.86
686.278	25.4
686.464	25.68
686.649	25.77
686.835	26.55
687.021	26.54
687.206	26.71
687.392	26.35
687.577	26.5
687.763	26
687.948	26.3
688.134	26.49
688.319	26.14
688.505	26.36
688.69	26.09
688.876	25.32
689.061	25.35
689.247	25.54
689.432	25.84
689.618	25.01
689.803	25.96
689.988	25.7
690.174	25.45
690.359	25.75
690.544	25.61
690.73	25.99
690.915	26.27
691.1	26.29
691.285	25.96
691.471	25.46
691.656	25.8
691.841	24.92
692.026	24.91
692.211	25.01
692.396	25.58
692.582	25.12
692.767	24.85
692.952	25.25
693.137	25.51
693.322	24.86
693.507	25.25
693.692	25.52
693.877	25.95
694.062	26.24
694.247	26.36
694.432	26.33
694.617	26.8
694.802	26.34
694.987	25.91
695.172	25.58
695.357	26.83
695.541	27.55
695.726	27.08
695.911	27.22
696.096	27.02
696.281	26.7
696.466	25.83
696.65	25.68
696.835	26.4
697.02	26.7
697.204	27.1
697.389	26.88
697.574	26.32
697.759	26.81
697.943	26.44
698.128	26.32
698.312	26.64
698.497	26.84
698.682	27.1
698.866	27.31
699.051	27.27
699.235	27.05
699.42	26.85
699.604	27.31
699.789	27.11
699.973	27.41
700.158	27.52
700.342	27.84
700.527	27.88
700.711	27.54
700.895	26.93
701.08	27.24
701.264	27.59
701.448	27.83
701.633	27.38
701.817	27.19
702.001	26.86
702.186	27.21
702.37	26.97
702.554	26.83
702.738	27.75
702.923	27.63
703.107	27.12
703.291	26.87
703.475	26.83
703.659	26.65
703.843	26.67
704.027	26.22
704.212	26.02
704.396	25.35
704.58	25.83
704.764	25.59
704.948	25.8
705.132	25.91
705.316	25.91
705.5	26.2
705.684	25.88
705.868	26.16
706.052	26.87
706.235	27.14
706.419	28.03
706.603	27.55
706.787	27.14
706.971	27.18
707.155	26.99
707.339	27.34
707.522	26.47
707.706	26.82
707.89	26
708.074	26.09
708.257	26.51
708.441	25.82
708.625	25.91
708.808	26.69
708.992	26.42
709.176	27.02
709.359	26.44
709.543	26.43
709.727	26.4
709.91	26.95
710.094	26.94
710.277	26.43
710.461	26.16
710.644	26.31
710.828	25.13
711.011	25.79
711.195	25.39
711.378	25.53
711.562	25.66
711.745	26.52
711.928	26.78
712.112	26.29
712.295	26.64
712.478	27.5
712.662	27.6
712.845	27.92
713.028	26.94
713.212	26.9
713.395	26.83
713.578	27.11
713.761	26.69
713.945	26.38
714.128	27.23
714.311	27.19
714.494	26.75
714.677	26.49
714.86	26.26
715.043	26.58
715.227	26.45
715.41	26.91
715.593	26.28
715.776	26.28
715.959	27.04
716.142	26.97
716.325	26.97
716.508	26.94
716.691	26.44
716.874	26.81
717.057	27.39
717.239	28.04
717.422	28.23
717.605	29.36
717.788	28.7
717.971	29.54
718.154	29.55
718.337	29.96
718.519	30.1
718.702	30.56
718.885	30.76
719.068	30.45
719.25	30.45
719.433	29.81
719.616	29.66
719.798	30.16
719.981	30
720.164	29.29
720.346	28.41
720.529	29.68
720.712	31.18
720.894	30.63
721.077	30.52
721.259	30.36
721.442	31.69
721.624	32
721.807	31.85
721.989	30.5
722.172	31.19
722.354	31.25
722.537	30.02
722.719	29.33
722.901	28.78
723.084	29.25
723.266	29.15
723.448	27.34
723.631	26.19
723.813	26.88
723.995	28.11
724.178	27.63
724.36	27.7
724.542	27.76
724.724	27.52
724.907	28.56
725.089	27.3
725.271	28.07
725.453	28.99
725.635	29.62
725.817	29.35
725.999	28.76
726.181	28.11
726.364	29.51
726.546	28.82
726.728	28.76
726.91	30.27
727.092	31.31
727.274	30.48
727.456	29.88
727.638	30.34
727.819	30.48
728.001	30.26
728.183	31.05
728.365	30.16
728.547	29.98
728.729	30.43
728.911	29.41
729.093	29.38
729.274	29.01
729.456	29.41
729.638	29.31
729.82	29.09
730.001	29.08
730.183	29.39
730.365	28.93
730.546	30.21
730.728	30.17
730.91	29.41
731.091	29.77
731.273	29.45
731.455	29.09
731.636	28.96
731.818	29.19
731.999	29.78
732.181	30.12
732.362	30.15
732.544	30.65
732.725	29.84
732.907	29.21
733.088	27.69
733.27	29.28
733.451	28.92
733.633	29.22
733.814	28.69
733.995	28.05
734.177	27.33
734.358	27.15
734.539	25.71
734.721	26.4
734.902	27.49
735.083	28.6
735.264	26.7
735.446	27.16
735.627	26.58
735.808	26.73
735.989	26.3
736.17	26.72
736.351	26.98
736.533	26.68
736.714	26.23
736.895	25.6
737.076	26.62
737.257	27.57
737.438	27.23
737.619	27.15
737.8	27.1
737.981	28.36
738.162	27.44
738.343	26.96
738.524	27.41
738.705	26.8
738.886	28.4
739.067	28.16
739.247	26.64
739.428	27.81
739.609	28.17
739.79	28.56
739.971	28.06
740.151	28.99
740.332	29.17
740.513	29.69
740.694	30.41
740.874	30.02
741.055	29.32
741.236	30.75
741.417	29.66
741.597	29.61
741.778	28.35
741.958	29.18
742.139	28.88
742.32	29.13
742.5	28.84
742.681	29.53
742.861	28.48
743.042	28.33
743.222	27.94
743.403	29.5
743.583	28.08
743.764	28.92
743.944	27.62
744.124	27.75
744.305	27.41
744.485	26.95
744.666	27.26
744.846	27.48
745.026	26.77
745.207	28.3
745.387	25.72
745.567	26.26
745.747	26.62
745.928	27.32
746.108	28.41
746.288	28.42
746.468	29.67
746.648	28.63
746.829	29.52
747.009	31.61
747.189	30.46
747.369	31.77
747.549	33.7
747.729	33.25
747.909	31.81
748.089	30.7
748.269	31.13
748.449	29.83
748.629	29.42
748.809	29.38
748.989	27.99
749.169	27.65
749.349	27.33
749.529	26.28
749.709	27.49
749.889	29.88
750.068	29.22
750.248	28.85
750.428	28.54
750.608	29.09
750.788	30.77
750.967	32.18
751.147	32.27
751.327	32.86
751.507	33.22
751.686	32.13
751.866	30.57
752.046	31.26
752.225	31.62
752.405	32.36
752.585	33.56
752.764	31.58
752.944	30.92
753.123	29.74
753.303	28.39
753.482	27.62
753.662	28.11
753.841	28.45
754.021	28.54
754.2	28.73
754.38	29.24
754.559	28.38
754.739	27.81
754.918	26.62
755.097	27.17
755.277	28.02
755.456	27.8
755.635	27.63
755.815	26.92
755.994	27.33
756.173	26.96
756.352	26.91
756.532	26.2
756.711	25.75
756.89	27.13
757.069	28.79
757.248	29.23
757.427	29.01
757.607	29.46
757.786	29.55
757.965	28.77
758.144	29.15
758.323	29.26
758.502	29.34
758.681	29.96
758.86	31.45
759.039	32.11
759.218	32.08
759.397	32.43
759.576	31.32
759.755	32.85
759.934	32.82
760.113	32.94
760.291	33.56
760.47	33.47
760.649	33.51
760.828	31.54
761.007	31.46
761.186	31.2
761.364	31.15
761.543	31.99
761.722	30.18
761.901	31.3
762.079	31.97
762.258	30.32
762.437	31.4
762.615	31.35
762.794	30.98
762.972	30.41
763.151	30.22
763.33	30.61
763.508	30.21
763.687	30.84
763.865	29.75
764.044	29.32
764.222	29.92
764.401	29.09
764.579	29.31
764.758	29.82
764.936	29.21
765.114	29.59
765.293	29.56
765.471	30.09
765.65	30
765.828	30.38
766.006	28.6
766.184	28.21
766.363	27.71
766.541	27.18
766.719	26.96
766.898	26.92
767.076	26.66
767.254	25.75
767.432	25.52
767.61	25.22
767.788	23.67
767.967	25.36
768.145	25.95
768.323	26.02
768.501	25.33
768.679	25.46
768.857	27.66
769.035	28.55
769.213	29.08
769.391	29.43
769.569	29.79
769.747	30.35
769.925	32.45
770.103	33.35
770.281	34.04
770.459	36.22
770.636	35.91
770.814	33.35
770.992	32.25
771.17	32.89
771.348	32.46
771.525	30.5
771.703	32.28
771.881	29.5
772.059	28.59
772.236	29.16
772.414	28.41
772.592	28.57
772.769	32.29
772.947	34.54
773.125	33.39
773.302	35.61
773.48	35.76
773.657	35.46
773.835	36.26
774.013	36.32
774.19	37.09
774.368	37.8
774.545	38.29
774.723	35.55
774.9	35
775.077	36.54
775.255	33.18
775.432	36.72
775.61	37.66
775.787	37.31
775.964	35.5
776.142	32.55
776.319	33.63
776.496	33.64
776.674	34.49
776.851	32.84
777.028	30.61
777.205	31.93
777.382	31.32
777.56	31.47
777.737	31.29
777.914	33.31
778.091	33.14
778.268	29.75
778.445	30.11
778.622	31.85
778.8	29.89
778.977	31.37
779.154	30.88
779.331	29.4
779.508	28.7
779.685	28.98
779.862	29.12
780.038	31.87
780.215	32.69
780.392	32.03
780.569	30.78
780.746	31.37
780.923	31.03
781.1	31.06
781.277	33.41
781.453	32.57
781.63	33.86
781.807	34.23
781.984	35.15
782.16	38.22
782.337	37.65
782.514	35.77
782.691	38.32
782.867	39.44
783.044	37.81
783.221	36.59
783.397	38.01
783.574	37.32
783.75	34.54
783.927	33.49
784.103	29.18
784.28	30.08
784.456	31.88
784.633	29.61
784.809	28.63
784.986	31.24
785.162	28.89
785.339	30.07
785.515	29.87
785.692	32.09
785.868	29.78
786.044	30.71
786.221	31.77
786.397	30.11
786.573	32.65
786.749	33.49
786.926	32.52
787.102	33.51
787.278	30.78
787.454	33.07
787.631	31.7
787.807	34.12
787.983	34.39
788.159	33.53
788.335	33.42
788.511	33.75
788.687	33.08
788.863	35.9
789.039	33.71
789.216	35.22
789.392	33.85
789.568	33.76
789.744	33.07
789.919	32.19
790.095	32.67
790.271	33.23
790.447	31.08
790.623	30.66
790.799	27.37
790.975	30.16
791.151	30.43
791.327	31.94
791.502	32.74
791.678	34.54
791.854	36.09
792.03	36.05
792.205	35.32
792.381	36.31
792.557	34.36
792.733	31.54
792.908	34.77
793.084	33.68
793.259	31.42
793.435	31.4
793.611	34.74
793.786	35.04
793.962	34.13
794.137	36.49
794.313	41.18
794.488	44.05
794.664	48.44
794.839	44.06
795.015	45.67
795.19	42.28
795.366	44.46
795.541	36.56
795.716	36.53
795.892	36.73
796.067	32.9
796.242	28.73
796.418	27.41
796.593	22.93
796.768	22.35
796.944	20.09
797.119	25.46
797.294	25.15
797.469	29.34
797.644	30.4
797.82	29.88
797.995	35.58
798.17	36.65
798.345	37.76
798.52	40.44
798.695	40.95
798.87	41.96
799.045	40.47
799.22	39.49
799.395	39.64
799.57	40.69
799.745	41.01
799.92	37.07
800.095	35.61
800.27	32.81
800.445	31.13
800.62	32.27
800.795	30.33
800.97	26.61
801.145	27.48
801.319	23.72
801.494	23.56
801.669	26.02
801.844	27.14
802.018	27.55
802.193	30.98
802.368	32.28
802.543	29.25
802.717	33.52
802.892	37.24
803.067	35.88
803.241	35.33
803.416	33.85
803.59	29.52
803.765	29.54
803.94	31.93
804.114	30.5
804.289	30.46
804.463	32.57
804.638	34.45
804.812	32.09
804.986	31.49
805.161	34.1
805.335	34.12
805.51	36.32
805.684	32.74
805.858	31.26
806.033	32.39
806.207	33.3
806.381	31.28
806.556	29.9
806.73	32.3
806.904	31.49
807.078	28.84
807.253	28.16
807.427	26.21
807.601	28.13
807.775	30.21
807.949	30.26
808.123	28.89
808.298	29.44
808.472	29.81
808.646	27.82
808.82	30.93
808.994	32.38
809.168	31.41
809.342	34.47
809.516	33.98
809.69	29.63
809.864	30.28
810.038	29.7
810.212	31.45
810.385	26.47
810.559	25.45
810.733	26.89
810.907	29.63
811.081	32.45
811.255	31.44
811.428	36.48
811.602	38.37
811.776	39.35
811.95	43.76
812.123	46.01
812.297	46.63
812.471	51.3
812.644	48.65
812.818	49.08
812.992	48.47
813.165	49.29
813.339	48.8
813.512	52.74
813.686	54.07
813.86	52.93
814.033	53.76
814.207	55.75
814.38	52.2
814.554	56.64
814.727	52.3
814.9	52.92
815.074	50.23
815.247	49.08
815.421	43.6
815.594	39.7
815.767	40.45
815.941	37.29
816.114	37.26
816.287	37.11
816.46	26.58
816.634	26.02
816.807	21.64
816.98	22.52
817.153	21.5
817.327	28.83
817.5	30.85
817.673	29.1
817.846	29.09
818.019	29.81
818.192	34.75
818.365	44.03
818.538	45.44
818.711	45.5
818.884	43.44
819.057	41.64
819.23	39.76
819.403	41.18
819.576	41.84
819.749	40.88
819.922	37.83
820.095	34.9
820.268	28.68
820.441	31.16
820.614	33.73
820.786	34.51
820.959	36.36
821.132	35.63
821.305	33.6
821.477	33.79
821.65	35.29
821.823	34.84
821.996	34.45
822.168	35.2
822.341	34.43
822.514	34.64
822.686	34.4
822.859	34.03
823.031	34.29
823.204	34.74
823.376	34.24
823.549	33.83
823.722	34.59
823.894	34.09
824.067	34.13
824.239	34.18
824.411	33.98
824.584	34.8
824.756	34.23
824.929	33.16
825.101	33.07
825.273	33.74
825.446	33.76
825.618	32.29
825.79	34.13
825.963	33.72
826.135	33.46
826.307	32.57
826.479	32.52
826.652	33.07
826.824	34.5
826.996	35.01
827.168	33.91
827.34	32.92
827.512	34.52
827.684	33.41
827.856	32.12
828.029	31.24
828.201	30.8
828.373	30.13
828.545	29.99
828.717	27.95
828.889	26.43
829.061	26.88
829.232	28.77
829.404	28.36
829.576	27.63
829.748	30.39
829.92	28.8
830.092	29.64
830.264	26.61
830.436	26.97
830.607	29.53
830.779	32.16
830.951	32.07
831.123	30.05
831.294	26.83
831.466	29.41
831.638	25.65
831.809	29.29
831.981	26.74
832.153	30.07
832.324	26.98
832.496	25.03
832.667	22.48
832.839	25.27
833.011	28
833.182	30.5
833.354	27.06
833.525	28.9
833.697	29.9
833.868	31.97
834.039	32.22
834.211	36.71
834.382	38.71
834.554	38.37
834.725	38.31
834.896	37.1
835.068	37.73
835.239	38.57
835.41	39.37
835.581	38.92
835.753	40.57
835.924	38.24
836.095	37.04
836.266	34.79
836.438	33.53
836.609	31.89
836.78	34.71
836.951	34.58
837.122	36.06
837.293	37.43
837.464	39.95
837.635	38.64
837.806	44.14
837.977	42.46
838.148	46.47
838.319	48.31
838.49	43.85
838.661	41.99
838.832	43
839.003	40.78
839.174	41.19
839.345	40.01
839.516	38.23
839.687	34.09
839.857	34.95
840.028	26.91
840.199	28.51
840.37	30.62
840.54	23.3
840.711	11.66
840.882	11.84
841.053	9.25
841.223	7.63
841.394	12.01
841.564	7.62
841.735	7.06
841.906	14.82
842.076	19.38
842.247	26.1
842.417	33.07
842.588	40.76
842.758	38.15
842.929	41.4
843.099	39.55
843.27	37.94
843.44	37.48
843.611	37.55
843.781	33.75
843.951	25.69
844.122	19.32
844.292	14.45
844.462	23.75
844.633	33.75
844.803	25.49
844.973	33.47
845.144	30.59
845.314	36.66
845.484	43.28
845.654	42.55
845.824	47.32
845.995	67.07
846.165	67.99
846.335	53.76
846.505	61.84
846.675	58.46
846.845	61.02
847.015	64.99
847.185	73.52
847.355	67.69
847.525	63.77
847.695	78.12
847.865	73.95
848.035	68.6
848.205	66.89
848.375	57.12
848.545	59.84
848.715	67.31
848.884	63.03
849.054	61.23
849.224	49.52
849.394	50.14
849.564	21.28
849.733	19.85
849.903	28.71
850.073	40.49
850.243	55.64
850.412	64.24
850.582	57.39
850.752	57.35
850.921	54.86
851.091	56.65
851.26	62.91
851.43	68.63
851.599	54.5
851.769	55.13
851.939	50.13
852.108	48
852.278	41.48
852.447	44.27
852.616	49.71
852.786	46.7
852.955	51.95
853.125	46.12
853.294	58.45
853.463	69.43
853.633	80.21
853.802	85.44
853.971	69.86
854.141	57.68
854.31	61.86
854.479	56.09
854.648	56.9
854.818	61.9
854.987	70.17
855.156	49.89
855.325	48.54
855.494	56.04
855.663	53.04
855.832	60.99
856.001	65.88
856.171	71.98
856.34	66.76
856.509	70.65
856.678	75.92
856.847	53.15
857.016	53.36
857.185	51.39
857.353	49.47
857.522	59.51
857.691	48.28
857.86	36.73
858.029	8.28
858.198	8.55
858.367	12.88
858.535	16.89
858.704	26.53
858.873	28.73
859.042	39.53
859.21	34.62
859.379	36.94
859.548	45.54
859.717	53.7
859.885	61.72
860.054	67.41
860.222	77.36
860.391	86.07
860.56	85.95
860.728	93.47
860.897	94.78
861.065	116.13
861.234	113.54
861.402	103.1
861.571	99.98
861.739	98.21
861.908	80.86
862.076	95.98
862.244	92.14
862.413	111.1
862.581	121.86
862.749	114.75
862.918	89.18
863.086	72.94
863.254	61.59
863.423	60.97
863.591	49.72
863.759	70.81
863.927	66.44
864.096	62.76
864.264	66.92
864.432	69.02
864.6	73.92
864.768	63.87
864.936	67.27
865.104	72.88
865.272	58.74
865.44	78.93
865.608	72
865.776	51.21
865.944	52.15
866.112	33
866.28	23.12
866.448	21.66
866.616	2.26
866.784	-2.53
866.952	-18.8
867.12	9.97
867.288	-13.38
867.455	-24.46
867.623	-46.91
867.791	-18.14
867.959	-15.08
868.127	4.93
868.294	-4.52
868.462	7.57
868.63	4.33
868.797	5.68
868.965	4.2
869.133	12.99
869.3	24.5
869.468	30.39
869.636	26.52
869.803	24.09
869.971	11.22
870.138	15.12
870.306	47.73
870.473	68.82
870.641	116.21
870.808	141.93
870.975	143.59
871.143	93.01
871.31	105.22
871.478	95.15
871.645	83.67
871.812	88.82
871.98	91.39
872.147	61.26
872.314	65.26
872.482	53.97
872.649	58.71
872.816	45.97
872.983	43.28
873.15	29.74
873.318	44.12
873.485	54.38
873.652	56.38
873.819	53.99
873.986	74.56
874.153	69.37
874.32	68.95
874.487	65.99
874.654	72.53
874.821	71.98
874.988	59.35
875.155	50.15
875.322	47.81
875.489	39.24
875.656	4.95
875.823	13.54
875.99	15.91
876.157	16.85
876.324	33.25
876.49	42.57
876.657	34.84
876.824	66.76
876.991	45.11
877.157	42.72
877.324	31.44
877.491	60.51
877.658	72.25
877.824	51.33
877.991	72.5
878.157	53.19
878.324	44.95
878.491	49.57
878.657	60
878.824	61.82
878.99	60.83
879.157	61.85
879.323	62.53
879.49	58.16
879.656	59.5
879.823	31.24
879.989	34.59
880.156	55.22
880.322	43.56
880.488	33.72
880.655	11.21
880.821	38.5
880.987	44.11
881.154	29.03
881.32	33.88
881.486	33.15
881.652	36.84
881.819	28.77
881.985	25.55
882.151	28.5
882.317	29.39
882.483	32.87
882.649	29.61
882.816	27.56
882.982	28.7
883.148	28.28
883.314	30.64
883.48	31.45
883.646	31.78
883.812	33.12
883.978	30.25
884.144	29.55
884.31	32.49
884.476	34.52
884.642	38.58
884.807	40.46
884.973	42.43
885.139	42.12
885.305	39.83
885.471	47.08
885.637	46.75
885.802	54.58
885.968	56.34
886.134	53.11
886.3	49.5
886.465	54.16
886.631	52.84
886.797	48.41
886.962	43.84
887.128	48.42
887.293	42.96
887.459	46.89
887.625	40.7
887.79	41.32
887.956	46.47
888.121	50.71
888.287	36.93
888.452	35.15
888.618	40.21
888.783	51.48
