Data from 2937857_Reflection_2.txt Node
Date: Wed Jul 15 15:36:31 EDT 2015
User: robert
Spectrometer: USB4E03001
Autoset integration time: false
Trigger mode: 4
Integration Time (sec): 1.000000E-1
Scans to average: 10
Electric dark correction enabled: true
Nonlinearity correction enabled: false
Boxcar width: 5
Stray light correction enabled: false
XAxis mode: Wavelengths
Stop averaging: false
Number of Pixels in Spectrum: 3648
>>>>>Begin Spectral Data<<<<<
177.566	-157.38
177.785	-869.52
178.005	165.42
178.225	103.26
178.445	165.55
178.665	397.79
178.885	78.54
179.105	-332.99
179.324	1128.4
179.544	-708.85
179.764	-1648.75
179.984	248.47
180.204	123.87
180.423	106.42
180.643	130.27
180.863	102.89
181.083	143.82
181.302	120.77
181.522	147.58
181.742	154.36
181.961	126.05
182.181	108.49
182.401	149.97
182.621	149.08
182.84	114.56
183.06	103.52
183.279	171.93
183.499	130.91
183.719	149.05
183.938	89.16
184.158	84.45
184.377	95.44
184.597	278.78
184.816	123.62
185.036	77.56
185.256	288.08
185.475	138.08
185.695	96.75
185.914	166.95
186.134	152.87
186.353	227.38
186.572	840.24
186.792	268.27
187.011	330.02
187.231	201.45
187.45	245.64
187.67	296.94
187.889	432.16
188.108	686.09
188.328	386.4
188.547	504.09
188.766	43781.82
188.986	1084.55
189.205	397.55
189.424	188.67
189.644	273.8
189.863	382.97
190.082	337.1
190.302	407.17
190.521	239.09
190.74	296.11
190.959	212.47
191.178	61.37
191.398	29.63
191.617	54.78
191.836	-1.29
192.055	122.6
192.274	309.45
192.494	-82.16
192.713	-40.33
192.932	-7.63
193.151	-13.81
193.37	63.51
193.589	106.02
193.808	141.13
194.027	108.96
194.246	165.14
194.465	111.43
194.685	122
194.904	138.92
195.123	427.21
195.342	-521.33
195.561	-200.37
195.78	6.55
195.999	-19.11
196.218	-34.22
196.436	-35.06
196.655	-21252.94
196.874	629.58
197.093	-351.89
197.312	-29.44
197.531	-89.16
197.75	-70.48
197.969	-148.73
198.188	-316.74
198.407	-159.44
198.625	-35.55
198.844	-42.42
199.063	-6.8
199.282	-24.51
199.501	-81.62
199.719	-126.23
199.938	-165.76
200.157	-208.66
200.376	-56.08
200.594	-58.01
200.813	-76.54
201.032	212.12
201.251	289.76
201.469	9256.76
201.688	528.29
201.907	390.95
202.125	143.71
202.344	146.58
202.563	96.01
202.781	77.84
203	195.55
203.218	341.3
203.437	3042.86
203.656	4038.2
203.874	214.34
204.093	240.72
204.311	405.31
204.53	558.93
204.748	489.48
204.967	276.47
205.185	250.22
205.404	189.64
205.622	142.32
205.841	146.61
206.059	146.64
206.278	204
206.496	148.23
206.715	158.09
206.933	312.91
207.151	368.69
207.37	-227.14
207.588	-345.49
207.806	-286.36
208.025	-321.38
208.243	-327.66
208.461	1083.95
208.68	606.47
208.898	-1748.1
209.116	-320.36
209.335	441.02
209.553	311.7
209.771	147.02
209.989	239.79
210.208	320.74
210.426	-1326.89
210.644	-124.75
210.862	-91.98
211.081	-199.67
211.299	-864.25
211.517	-458.09
211.735	-79.76
211.953	17.08
212.171	-14.64
212.39	-44.2
212.608	-90.29
212.826	-50.44
213.044	-153.92
213.262	542.94
213.48	66.18
213.698	54.94
213.916	498.31
214.134	-53.84
214.352	-3071.9
214.57	713.09
214.788	687.01
215.006	1002.34
215.224	-2573.37
215.442	361.34
215.66	343.32
215.878	280.94
216.096	439.78
216.314	-14581.16
216.532	977.37
216.75	232.29
216.968	183.8
217.185	192.93
217.403	211
217.621	166.82
217.839	136.57
218.057	149.75
218.275	137.13
218.492	127.76
218.71	105.51
218.928	92.46
219.146	162.99
219.363	133.33
219.581	153.18
219.799	233.72
220.017	-1713.04
220.234	-27.87
220.452	-73.99
220.67	-834.18
220.887	-752.58
221.105	-3035.82
221.323	-337.8
221.54	543.7
221.758	445.88
221.976	201.88
222.193	159.51
222.411	154.75
222.629	126.19
222.846	94.24
223.064	83.23
223.281	96.7
223.499	86.79
223.716	74.93
223.934	95.33
224.151	138.69
224.369	111.85
224.586	109.19
224.804	111.02
225.021	156.46
225.239	523.65
225.456	-161.5
225.674	1435.22
225.891	-89.83
226.108	-277.9
226.326	60.67
226.543	22.18
226.76	26.05
226.978	-0.01
227.195	-0.01
227.413	9.51
227.63	7.27
227.847	12.57
228.064	11.71
228.282	15.63
228.499	14.39
228.716	15.99
228.934	17.81
229.151	18.51
229.368	21.17
229.585	18.22
229.802	17.47
230.02	16.6
230.237	16.31
230.454	15.38
230.671	21.45
230.888	22.9
231.105	24.89
231.323	23.26
231.54	23.22
231.757	22.77
231.974	26.47
232.191	26.83
232.408	28.87
232.625	33.36
232.842	33.68
233.059	31.56
233.276	37.73
233.493	33.49
233.71	42.2
233.927	40.35
234.144	44.96
234.361	42.54
234.578	42.95
234.795	40.34
235.012	39.55
235.229	39.9
235.446	31.15
235.663	27.1
235.879	32.21
236.096	27.9
236.313	31.67
236.53	34.7
236.747	40.19
236.964	39.51
237.181	43.57
237.397	30.64
237.614	25.59
237.831	33.83
238.048	30.66
238.264	27.16
238.481	21.21
238.698	23.56
238.915	20.72
239.131	18.11
239.348	20.22
239.565	23.83
239.781	27.35
239.998	32.61
240.215	31.62
240.431	29.75
240.648	27.6
240.865	27.5
241.081	26.7
241.298	22.75
241.514	22.32
241.731	21.63
241.947	18.5
242.164	16.28
242.38	15.71
242.597	15.69
242.814	14.51
243.03	14.9
243.246	15.64
243.463	14.7
243.679	15.29
243.896	16.16
244.112	15.46
244.329	16.81
244.545	20.15
244.762	18.59
244.978	18.78
245.194	16.82
245.411	16.39
245.627	15.47
245.843	15.61
246.06	14.75
246.276	13.81
246.492	13.69
246.709	13.29
246.925	12.45
247.141	12.55
247.357	11.98
247.574	12.86
247.79	13.13
248.006	12.79
248.222	12.27
248.439	12.46
248.655	11.61
248.871	11.07
249.087	10.79
249.303	11.08
249.519	10.62
249.736	11.91
249.952	11.35
250.168	10.54
250.384	11.54
250.6	14.53
250.816	14.99
251.032	16
251.248	16.57
251.464	17.29
251.68	18.17
251.896	19.73
252.112	18.71
252.328	19.64
252.544	19.9
252.76	19.31
252.976	16.97
253.192	17.96
253.408	18.76
253.624	20.69
253.84	19.3
254.056	17.4
254.272	18.7
254.487	15.01
254.703	16.78
254.919	15.69
255.135	13.19
255.351	10.9
255.567	8.29
255.782	7.14
255.998	0.37
256.214	1.17
256.43	0.54
256.646	0.08
256.861	4.78
257.077	4.58
257.293	7.88
257.508	11.22
257.724	11.14
257.94	11.73
258.155	11.52
258.371	13.26
258.587	12.26
258.802	12.72
259.018	11.69
259.234	11.49
259.449	11.17
259.665	10.1
259.88	10.33
260.096	10.01
260.312	8.99
260.527	8.7
260.743	9.31
260.958	9.9
261.174	10.46
261.389	9.45
261.605	9.42
261.82	9.36
262.036	10.45
262.251	9.62
262.466	11.44
262.682	13.98
262.897	14.42
263.113	13.68
263.328	13.09
263.543	11.07
263.759	13.06
263.974	12.26
264.189	12.92
264.405	11.08
264.62	10.03
264.835	10.29
265.051	8.8
265.266	9.68
265.481	9.04
265.696	9.75
265.912	11.7
266.127	12.24
266.342	11.15
266.557	11
266.773	10.76
266.988	11.36
267.203	10.68
267.418	9.89
267.633	9.38
267.848	10.01
268.064	9.26
268.279	10.07
268.494	10.23
268.709	10.33
268.924	8.97
269.139	11.28
269.354	11.62
269.569	12.42
269.784	14.3
269.999	14.5
270.214	14.85
270.429	15.84
270.644	13.06
270.859	12.49
271.074	14.73
271.289	14.67
271.504	12.77
271.719	12.58
271.934	11.88
272.149	9.76
272.363	9.97
272.578	11.34
272.793	11.01
273.008	12.01
273.223	12.47
273.438	11.83
273.653	11.95
273.867	12.53
274.082	12.36
274.297	12.39
274.512	15.44
274.726	14.82
274.941	11.38
275.156	11.46
275.371	12.05
275.585	12.06
275.8	11.68
276.015	13.68
276.229	12.65
276.444	12.95
276.659	14.51
276.873	12.13
277.088	13.17
277.302	14.76
277.517	14.68
277.732	15.17
277.946	15.17
278.161	14.99
278.375	14.25
278.59	15.72
278.804	15.79
279.019	12.28
279.233	13.21
279.448	14.3
279.662	14.29
279.877	13.94
280.091	13.44
280.306	14.56
280.52	14.13
280.735	14.19
280.949	13.66
281.163	12.98
281.378	14.66
281.592	15.14
281.806	14.15
282.021	14.55
282.235	14.08
282.449	13.26
282.664	11.31
282.878	13.08
283.092	13.19
283.307	13.69
283.521	14.04
283.735	14.41
283.949	14.71
284.164	14.31
284.378	13.84
284.592	15.23
284.806	14.74
285.02	15.35
285.234	12.67
285.449	11.5
285.663	10.93
285.877	10.51
286.091	10.28
286.305	9.53
286.519	9.64
286.733	9.41
286.947	8.18
287.161	8.8
287.375	8.82
287.589	11.32
287.803	11.68
288.017	11.77
288.231	13.11
288.445	12.76
288.659	13.91
288.873	14.83
289.087	14.05
289.301	12.63
289.515	12.36
289.729	11.71
289.943	10.23
290.157	10.56
290.371	11.39
290.584	10.51
290.798	10.77
291.012	11.23
291.226	10.71
291.44	11.04
291.654	13.58
291.867	13.85
292.081	13.83
292.295	15.22
292.509	15.51
292.722	16.22
292.936	16.96
293.15	16.83
293.364	14.82
293.577	15.2
293.791	16.15
294.005	16.92
294.218	15.74
294.432	16.7
294.645	17.12
294.859	16.78
295.073	15.64
295.286	14.73
295.5	15.08
295.713	15.08
295.927	14.2
296.14	14.55
296.354	13.18
296.568	13.53
296.781	12.72
296.994	11.09
297.208	10.51
297.421	11.33
297.635	11.51
297.848	10.5
298.062	10.98
298.275	11.49
298.489	11.57
298.702	11.3
298.915	11.48
299.129	12.03
299.342	12.83
299.555	13.37
299.769	11.37
299.982	12.22
300.195	13.94
300.409	12.77
300.622	11.78
300.835	10.88
301.048	12.24
301.262	13.05
301.475	14.59
301.688	15.2
301.901	16.39
302.115	17.22
302.328	16.07
302.541	16.33
302.754	17.82
302.967	18.94
303.18	18.17
303.393	17.67
303.607	16.79
303.82	15.63
304.033	15.49
304.246	15.26
304.459	15.56
304.672	16.22
304.885	15.2
305.098	14.8
305.311	14.52
305.524	14.83
305.737	13.51
305.95	13.64
306.163	12.61
306.376	10.93
306.589	11.14
306.802	9.98
307.015	10.43
307.228	11.97
307.44	11.45
307.653	12.78
307.866	14.14
308.079	14.43
308.292	15.93
308.505	17.74
308.718	19.49
308.93	20.07
309.143	20.59
309.356	20.53
309.569	20.88
309.781	21.5
309.994	20.29
310.207	19.42
310.42	20.87
310.632	19.95
310.845	18.12
311.058	17.79
311.27	16.94
311.483	18.06
311.696	17.62
311.908	16.65
312.121	16.3
312.333	16.38
312.546	17.58
312.759	15.62
312.971	15.94
313.184	18.3
313.396	17.4
313.609	16.25
313.821	16.03
314.034	15.61
314.246	16.26
314.459	15.44
314.671	15.97
314.884	14.73
315.096	17.14
315.309	17.41
315.521	15.74
315.733	16.71
315.946	18.09
316.158	17.33
316.371	17.73
316.583	16.54
316.795	16.65
317.008	16.05
317.22	16.88
317.432	14.6
317.644	14.6
317.857	13.89
318.069	14.07
318.281	13.39
318.494	14.45
318.706	14.88
318.918	14.17
319.13	16.35
319.342	15.78
319.555	14.43
319.767	15.14
319.979	14.83
320.191	15.57
320.403	14.69
320.615	15.07
320.827	13.29
321.039	14.19
321.252	14.9
321.464	13.93
321.676	14.6
321.888	14.7
322.1	14.96
322.312	14.42
322.524	14.52
322.736	15.75
322.948	15.99
323.16	16.87
323.372	16.2
323.584	17.34
323.796	18.31
324.007	17.32
324.219	18.41
324.431	17.31
324.643	19.01
324.855	18.05
325.067	18.46
325.279	17.91
325.491	17.48
325.702	17.01
325.914	16.39
326.126	15.13
326.338	16.75
326.55	16.27
326.761	16.39
326.973	15.45
327.185	16.29
327.396	15.16
327.608	16.14
327.82	16.39
328.032	17.18
328.243	15.98
328.455	16.31
328.666	16.18
328.878	16.58
329.09	18.3
329.301	18.06
329.513	18.09
329.725	18.62
329.936	18.02
330.148	19.12
330.359	18.45
330.571	20.44
330.782	21.47
330.994	19.62
331.205	19.96
331.417	19.7
331.628	19.43
331.84	20.21
332.051	20.14
332.262	20.33
332.474	18.91
332.685	20.07
332.897	19.99
333.108	19.59
333.319	22.02
333.531	20.33
333.742	20.16
333.953	19.7
334.165	18.82
334.376	20.22
334.587	19.58
334.799	20.15
335.01	19.59
335.221	18.37
335.432	18.54
335.644	18
335.855	18.31
336.066	19.34
336.277	20.36
336.488	20.33
336.7	18.99
336.911	19.21
337.122	18.19
337.333	17.83
337.544	19.2
337.755	18.29
337.966	16.27
338.177	16.84
338.388	16.52
338.599	16.88
338.811	16.64
339.022	15.59
339.233	16.44
339.444	18.1
339.655	17.84
339.866	17.08
340.076	17.31
340.287	19.95
340.498	19.54
340.709	18.46
340.92	17.94
341.131	18.92
341.342	19.82
341.553	17.93
341.764	16.83
341.975	17.92
342.185	18.5
342.396	19
342.607	17.31
342.818	18.47
343.029	19.11
343.239	19.53
343.45	19.91
343.661	20.41
343.872	21.1
344.082	20.66
344.293	20.67
344.504	19.54
344.714	19.33
344.925	20.22
345.136	19.34
345.346	18.69
345.557	18.33
345.768	17.09
345.978	16.78
346.189	17.15
346.399	17.96
346.61	17.61
346.821	18.7
347.031	18.09
347.242	17.38
347.452	17.93
347.663	18.18
347.873	19.32
348.084	19.32
348.294	19.93
348.504	19.89
348.715	19.45
348.925	19.06
349.136	17.72
349.346	16.87
349.557	16.28
349.767	16.63
349.977	16.51
350.188	15.18
350.398	16.78
350.608	16.52
350.819	16.68
351.029	16.66
351.239	17
351.449	18.9
351.66	19.23
351.87	21.07
352.08	20.09
352.29	21.76
352.501	21.74
352.711	20.26
352.921	19.14
353.131	18.26
353.341	18.65
353.552	17.49
353.762	16.5
353.972	16.45
354.182	15.64
354.392	15.21
354.602	15.29
354.812	14.59
355.022	14.59
355.232	16.44
355.442	17.92
355.652	16.79
355.862	16.93
356.072	16.88
356.282	18.1
356.492	18.13
356.702	18.83
356.912	17.77
357.122	19.07
357.332	19.47
357.542	19.06
357.752	18.41
357.962	18.22
358.171	18.85
358.381	17.95
358.591	17.94
358.801	18.16
359.011	17.85
359.221	17.62
359.43	17.03
359.64	17.36
359.85	15.55
360.06	14.41
360.269	14.89
360.479	14.71
360.689	15.46
360.899	14.86
361.108	14.5
361.318	14.7
361.528	14.8
361.737	14.55
361.947	14.1
362.156	14.61
362.366	14.74
362.576	15.25
362.785	14.88
362.995	14.27
363.204	13.9
363.414	13.13
363.623	12.62
363.833	12.9
364.042	13.22
364.252	12.98
364.461	13.09
364.671	13.61
364.88	13.33
365.09	13.52
365.299	13.83
365.509	14.32
365.718	15.14
365.927	15.2
366.137	14.45
366.346	13.87
366.555	13.76
366.765	12.98
366.974	12.89
367.183	12.47
367.393	12.29
367.602	11.83
367.811	11.5
368.021	10.64
368.23	11.43
368.439	11.39
368.648	11.43
368.857	11.11
369.067	11.95
369.276	11.98
369.485	12.34
369.694	12.12
369.903	12.6
370.112	13.25
370.321	13.89
370.531	12.85
370.74	12.39
370.949	11.87
371.158	12.03
371.367	12.06
371.576	11.78
371.785	11.09
371.994	11.8
372.203	11.7
372.412	11.1
372.621	11.36
372.83	11.8
373.039	12.01
373.248	12.33
373.457	12
373.666	11.18
373.874	10.91
374.083	11.55
374.292	10.8
374.501	10.85
374.71	10.56
374.919	10.46
375.128	9.76
375.336	9.42
375.545	9.34
375.754	9.6
375.963	9.88
376.171	10.24
376.38	9.74
376.589	9.81
376.798	10.02
377.006	11.17
377.215	11.17
377.424	11.45
377.632	12.1
377.841	12.3
378.05	12.33
378.258	12.18
378.467	12.01
378.675	11.92
378.884	12.29
379.093	11.78
379.301	11.08
379.51	10.66
379.718	10.38
379.927	9.51
380.135	9.24
380.344	9.58
380.552	9.77
380.761	9.89
380.969	10.18
381.177	9.92
381.386	10.47
381.594	10.51
381.803	10.62
382.011	10.61
382.219	10.93
382.428	11.03
382.636	10.15
382.845	10.28
383.053	10.19
383.261	9.64
383.469	9.71
383.678	9.38
383.886	9.28
384.094	9.24
384.302	9.27
384.511	9.65
384.719	9.3
384.927	10.3
385.135	10.05
385.343	9.85
385.552	10.07
385.76	9.64
385.968	9.41
386.176	9.18
386.384	8.99
386.592	9.36
386.8	8.27
387.008	8.2
387.216	7.27
387.424	7.31
387.633	7.3
387.841	7.44
388.049	7.2
388.257	7.63
388.465	7.34
388.672	6.93
388.88	6.89
389.088	7.65
389.296	7.7
389.504	7.82
389.712	7.72
389.92	7.59
390.128	7.13
390.336	7.73
390.544	7.73
390.751	8.2
390.959	8.75
391.167	8.37
391.375	8.29
391.583	8.32
391.79	8.1
391.998	8
392.206	7.99
392.414	8.41
392.621	8.31
392.829	7.86
393.037	7.77
393.244	7.38
393.452	7.57
393.66	7.29
393.867	7.57
394.075	7.72
394.283	7.83
394.49	7.53
394.698	7.39
394.905	7.33
395.113	7.37
395.32	7.27
395.528	7.67
395.735	7.04
395.943	7.3
396.15	7
396.358	6.87
396.565	7.04
396.773	7.81
396.98	7.92
397.188	7.68
397.395	7.91
397.602	8
397.81	7.64
398.017	8.35
398.225	8.25
398.432	7.98
398.639	8.1
398.847	8.17
399.054	7.67
399.261	7.67
399.468	7.8
399.676	7.6
399.883	7.61
400.09	7.79
400.297	7.4
400.505	7.37
400.712	7.61
400.919	7.96
401.126	7.56
401.333	7.71
401.54	7.51
401.748	7.33
401.955	7.54
402.162	7.54
402.369	7.4
402.576	7.38
402.783	7.49
402.99	7.3
403.197	6.69
403.404	6.65
403.611	6.52
403.818	6.48
404.025	6.42
404.232	6.19
404.439	6.09
404.646	6.37
404.853	6.52
405.06	6.64
405.267	6.76
405.474	7.26
405.681	7.27
405.887	7.43
406.094	7.32
406.301	7.32
406.508	7.44
406.715	7.25
406.922	7.22
407.128	7.03
407.335	6.42
407.542	6.56
407.749	6
407.955	6.03
408.162	5.81
408.369	6.13
408.575	6.35
408.782	6.45
408.989	6.57
409.195	6.57
409.402	6.66
409.609	7.2
409.815	7.03
410.022	7.45
410.228	7.68
410.435	7.72
410.642	7.74
410.848	7.64
411.055	7.55
411.261	7.49
411.468	7.05
411.674	6.96
411.881	6.84
412.087	6.82
412.294	6.69
412.5	6.43
412.706	6.52
412.913	6.23
413.119	6.06
413.326	6.26
413.532	6.24
413.738	6.33
413.945	6.46
414.151	6.42
414.357	6.32
414.564	6.1
414.77	6.12
414.976	6.07
415.182	6
415.389	6.35
415.595	5.99
415.801	6.06
416.007	6.41
416.214	6.35
416.42	6.22
416.626	6.43
416.832	6.8
417.038	6.77
417.244	6.82
417.45	7.05
417.657	6.92
417.863	7.06
418.069	7.17
418.275	6.86
418.481	6.94
418.687	7.13
418.893	6.9
419.099	6.64
419.305	6.56
419.511	6.52
419.717	6.41
419.923	6.34
420.129	6.26
420.335	6.13
420.541	6.22
420.746	6.19
420.952	6.14
421.158	6.22
421.364	6.29
421.57	6.23
421.776	6.29
421.982	6.18
422.187	6.24
422.393	6.35
422.599	6.44
422.805	6.43
423.01	6.35
423.216	6.23
423.422	6.21
423.628	6.2
423.833	6.35
424.039	6.26
424.245	6.15
424.45	5.99
424.656	5.96
424.862	5.81
425.067	5.76
425.273	5.78
425.478	5.65
425.684	5.57
425.889	5.67
426.095	5.58
426.301	5.62
426.506	5.86
426.712	5.97
426.917	5.7
427.123	5.81
427.328	5.73
427.533	5.57
427.739	5.83
427.944	6.05
428.15	5.97
428.355	6.16
428.561	6.15
428.766	6.27
428.971	6.1
429.177	6.29
429.382	6.44
429.587	6.69
429.793	6.85
429.998	6.68
430.203	6.67
430.408	6.76
430.614	6.7
430.819	6.51
431.024	6.4
431.229	6.66
431.434	6.9
431.64	6.76
431.845	6.6
432.05	6.76
432.255	6.94
432.46	6.81
432.665	6.78
432.87	6.64
433.076	6.81
433.281	6.88
433.486	6.81
433.691	6.42
433.896	6.41
434.101	6.34
434.306	6.38
434.511	6.42
434.716	6.54
434.921	6.48
435.126	6.48
435.331	6.33
435.535	6.11
435.74	6.24
435.945	6.26
436.15	6.26
436.355	6.34
436.56	6.37
436.765	6.4
436.97	6.41
437.174	6.46
437.379	6.65
437.584	6.66
437.789	6.72
437.993	6.62
438.198	6.69
438.403	6.66
438.608	6.76
438.812	6.51
439.017	6.35
439.222	6.27
439.426	5.99
439.631	5.87
439.836	5.79
440.04	5.78
440.245	5.71
440.45	5.75
440.654	5.8
440.859	5.59
441.063	5.64
441.268	5.59
441.472	5.68
441.677	5.89
441.881	5.82
442.086	5.95
442.29	6.01
442.495	6.13
442.699	6.19
442.904	6.11
443.108	6.27
443.312	6.27
443.517	6.29
443.721	6.09
443.925	6.08
444.13	5.97
444.334	5.85
444.538	5.84
444.743	5.63
444.947	5.64
445.151	5.68
445.356	5.72
445.56	5.73
445.764	5.74
445.968	5.78
446.173	5.76
446.377	5.9
446.581	5.95
446.785	6.03
446.989	6.05
447.193	5.98
447.398	5.92
447.602	5.79
447.806	5.81
448.01	5.87
448.214	5.83
448.418	5.84
448.622	5.93
448.826	6.04
449.03	5.82
449.234	5.99
449.438	6.11
449.642	6.09
449.846	6.21
450.05	6.12
450.254	6.05
450.458	6.14
450.662	5.98
450.866	5.81
451.069	5.72
451.273	5.96
451.477	5.79
451.681	5.84
451.885	5.98
452.089	6.08
452.292	6.22
452.496	6.22
452.7	6.33
452.904	6.47
453.107	6.62
453.311	6.54
453.515	6.56
453.719	6.76
453.922	6.67
454.126	6.48
454.33	6.3
454.533	6.17
454.737	6.25
454.94	6.07
455.144	6.14
455.348	6.01
455.551	5.97
455.755	5.98
455.958	5.81
456.162	5.81
456.365	5.99
456.569	6.26
456.772	6.29
456.976	6.26
457.179	6.23
457.383	6.11
457.586	6.2
457.79	6.46
457.993	6.35
458.196	6.18
458.4	6.08
458.603	6.11
458.807	5.84
459.01	5.98
459.213	5.87
459.417	5.76
459.62	5.75
459.823	5.63
460.026	5.4
460.23	5.36
460.433	5.51
460.636	5.53
460.839	5.32
461.042	5.37
461.246	5.2
461.449	5.24
461.652	5.43
461.855	5.46
462.058	5.63
462.261	5.61
462.464	5.63
462.668	5.6
462.871	5.74
463.074	5.9
463.277	5.88
463.48	6.02
463.683	6.13
463.886	6.07
464.089	5.99
464.292	5.83
464.495	6
464.698	5.92
464.901	5.82
465.104	5.64
465.306	5.75
465.509	5.8
465.712	5.68
465.915	5.55
466.118	5.5
466.321	5.48
466.524	5.43
466.726	5.34
466.929	5.32
467.132	5.5
467.335	5.53
467.538	5.53
467.74	5.45
467.943	5.39
468.146	5.49
468.348	5.39
468.551	5.32
468.754	5.31
468.956	5.31
469.159	5.39
469.362	5.15
469.564	5.15
469.767	4.88
469.969	4.96
470.172	4.97
470.375	4.93
470.577	5.21
470.78	5.27
470.982	5.32
471.185	5.39
471.387	5.53
471.59	5.5
471.792	5.39
471.995	5.35
472.197	5.47
472.399	5.54
472.602	5.48
472.804	5.32
473.007	5.24
473.209	5.51
473.411	5.51
473.614	5.44
473.816	5.57
474.018	5.76
474.22	5.97
474.423	5.87
474.625	5.89
474.827	5.97
475.03	6.07
475.232	6.07
475.434	5.93
475.636	5.96
475.838	5.76
476.04	5.86
476.243	5.77
476.445	5.74
476.647	5.66
476.849	5.69
477.051	5.7
477.253	5.5
477.455	5.69
477.657	5.54
477.859	5.41
478.061	5.55
478.263	5.45
478.465	5.51
478.667	5.52
478.869	5.42
479.071	5.26
479.273	5.2
479.475	5.23
479.677	5.13
479.879	5.32
480.081	5.47
480.283	5.38
480.485	5.2
480.686	5.21
480.888	5.22
481.09	5.31
481.292	5.36
481.494	5.44
481.695	5.49
481.897	5.42
482.099	5.31
482.301	5.23
482.502	5.25
482.704	5.32
482.906	5.28
483.107	5.34
483.309	5.29
483.511	5.3
483.712	5.23
483.914	5.24
484.115	5.25
484.317	5.26
484.519	5.29
484.72	5.26
484.922	5.3
485.123	5.28
485.325	5.23
485.526	5.3
485.728	5.34
485.929	5.35
486.131	5.36
486.332	5.41
486.534	5.39
486.735	5.38
486.936	5.39
487.138	5.37
487.339	5.5
487.541	5.46
487.742	5.46
487.943	5.48
488.144	5.49
488.346	5.47
488.547	5.42
488.748	5.4
488.95	5.41
489.151	5.5
489.352	5.45
489.553	5.34
489.755	5.38
489.956	5.32
490.157	5.23
490.358	5.28
490.559	5.29
490.76	5.35
490.961	5.4
491.163	5.44
491.364	5.36
491.565	5.34
491.766	5.41
491.967	5.36
492.168	5.36
492.369	5.36
492.57	5.33
492.771	5.42
492.972	5.38
493.173	5.44
493.374	5.36
493.575	5.43
493.776	5.62
493.976	5.54
494.177	5.62
494.378	5.69
494.579	5.78
494.78	5.84
494.981	5.67
495.182	5.69
495.382	5.67
495.583	5.76
495.784	5.8
495.985	5.75
496.185	5.86
496.386	5.89
496.587	5.97
496.788	5.88
496.988	5.76
497.189	6.02
497.39	6.12
497.59	6.02
497.791	6.05
497.992	5.93
498.192	5.94
498.393	5.92
498.593	6.05
498.794	5.97
498.994	5.97
499.195	6.1
499.395	5.87
499.596	5.78
499.796	5.8
499.997	5.69
500.197	5.79
500.398	5.72
500.598	5.69
500.799	5.62
500.999	5.6
501.199	5.63
501.4	5.63
501.6	5.55
501.801	5.67
502.001	5.84
502.201	5.79
502.402	5.78
502.602	5.98
502.802	5.98
503.002	5.89
503.203	5.84
503.403	5.79
503.603	5.82
503.803	6.1
504.003	5.96
504.204	5.87
504.404	5.96
504.604	6.07
504.804	5.89
505.004	5.94
505.204	5.99
505.404	6.04
505.604	6.07
505.804	6.07
506.005	6.02
506.205	6.29
506.405	6.43
506.605	6.55
506.805	6.35
507.005	6.56
507.204	6.61
507.404	6.85
507.604	7.04
507.804	7.26
508.004	7.27
508.204	7.19
508.404	6.92
508.604	6.82
508.804	6.78
509.003	6.93
509.203	6.98
509.403	6.78
509.603	6.49
509.803	6.43
510.002	6.34
510.202	6.45
510.402	6.43
510.602	6.49
510.801	6.59
511.001	6.63
511.201	6.61
511.4	6.28
511.6	6.45
511.8	6.56
511.999	6.49
512.199	6.58
512.398	6.56
512.598	6.72
512.797	6.77
512.997	6.54
513.197	6.47
513.396	6.52
513.596	6.75
513.795	6.66
513.994	6.7
514.194	6.94
514.393	6.86
514.593	6.89
514.792	6.84
514.992	6.94
515.191	7.16
515.39	7.32
515.59	7.26
515.789	7.37
515.988	7.56
516.188	7.74
516.387	7.64
516.586	7.75
516.786	7.49
516.985	7.47
517.184	7.49
517.383	7.39
517.582	7.2
517.782	7.23
517.981	7.16
518.18	7.08
518.379	6.99
518.578	6.99
518.777	6.95
518.976	7.02
519.176	7.03
519.375	7
519.574	7.09
519.773	7.21
519.972	7.21
520.171	7.15
520.37	7.19
520.569	7.15
520.768	7.09
520.967	7.13
521.166	7.15
521.365	7.24
521.564	7.19
521.762	7.2
521.961	7.3
522.16	7.4
522.359	7.58
522.558	7.55
522.757	7.44
522.956	7.72
523.154	7.79
523.353	7.8
523.552	7.77
523.751	7.78
523.949	7.72
524.148	7.64
524.347	7.61
524.546	7.48
524.744	7.59
524.943	7.74
525.142	7.49
525.34	7.34
525.539	7.53
525.737	7.52
525.936	7.53
526.135	7.64
526.333	7.79
526.532	7.84
526.73	7.96
526.929	7.97
527.127	7.94
527.326	8.02
527.524	8.12
527.723	7.98
527.921	7.99
528.12	8.02
528.318	8.01
528.516	7.95
528.715	7.99
528.913	8
529.112	7.99
529.31	7.97
529.508	8.01
529.707	8.01
529.905	8.06
530.103	8.09
530.301	8.05
530.5	8.09
530.698	8.07
530.896	7.98
531.094	7.98
531.293	8.07
531.491	8.3
531.689	8.36
531.887	8.37
532.085	8.44
532.283	8.45
532.481	8.6
532.68	8.56
532.878	8.57
533.076	8.69
533.274	8.69
533.472	8.61
533.67	8.54
533.868	8.49
534.066	8.65
534.264	8.69
534.462	8.74
534.66	8.76
534.858	8.86
535.056	8.93
535.253	8.91
535.451	8.98
535.649	9.1
535.847	9.11
536.045	9.13
536.243	8.93
536.441	8.97
536.638	9.03
536.836	9.04
537.034	9.12
537.232	9.21
537.43	9.23
537.627	9.26
537.825	9.3
538.023	9.21
538.22	9.19
538.418	9.26
538.616	9.28
538.813	9.3
539.011	9.3
539.209	9.15
539.406	9.07
539.604	9.15
539.801	9.12
539.999	9.27
540.196	9.4
540.394	9.58
540.591	9.59
540.789	9.6
540.986	9.71
541.184	9.76
541.381	9.88
541.579	9.96
541.776	9.93
541.974	10.03
542.171	9.91
542.368	10.01
542.566	10
542.763	10.16
542.96	10.18
543.158	10.17
543.355	10.2
543.552	10.11
543.75	10.18
543.947	10.23
544.144	10.16
544.341	10.21
544.539	10.14
544.736	10.14
544.933	10.09
545.13	10.11
545.327	10.08
545.524	10.1
545.722	10.28
545.919	10.25
546.116	10.43
546.313	10.49
546.51	10.63
546.707	10.69
546.904	10.65
547.101	10.75
547.298	10.82
547.495	10.83
547.692	10.9
547.889	10.95
548.086	10.98
548.283	10.91
548.48	11.12
548.677	11.21
548.874	11.37
549.07	11.57
549.267	11.48
549.464	11.45
549.661	11.6
549.858	11.79
550.055	11.77
550.251	11.86
550.448	11.86
550.645	11.83
550.842	11.91
551.038	11.85
551.235	11.95
551.432	12.21
551.628	12.33
551.825	12.41
552.022	12.03
552.218	12.08
552.415	11.96
552.612	11.99
552.808	11.93
553.005	11.95
553.201	11.96
553.398	11.88
553.594	12
553.791	12.24
553.987	12.23
554.184	12.63
554.38	12.73
554.577	12.98
554.773	12.92
554.97	12.97
555.166	12.83
555.362	12.89
555.559	13.07
555.755	12.91
555.952	12.82
556.148	12.96
556.344	12.81
556.541	12.77
556.737	12.7
556.933	13.19
557.129	13.31
557.326	13.52
557.522	13.54
557.718	13.51
557.914	13.21
558.11	13.19
558.307	12.88
558.503	13
558.699	13.1
558.895	13.18
559.091	13.1
559.287	13.12
559.483	13.36
559.679	13.5
559.876	13.5
560.072	13.84
560.268	13.82
560.464	14.05
560.66	13.95
560.856	14.12
561.052	14.27
561.247	14.23
561.443	14.39
561.639	14.27
561.835	14.34
562.031	14.41
562.227	14.4
562.423	14.81
562.619	14.8
562.815	14.84
563.01	14.89
563.206	14.77
563.402	14.85
563.598	14.68
563.793	14.57
563.989	14.55
564.185	14.53
564.381	14.6
564.576	14.45
564.772	14.56
564.968	14.58
565.163	14.61
565.359	14.61
565.555	14.57
565.75	14.73
565.946	14.88
566.141	14.92
566.337	14.94
566.532	15.09
566.728	15.03
566.923	15.12
567.119	15.42
567.314	15.23
567.51	15.43
567.705	15.58
567.901	15.59
568.096	15.47
568.292	15.61
568.487	15.74
568.682	15.72
568.878	15.77
569.073	15.78
569.268	15.87
569.464	16.05
569.659	16.12
569.854	16.11
570.05	16.33
570.245	16.51
570.44	16.47
570.635	16.69
570.831	16.6
571.026	16.41
571.221	16.37
571.416	16.12
571.611	16.04
571.806	15.86
572.002	15.88
572.197	15.68
572.392	15.6
572.587	15.53
572.782	15.27
572.977	15.44
573.172	15.7
573.367	15.65
573.562	15.81
573.757	15.9
573.952	16.21
574.147	16.1
574.342	16.26
574.537	16.21
574.732	16.24
574.927	16.44
575.121	16.34
575.316	16.23
575.511	16.35
575.706	16.47
575.901	16.46
576.096	16.31
576.29	16.46
576.485	16.57
576.68	16.84
576.875	16.98
577.069	16.93
577.264	16.93
577.459	16.96
577.654	17.22
577.848	17.28
578.043	17.4
578.238	17.38
578.432	17.26
578.627	17.2
578.821	17.21
579.016	17.24
579.21	17.17
579.405	17.39
579.6	17.69
579.794	17.4
579.989	17.21
580.183	17.06
580.378	17.12
580.572	17.37
580.766	17.31
580.961	17.09
581.155	17.02
581.35	17.3
581.544	17.27
581.738	17.38
581.933	17.65
582.127	17.67
582.321	17.87
582.516	18.12
582.71	18.2
582.904	18.04
583.099	18.18
583.293	18.31
583.487	18.02
583.681	17.86
583.875	17.6
584.07	17.4
584.264	17.38
584.458	17.53
584.652	17.48
584.846	17.6
585.04	18.06
585.234	18.16
585.428	17.92
585.623	18.2
585.817	18.45
586.011	18.62
586.205	18.5
586.399	18.62
586.593	18.55
586.787	18.42
586.981	18.04
587.174	17.66
587.368	17.7
587.562	17.78
587.756	17.91
587.95	17.46
588.144	17.41
588.338	17.61
588.532	17.75
588.725	17.68
588.919	17.51
589.113	17.97
589.307	18.34
589.501	18.54
589.694	18.61
589.888	18.63
590.082	18.77
590.275	18.68
590.469	18.73
590.663	18.8
590.856	19.01
591.05	19.01
591.244	18.7
591.437	18.64
591.631	18.38
591.824	18.52
592.018	18.61
592.212	18.9
592.405	18.95
592.599	19.23
592.792	18.96
592.986	18.92
593.179	19.41
593.372	19.37
593.566	19.36
593.759	19.66
593.953	19.84
594.146	19.36
594.339	19.4
594.533	19.69
594.726	19.52
594.92	19.64
595.113	19.74
595.306	19.61
595.499	19.51
595.693	19.36
595.886	19.18
596.079	18.82
596.272	18.87
596.466	18.83
596.659	18.65
596.852	18.58
597.045	18.34
597.238	18.21
597.431	18.23
597.624	18.36
597.818	18.38
598.011	18.31
598.204	18.47
598.397	18.87
598.59	18.74
598.783	18.82
598.976	18.99
599.169	18.94
599.362	19.02
599.555	19
599.748	19.02
599.941	19.19
600.134	19.22
600.326	19.24
600.519	19.06
600.712	19.19
600.905	18.81
601.098	18.7
601.291	18.87
601.483	19.01
601.676	18.89
601.869	18.83
602.062	18.71
602.255	19.04
602.447	19.1
602.64	19.17
602.833	19.32
603.025	19.6
603.218	19.7
603.411	19.99
603.603	19.72
603.796	19.91
603.989	19.91
604.181	19.96
604.374	19.84
604.566	19.86
604.759	19.88
604.951	19.93
605.144	19.92
605.336	19.99
605.529	19.75
605.721	19.79
605.914	19.91
606.106	19.9
606.299	19.96
606.491	19.89
606.683	19.71
606.876	19.61
607.068	19.37
607.26	19.36
607.453	19.1
607.645	19.4
607.837	19.42
608.03	19.34
608.222	19.59
608.414	19.52
608.606	19.63
608.799	19.93
608.991	20.16
609.183	20.26
609.375	20.34
609.567	20.46
609.759	20.31
609.952	20.37
610.144	20.25
610.336	20.09
610.528	20.25
610.72	20.24
610.912	20.36
611.104	20.2
611.296	20.07
611.488	20.07
611.68	20.15
611.872	20.2
612.064	20.12
612.256	20.41
612.448	20.58
612.64	20.4
612.832	20.41
613.023	20.01
613.215	20.01
613.407	20.17
613.599	20.23
613.791	20.06
613.983	20.04
614.174	20.28
614.366	19.89
614.558	20.13
614.75	20.03
614.941	20.09
615.133	20.28
615.325	20.54
615.516	20.76
615.708	20.63
615.9	20.64
616.091	20.6
616.283	20.54
616.475	20.94
616.666	20.96
616.858	21.2
617.049	20.96
617.241	21.3
617.432	20.72
617.624	20.51
617.815	20.45
618.007	20.83
618.198	21.18
618.39	21.46
618.581	21.12
618.773	20.97
618.964	20.95
619.155	21.01
619.347	20.53
619.538	20.87
619.729	20.63
619.921	20.71
620.112	20.23
620.303	20.02
620.494	19.94
620.686	20.23
620.877	20.36
621.068	20.35
621.259	20.43
621.451	20.84
621.642	20.94
621.833	21.41
622.024	21.35
622.215	21.7
622.406	21.64
622.597	21.53
622.788	21.3
622.98	21.21
623.171	21.14
623.362	21.24
623.553	20.83
623.744	20.63
623.935	20.49
624.126	20.66
624.317	20.45
624.508	20.61
624.698	20.51
624.889	20.42
625.08	20.33
625.271	20.39
625.462	20.32
625.653	20.42
625.844	20.71
626.034	20.71
626.225	20.56
626.416	20.47
626.607	20.33
626.798	20.35
626.988	20.37
627.179	20.54
627.37	20.68
627.56	20.75
627.751	20.78
627.942	20.59
628.132	20.47
628.323	20.6
628.514	20.6
628.704	20.65
628.895	20.61
629.085	20.79
629.276	20.7
629.466	20.72
629.657	21.05
629.847	21.19
630.038	21.28
630.228	21.52
630.419	21.44
630.609	21.66
630.8	21.94
630.99	21.69
631.181	21.45
631.371	21.42
631.561	21.63
631.752	21.22
631.942	20.91
632.132	20.55
632.323	20.5
632.513	20.62
632.703	20.43
632.893	20.49
633.084	20.78
633.274	20.91
633.464	20.81
633.654	20.6
633.844	20.77
634.034	20.99
634.225	21.32
634.415	21.24
634.605	21.1
634.795	21.27
634.985	21.14
635.175	21.38
635.365	21.61
635.555	21.64
635.745	21.63
635.935	21.62
636.125	21.52
636.315	21.74
636.505	21.95
636.695	22.14
636.885	22.17
637.075	22.02
637.265	21.99
637.455	21.84
637.644	22.09
637.834	21.89
638.024	21.99
638.214	22.01
638.404	21.69
638.593	21.82
638.783	21.57
638.973	21.11
639.163	21.55
639.352	21.24
639.542	21.24
639.732	21.06
639.921	20.88
640.111	20.79
640.301	20.99
640.49	20.83
640.68	20.44
640.87	20.57
641.059	20.57
641.249	20.48
641.438	20.96
641.628	20.69
641.817	20.61
642.007	20.79
642.196	21.08
642.386	21.15
642.575	21.49
642.764	21.79
642.954	22.06
643.143	22.49
643.333	22.24
643.522	21.34
643.711	21.56
643.901	21.64
644.09	21.83
644.279	21.04
644.469	21.07
644.658	20.66
644.847	20.89
645.036	21.05
645.226	21.18
645.415	20.79
645.604	21.15
645.793	21.37
645.982	21.5
646.171	21.4
646.361	21.65
646.55	21.31
646.739	21.99
646.928	21.61
647.117	20.86
647.306	20.97
647.495	21.61
647.684	21.97
647.873	21.84
648.062	21.57
648.251	21.69
648.44	22.06
648.629	22.15
648.818	22.06
649.007	21.93
649.196	22.44
649.384	21.95
649.573	21.52
649.762	21.55
649.951	21.79
650.14	22.22
650.328	22.32
650.517	22.16
650.706	22.33
650.895	22.08
651.083	22.11
651.272	22.01
651.461	22.27
651.65	22.29
651.838	22.13
652.027	21.76
652.216	21.7
652.404	21.35
652.593	21.19
652.781	21.5
652.97	21.79
653.158	22.17
653.347	22.23
653.535	22.82
653.724	23.26
653.912	23.49
654.101	23.67
654.289	23.49
654.478	23.76
654.666	24.08
654.855	23.69
655.043	23.69
655.231	23.5
655.42	23.67
655.608	23.25
655.796	23.13
655.985	22.88
656.173	22.99
656.361	23.02
656.55	22.98
656.738	23.12
656.926	23.31
657.114	23.36
657.302	23
657.491	22.94
657.679	22.75
657.867	22.47
658.055	22.51
658.243	22.56
658.431	22.54
658.619	22.66
658.807	22.73
658.996	22.7
659.184	22.48
659.372	22.76
659.56	22.7
659.748	22.76
659.936	23.08
660.124	22.85
660.311	22.93
660.499	23.03
660.687	22.99
660.875	22.67
661.063	22.56
661.251	22.79
661.439	23.05
661.627	23.14
661.814	23.62
662.002	23.51
662.19	23.68
662.378	23.34
662.565	23.29
662.753	23.47
662.941	24.03
663.129	24.33
663.316	24.03
663.504	23.86
663.692	23.61
663.879	23.1
664.067	23.23
664.254	23.47
664.442	23.74
664.63	23.85
664.817	23.79
665.005	23.52
665.192	23.54
665.38	23.62
665.567	23.97
665.755	24.18
665.942	24.07
666.13	23.63
666.317	23.8
666.504	24.06
666.692	24.13
666.879	23.76
667.067	23.26
667.254	23.25
667.441	23.05
667.629	22.29
667.816	22.17
668.003	22.78
668.19	23.17
668.378	22.88
668.565	22.28
668.752	22.09
668.939	22.32
669.127	21.93
669.314	21.55
669.501	22.05
669.688	22.45
669.875	22.5
670.062	21.93
670.249	21.79
670.436	21.68
670.623	22.33
670.81	22.3
670.997	22.41
671.184	22.97
671.371	23.39
671.558	22.95
671.745	22.84
671.932	23.16
672.119	23.76
672.306	23.78
672.493	24.14
672.68	24.11
672.867	24.54
673.054	24.25
673.24	24.9
673.427	24.47
673.614	24.22
673.801	24.15
673.988	24.13
674.174	23.54
674.361	22.98
674.548	22.5
674.734	22.01
674.921	21.96
675.108	22.72
675.294	22.56
675.481	22.66
675.668	23.11
675.854	23.55
676.041	23.59
676.227	24.28
676.414	25.46
676.601	25.66
676.787	25.93
676.974	25.44
677.16	24.97
677.347	24.78
677.533	24.55
677.719	24.28
677.906	24.05
678.092	23.72
678.279	23.14
678.465	22.56
678.651	22.86
678.838	22.82
679.024	22.99
679.21	23.08
679.397	23.15
679.583	23.74
679.769	23.87
679.955	23.9
680.142	24.01
680.328	23.85
680.514	24.22
680.7	24.06
680.886	24.32
681.073	24.25
681.259	24.31
681.445	24.1
681.631	23.62
681.817	23.86
682.003	24.38
682.189	24.49
682.375	25.03
682.561	24.78
682.747	24.81
682.933	24.87
683.119	25.29
683.305	25.12
683.491	25.03
683.677	25.46
683.863	25.43
684.049	24.73
684.235	24.33
684.42	24.23
684.606	24.14
684.792	23.83
684.978	22.9
685.164	22.79
685.349	23.04
685.535	23.83
685.721	23.9
685.907	23.44
686.092	23.47
686.278	23.56
686.464	23.07
686.649	23.22
686.835	23.69
687.021	24.13
687.206	23.92
687.392	23.93
687.577	23.61
687.763	23.59
687.948	23.55
688.134	23.42
688.319	24.28
688.505	24.51
688.69	24.7
688.876	24.34
689.061	25.06
689.247	25.26
689.432	25.12
689.618	24.97
689.803	25.07
689.988	25.67
690.174	25.63
690.359	25.26
690.544	25.12
690.73	25.17
690.915	25.84
691.1	25.37
691.285	25.14
691.471	24.54
691.656	24.26
691.841	24.23
692.026	23.2
692.211	23.52
692.396	24.01
692.582	24.39
692.767	24.12
692.952	24.28
693.137	24.49
693.322	24.49
693.507	25.34
693.692	25.43
693.877	24.94
694.062	25.88
694.247	25.23
694.432	24.75
694.617	25.07
694.802	24.87
694.987	24.65
695.172	24.77
695.357	25.14
695.541	24.81
695.726	24.64
695.911	24.31
696.096	24.25
696.281	24.76
696.466	24.68
696.65	24.66
696.835	24.5
697.02	23.97
697.204	23.54
697.389	23.12
697.574	23.66
697.759	24.06
697.943	24.52
698.128	24.44
698.312	24.21
698.497	24.24
698.682	24.29
698.866	24.3
699.051	24.57
699.235	24.4
699.42	24.81
699.604	24.44
699.789	24.25
699.973	24.15
700.158	24.33
700.342	24.95
700.527	24.7
700.711	24.79
700.895	25.13
701.08	24.98
701.264	25.22
701.448	25.31
701.633	25.48
701.817	26.03
702.001	26.48
702.186	26.28
702.37	25.73
702.554	26.07
702.738	25.98
702.923	26.34
703.107	26.54
703.291	26.74
703.475	26.72
703.659	26.44
703.843	25.85
704.027	26.11
704.212	26.34
704.396	26.79
704.58	27.11
704.764	27.68
704.948	27.48
705.132	27.5
705.316	27.64
705.5	27.17
705.684	26.8
705.868	26.99
706.052	26.99
706.235	26.75
706.419	26.93
706.603	26.49
706.787	25.46
706.971	25.26
707.155	25.83
707.339	25.7
707.522	25.15
707.706	25.73
707.89	26.56
708.074	26.3
708.257	26.12
708.441	25.54
708.625	25.58
708.808	26.32
708.992	26.5
709.176	25.77
709.359	26.02
709.543	26.89
709.727	26.75
709.91	25.95
710.094	25.71
710.277	26.03
710.461	26.25
710.644	26.09
710.828	26.06
711.011	25.55
711.195	25.3
711.378	25.49
711.562	25.22
711.745	25.54
711.928	25.87
712.112	25.89
712.295	26.13
712.478	25.79
712.662	26.16
712.845	25.13
713.028	25.56
713.212	25.43
713.395	24.61
713.578	24.31
713.761	24.32
713.945	23.93
714.128	24.13
714.311	24.52
714.494	24.93
714.677	25.05
714.86	25.41
715.043	25.15
715.227	25.43
715.41	25.9
715.593	26.58
715.776	26.34
715.959	25.61
716.142	25.12
716.325	24.82
716.508	24.47
716.691	24.59
716.874	24.3
717.057	24.82
717.239	25.6
717.422	25.69
717.605	25.07
717.788	25.11
717.971	25.39
718.154	25.87
718.337	25.88
718.519	26.68
718.702	26.46
718.885	26.64
719.068	27.04
719.25	27.13
719.433	27.2
719.616	27.81
719.798	27.58
719.981	28.88
720.164	28.6
720.346	28.33
720.529	27.23
720.712	27.1
720.894	27.47
721.077	26.74
721.259	26.15
721.442	25.39
721.624	24.72
721.807	24.86
721.989	23.28
722.172	24.16
722.354	23.85
722.537	24.88
722.719	25.07
722.901	25.3
723.084	25.06
723.266	26.27
723.448	26.99
723.631	27.59
723.813	28.79
723.995	29.58
724.178	28.68
724.36	29.61
724.542	29.29
724.724	28.3
724.907	27.65
725.089	27.99
725.271	27
725.453	27.59
725.635	27.71
725.817	26.34
725.999	26.38
726.181	26.7
726.364	26.28
726.546	27.08
726.728	27.36
726.91	26.9
727.092	26.16
727.274	25.82
727.456	24.8
727.638	24.56
727.819	25.67
728.001	25.77
728.183	25.86
728.365	26.1
728.547	25.35
728.729	25.34
728.911	26.05
729.093	26.27
729.274	27.6
729.456	28.11
729.638	27.94
729.82	26.57
730.001	26.39
730.183	26.98
730.365	27.23
730.546	26.73
730.728	27.07
730.91	27.25
731.091	28.33
731.273	27.59
731.455	26.9
731.636	27.54
731.818	28.6
731.999	28.42
732.181	27.64
732.362	27.13
732.544	27.7
732.725	26.88
732.907	26.02
733.088	25.29
733.27	24.88
733.451	25.22
733.633	25.73
733.814	24.87
733.995	25.57
734.177	26.13
734.358	27.15
734.539	27.37
734.721	28.09
734.902	28.72
735.083	28.23
735.264	28.37
735.446	29.29
735.627	28.02
735.808	28.53
735.989	27.5
736.17	27.94
736.351	28.31
736.533	27.87
736.714	28.99
736.895	28.87
737.076	30.12
737.257	30.09
737.438	29.69
737.619	30.28
737.8	31.15
737.981	31.57
738.162	30.73
738.343	29.12
738.524	30.08
738.705	29.38
738.886	29.91
739.067	29.29
739.247	29.55
739.428	28.65
739.609	27.65
739.79	25.27
739.971	25.09
740.151	24.56
740.332	24.03
740.513	23.73
740.694	24.3
740.874	23.54
741.055	23.91
741.236	23.92
741.417	24.01
741.597	24.42
741.778	25.39
741.958	26.28
742.139	26.72
742.32	27.43
742.5	27.3
742.681	26.86
742.861	26.95
743.042	28.04
743.222	27.92
743.403	27.89
743.583	27.64
743.764	29.18
743.944	28.93
744.124	28.72
744.305	29.16
744.485	29.98
744.666	29.1
744.846	29.63
745.026	28.31
745.207	27.41
745.387	28.99
745.567	29.37
745.747	29.48
745.928	29.15
746.108	29.2
746.288	28.87
746.468	27.25
746.648	27.88
746.829	28.88
747.009	29.08
747.189	29.51
747.369	28.64
747.549	28.3
747.729	26.63
747.909	26.55
748.089	27.12
748.269	26.96
748.449	26.55
748.629	27.14
748.809	25.65
748.989	25.05
749.169	25.01
749.349	25.78
749.529	27.17
749.709	28.5
749.889	28.53
750.068	28.44
750.248	28.75
750.428	30.57
750.608	29.99
750.788	31.7
750.967	32.22
751.147	33.01
751.327	32.34
751.507	30.94
751.686	30.11
751.866	30.32
752.046	30.38
752.225	29.93
752.405	28.57
752.585	28.72
752.764	28.61
752.944	28.06
753.123	27.51
753.303	28.33
753.482	29.61
753.662	30.13
753.841	30.43
754.021	30.18
754.2	31.08
754.38	31.94
754.559	31.33
754.739	30.7
754.918	30.58
755.097	30.86
755.277	29.02
755.456	28.82
755.635	29.23
755.815	28.57
755.994	28.42
756.173	29.27
756.352	28.92
756.532	29.43
756.711	28.67
756.89	29.71
757.069	29.1
757.248	30.28
757.427	28.88
757.607	28.31
757.786	28.68
757.965	28.68
758.144	27.13
758.323	26.88
758.502	27.54
758.681	28.25
758.86	28.25
759.039	29.7
759.218	28.94
759.397	29.06
759.576	28.89
759.755	28.92
759.934	28.83
760.113	28.57
760.291	28.58
760.47	28.06
760.649	27.71
760.828	26.06
761.007	25.26
761.186	25.05
761.364	25.69
761.543	25.96
761.722	27
761.901	27.34
762.079	27.16
762.258	27.75
762.437	28.32
762.615	28.44
762.794	29.08
762.972	28.53
763.151	28.57
763.33	28.71
763.508	28.54
763.687	27.83
763.865	27.93
764.044	28.23
764.222	28.07
764.401	27.47
764.579	27.64
764.758	26.57
764.936	26.53
765.114	26.78
765.293	26.63
765.471	26.39
765.65	26.21
765.828	25.1
766.006	25.46
766.184	25.59
766.363	24.41
766.541	23.38
766.719	24.7
766.898	24.78
767.076	24.7
767.254	25.09
767.432	26.9
767.61	27.5
767.788	28.49
767.967	29.08
768.145	28.8
768.323	30.14
768.501	31.82
768.679	32.05
768.857	33.5
769.035	34.02
769.213	32.04
769.391	30.22
769.569	30.26
769.747	32.13
769.925	29.77
770.103	29.52
770.281	30.97
770.459	29.87
770.636	31.46
770.814	29.42
770.992	28.94
771.17	29.49
771.348	27.67
771.525	28.05
771.703	27.09
771.881	29.07
772.059	28.42
772.236	25.52
772.414	27.85
772.592	27.55
772.769	28.1
772.947	28.16
773.125	28.55
773.302	33.75
773.48	33.67
773.657	32.06
773.835	33.49
774.013	34.75
774.19	37.05
774.368	35.76
774.545	35.72
774.723	36.1
774.9	35.52
775.077	39.12
775.255	36.69
775.432	36.49
775.61	37.88
775.787	36.25
775.964	36.81
776.142	35.17
776.319	34
776.496	30.22
776.674	30.91
776.851	32.11
777.028	27.81
777.205	26.14
777.382	25.78
777.56	23.79
777.737	24.35
777.914	23.36
778.091	24.91
778.268	25.53
778.445	27.64
778.622	27.04
778.8	26.9
778.977	28.6
779.154	30.05
779.331	31.01
779.508	32.68
779.685	32.04
779.862	32.35
780.038	29.97
780.215	32.25
780.392	33.34
780.569	34.65
780.746	34.46
780.923	36.07
781.1	37.29
781.277	33.46
781.453	33.48
781.63	33.71
781.807	33.39
781.984	34.95
782.16	34.05
782.337	32.86
782.514	31.35
782.691	30.59
782.867	30.93
783.044	28.12
783.221	32.13
783.397	32.47
783.574	31.05
783.75	29.89
783.927	30.86
784.103	28.13
784.28	28.55
784.456	28.04
784.633	30.21
784.809	27.06
784.986	26.55
785.162	27.22
785.339	24.94
785.515	25.67
785.692	25.52
785.868	24.48
786.044	25.44
786.221	25.39
786.397	27.69
786.573	27.26
786.749	26.41
786.926	25.89
787.102	25.35
787.278	25.99
787.454	26.9
787.631	26.47
787.807	26.15
787.983	28.19
788.159	28.83
788.335	29.3
788.511	30.37
788.687	31.9
788.863	33.15
789.039	32.58
789.216	31.05
789.392	29.35
789.568	31.44
789.744	31.47
789.919	31.15
790.095	31.04
790.271	28.22
790.447	25.45
790.623	24.61
790.799	24.78
790.975	22.33
791.151	26.77
791.327	30.9
791.502	30.69
791.678	30.22
791.854	27.44
792.03	23.81
792.205	23.37
792.381	23.46
792.557	24.98
792.733	26.12
792.908	28.77
793.084	25.71
793.259	23.05
793.435	20.92
793.611	21.69
793.786	20.95
793.962	26.99
794.137	30.36
794.313	31.28
794.488	29.27
794.664	26.95
794.839	27.75
795.015	29.16
795.19	29.32
795.366	29.77
795.541	30.88
795.716	30.75
795.892	28.87
796.067	29.49
796.242	27.75
796.418	30
796.593	31.13
796.768	29.54
796.944	29.04
797.119	27.01
797.294	27.04
797.469	26.41
797.644	30.27
797.82	30.93
797.995	28.88
798.17	29.68
798.345	27
798.52	25.17
798.695	23.95
798.87	24.98
799.045	26.13
799.22	26.78
799.395	29.41
799.57	29.01
799.745	27.34
799.92	29.15
800.095	31.57
800.27	34.53
800.445	38.73
800.62	41.07
800.795	40.9
800.97	41.76
801.145	40.38
801.319	39.73
801.494	36.52
801.669	39.16
801.844	36.97
802.018	36.59
802.193	35.02
802.368	32.33
802.543	31.93
802.717	30.51
802.892	29.92
803.067	31.43
803.241	23.32
803.416	25.34
803.59	24.45
803.765	25.41
803.94	24.98
804.114	27.6
804.289	26.66
804.463	24.56
804.638	29.58
804.812	28.9
804.986	30.23
805.161	37.02
805.335	38.47
805.51	36.79
805.684	38.88
805.858	40.18
806.033	38.37
806.207	41.37
806.381	43.59
806.556	37.89
806.73	39.96
806.904	40.85
807.078	40.36
807.253	40.87
807.427	40.12
807.601	36.36
807.775	35.02
807.949	35.85
808.123	35.43
808.298	32.28
808.472	37.76
808.646	34.63
808.82	36.23
808.994	37.11
809.168	35.02
809.342	34.52
809.516	34.1
809.69	31.71
809.864	31.2
810.038	32.85
810.212	35.25
810.385	34.77
810.559	35.75
810.733	35.2
810.907	34.98
811.081	32.05
811.255	32.25
811.428	37.61
811.602	41.01
811.776	41.9
811.95	37.55
812.123	42.12
812.297	38.82
812.471	40.66
812.644	36.11
812.818	38.52
812.992	43.18
813.165	46.62
813.339	43.52
813.512	43.76
813.686	42.94
813.86	44.76
814.033	38.59
814.207	42.92
814.38	41.21
814.554	42.04
814.727	39.01
814.9	38.12
815.074	38.64
815.247	34.82
815.421	30.39
815.594	27.29
815.767	33.4
815.941	30.83
816.114	31.84
816.287	32.09
816.46	32.94
816.634	30.34
816.807	31.29
816.98	30.82
817.153	38.44
817.327	39.21
817.5	40.38
817.673	39.21
817.846	39.38
818.019	34.15
818.192	31.95
818.365	36.15
818.538	36.51
818.711	38.25
818.884	37.3
819.057	34.43
819.23	31.96
819.403	33.65
819.576	32.26
819.749	35.39
819.922	34.06
820.095	36.71
820.268	32.13
820.441	29.48
820.614	26.51
820.786	24.92
820.959	26.42
821.132	28.93
821.305	28.75
821.477	27.68
821.65	28.05
821.823	29.5
821.996	29.38
822.168	29.89
822.341	30.43
822.514	30.55
822.686	30.28
822.859	29.28
823.031	29.08
823.204	28.79
823.376	28.87
823.549	28.97
823.722	28.94
823.894	28.47
824.067	29.46
824.239	29.36
824.411	28.95
824.584	30.74
824.756	30.27
824.929	30.04
825.101	31.31
825.273	31.29
825.446	30.66
825.618	30.1
825.79	30.54
825.963	29.11
826.135	30.36
826.307	31
826.479	29.48
826.652	31.02
826.824	30.57
826.996	28.98
827.168	29.77
827.34	29.95
827.512	29.07
827.684	29.75
827.856	30.59
828.029	30.15
828.201	29.49
828.373	29.77
828.545	29.28
828.717	29.12
828.889	28.96
829.061	28.45
829.232	30.59
829.404	32.8
829.576	31.19
829.748	30.5
829.92	28.78
830.092	30.09
830.264	30.04
830.436	32.65
830.607	32.6
830.779	32.04
830.951	33.37
831.123	30.85
831.294	29.93
831.466	31.41
831.638	32.19
831.809	35.18
831.981	34.03
832.153	34
832.324	32.99
832.496	37.62
832.667	37.71
832.839	36.67
833.011	33.68
833.182	37.05
833.354	36.22
833.525	36.65
833.697	35.13
833.868	37.01
834.039	37.95
834.211	35.75
834.382	35.31
834.554	35.67
834.725	35.2
834.896	35.88
835.068	32.6
835.239	34.24
835.41	32.63
835.581	35.49
835.753	34.26
835.924	35.91
836.095	39.42
836.266	41.16
836.438	40.73
836.609	37.21
836.78	39.05
836.951	42.09
837.122	38.69
837.293	40.16
837.464	38.78
837.635	41.8
837.806	36.75
837.977	33.8
838.148	32.73
838.319	34.92
838.49	40.2
838.661	41.63
838.832	41.43
839.003	48.96
839.174	45.72
839.345	46.6
839.516	43.47
839.687	42.6
839.857	40.71
840.028	35.61
840.199	37.9
840.37	35.82
840.54	32.48
840.711	35.73
840.882	30.44
841.053	38.81
841.223	36.2
841.394	36.57
841.564	38.7
841.735	39.48
841.906	38.75
842.076	35.53
842.247	41.64
842.417	36.34
842.588	34.33
842.758	33.41
842.929	26.97
843.099	33.43
843.27	33.37
843.44	32.77
843.611	35.95
843.781	36.71
843.951	44.66
844.122	36.9
844.292	41.46
844.462	43.27
844.633	50.05
844.803	48.13
844.973	48.82
845.144	52.05
845.314	70.83
845.484	75.17
845.654	73.45
845.824	46.62
845.995	58.17
846.165	70.91
846.335	59.43
846.505	49.13
846.675	48.22
846.845	35.87
847.015	26.86
847.185	17.4
847.355	2.82
847.525	12.85
847.695	29.06
847.865	29.38
848.035	25.13
848.205	22.12
848.375	28.72
848.545	38.08
848.715	33.4
848.884	43.41
849.054	49.23
849.224	67.72
849.394	59.42
849.564	56.96
849.733	56.67
849.903	56.39
850.073	57.98
850.243	62.6
850.412	51.4
850.582	48.73
850.752	46.84
850.921	58.95
851.091	59.71
851.26	80.57
851.43	93.66
851.599	77.08
851.769	51.43
851.939	62.31
852.108	73.76
852.278	83.29
852.447	95.96
852.616	100.3
852.786	80.05
852.955	53.57
853.125	48.07
853.294	47.56
853.463	72.52
853.633	77.74
853.802	72.45
853.971	71.28
854.141	84.1
854.31	105.61
854.479	87.3
854.648	72.92
854.818	88.39
854.987	87.81
855.156	69.82
855.325	65.04
855.494	74.83
855.663	82.53
855.832	65.49
856.001	60.61
856.171	55.06
856.34	54.38
856.509	69.38
856.678	75.06
856.847	69.84
857.016	74.69
857.185	81.83
857.353	88.5
857.522	92.78
857.691	95.33
857.86	108.21
858.029	110.54
858.198	120.97
858.367	117.35
858.535	98.12
858.704	88.62
858.873	92.12
859.042	93.13
859.21	74.69
859.379	87.81
859.548	86.94
859.717	70.05
859.885	81.48
860.054	94.21
860.222	92.2
860.391	114.81
860.56	127.5
860.728	106.18
860.897	89.1
861.065	98.63
861.234	80.78
861.402	79.01
861.571	79.18
861.739	66.57
861.908	61.71
862.076	65.92
862.244	59.95
862.413	61.94
862.581	62.48
862.749	56.26
862.918	40.31
863.086	47.95
863.254	48.76
863.423	35.79
863.591	27.12
863.759	29.16
863.927	17.64
864.096	35.23
864.264	15.14
864.432	33.07
864.6	52.43
864.768	70.36
864.936	53.96
865.104	60.13
865.272	72.04
865.44	79.74
865.608	40.58
865.776	52.05
865.944	40.43
866.112	44.06
866.28	90.84
866.448	90.28
866.616	109.74
866.784	141.98
866.952	109.02
867.12	130.14
867.288	210.68
867.455	297.56
867.623	252.25
867.791	140.69
867.959	122.87
868.127	77.07
868.294	63.1
868.462	44.83
868.63	52.52
868.797	46.1
868.965	45.35
869.133	39.17
869.3	33.27
869.468	23.06
869.636	19.16
869.803	31.66
869.971	40.35
870.138	44.55
870.306	55.29
870.473	59.59
870.641	86.4
870.808	101.62
870.975	128.93
871.143	114.48
871.31	170.06
871.478	201.94
871.645	188.67
871.812	99.21
871.98	102.59
872.147	119.38
872.314	104.72
872.482	76.75
872.649	73.09
872.816	67.42
872.983	79.14
873.15	79.94
873.318	76.73
873.485	83.2
873.652	83.95
873.819	91.39
873.986	77.97
874.153	73.48
874.32	85.19
874.487	69.37
874.654	66.91
874.821	63.22
874.988	56.08
875.155	50.43
875.322	47.44
875.489	55.45
875.656	45.52
875.823	45.78
875.99	51.79
876.157	56.27
876.324	60.72
876.49	63.74
876.657	62.18
876.824	71.41
876.991	78.96
877.157	70.87
877.324	72.13
877.491	77.15
877.658	97.31
877.824	78.95
877.991	95.18
878.157	106.12
878.324	98.16
878.491	103.65
878.657	100.13
878.824	98.34
878.99	121.5
879.157	130.68
879.323	135.43
879.49	114.72
879.656	136.66
879.823	120.88
879.989	112.94
880.156	107.38
880.322	104.46
880.488	91.47
880.655	87.76
880.821	75.52
880.987	62.1
881.154	55.52
881.32	54.42
881.486	53.72
881.652	48.49
881.819	44.27
881.985	43.01
882.151	39.29
882.317	43.5
882.483	39.97
882.649	40.88
882.816	40.83
882.982	36.09
883.148	32.88
883.314	30.62
883.48	32.73
883.646	34.35
883.812	36.97
883.978	35.07
884.144	31.97
884.31	33.07
884.476	31.93
884.642	30.78
884.807	29.42
884.973	28.24
885.139	29.18
885.305	25.8
885.471	23.78
885.637	21.09
885.802	22.02
885.968	28.14
886.134	26.45
886.3	28.06
886.465	30.57
886.631	32.3
886.797	39.22
886.962	38.53
887.128	46.75
887.293	52.73
887.459	50.35
887.625	48.69
887.79	43.25
887.956	52.69
888.121	50.14
888.287	49.17
888.452	61.69
888.618	60.97
888.783	64.18
