Data from 2937820_Reflection_1.txt Node
Date: Wed Jul 15 17:21:06 EDT 2015
User: robert
Spectrometer: USB4E03001
Autoset integration time: false
Trigger mode: 4
Integration Time (sec): 1.000000E-1
Scans to average: 10
Electric dark correction enabled: true
Nonlinearity correction enabled: false
Boxcar width: 5
Stray light correction enabled: false
XAxis mode: Wavelengths
Stop averaging: false
Number of Pixels in Spectrum: 3648
>>>>>Begin Spectral Data<<<<<
177.566	10.4
177.785	-12.07
178.005	-85.53
178.225	-172.56
178.445	-1169.57
178.665	87
178.885	146.63
179.105	-111.22
179.324	-173.92
179.544	-25
179.764	58.8
179.984	78.64
180.204	81.8
180.423	296.12
180.643	156.86
180.863	155.14
181.083	860.08
181.302	335.32
181.522	368.99
181.742	386.25
181.961	321.57
182.181	679.93
182.401	397.46
182.621	260.99
182.84	136.92
183.06	136.63
183.279	161.18
183.499	165.93
183.719	208.97
183.938	416.57
184.158	155.61
184.377	194.88
184.597	103.34
184.816	118.22
185.036	-151.94
185.256	22.84
185.475	77.85
185.695	78.14
185.914	70.85
186.134	97.28
186.353	136.49
186.572	53.81
186.792	32.61
187.011	-18.84
187.231	-35.8
187.45	-798.19
187.67	1914.68
187.889	212.48
188.108	218.2
188.328	152.77
188.547	112.07
188.766	98.47
188.986	92.59
189.205	68.35
189.424	37.2
189.644	25.53
189.863	-28.81
190.082	-175.57
190.302	3932.88
190.521	-254.67
190.74	-133.55
190.959	-114.65
191.178	194.23
191.398	339.43
191.617	111.62
191.836	117.06
192.055	117.89
192.274	-507.02
192.494	6.07
192.713	54.69
192.932	18.6
193.151	39.61
193.37	42.87
193.589	-164.29
193.808	417.21
194.027	-102.06
194.246	-58.95
194.465	300
194.685	225.33
194.904	957.36
195.123	-480
195.342	-681.69
195.561	384.08
195.78	10.14
195.999	86.36
196.218	-187.5
196.436	3845.45
196.655	2994.79
196.874	73.07
197.093	169.13
197.312	226.37
197.531	125.21
197.75	59.37
197.969	97.3
198.188	205.36
198.407	245.51
198.625	234.65
198.844	178.59
199.063	169.41
199.282	344.18
199.501	283.26
199.719	199.75
199.938	474.39
200.157	265.99
200.376	960.62
200.594	144.05
200.813	197.51
201.032	283.89
201.251	2593.68
201.469	-133.62
201.688	1535.4
201.907	-347.09
202.125	-42
202.344	-22.57
202.563	18.22
202.781	46.21
203	12.75
203.218	-15.84
203.437	18.52
203.656	7.3
203.874	-0.7
204.093	-9.39
204.311	-32.86
204.53	-66.16
204.748	-46.17
204.967	-290.82
205.185	462.5
205.404	-528.4
205.622	-163.96
205.841	-175.75
206.059	-6239.39
206.278	716.74
206.496	585.61
206.715	-1171.34
206.933	-13964.38
207.151	1065.54
207.37	-2852.15
207.588	-626.15
207.806	-1644.3
208.025	-3348.27
208.243	570.11
208.461	1013.32
208.68	1335.19
208.898	-440.94
209.116	-993.6
209.335	-259.2
209.553	-49.88
209.771	-86.71
209.989	-105.46
210.208	40.47
210.426	-89.03
210.644	1243.84
210.862	549.9
211.081	8.36
211.299	-206.43
211.517	187.53
211.735	671.04
211.953	200.98
212.171	-29.85
212.39	-27.14
212.608	-22.52
212.826	-67.26
213.044	129.21
213.262	219.9
213.48	42.95
213.698	38.57
213.916	-27.66
214.134	20.14
214.352	84.2
214.57	75.44
214.788	91.69
215.006	165.83
215.224	156.65
215.442	144.08
215.66	135.06
215.878	165.21
216.096	111.81
216.314	133.66
216.532	119.07
216.75	121.33
216.968	106.48
217.185	89.65
217.403	87.09
217.621	146.01
217.839	321.08
218.057	322.03
218.275	-1209.02
218.492	-130.29
218.71	-145.44
218.928	-159.17
219.146	842.25
219.363	180.57
219.581	66.59
219.799	21.43
220.017	-31.57
220.234	-50.67
220.452	-3.18
220.67	27.3
220.887	69.87
221.105	93.56
221.323	242.94
221.54	480.79
221.758	82.92
221.976	113.66
222.193	17.37
222.411	-37.34
222.629	-476.88
222.846	201.58
223.064	-31.56
223.281	-43.46
223.499	21.36
223.716	28.06
223.934	76.2
224.151	93.25
224.369	108.52
224.586	93.45
224.804	87.75
225.021	68.54
225.239	70.72
225.456	58.71
225.674	50.97
225.891	62.75
226.108	47.48
226.326	36.77
226.543	53.38
226.76	37.7
226.978	33.24
227.195	32.63
227.413	40.7
227.63	35.58
227.847	34.01
228.064	36.48
228.282	29.1
228.499	26.56
228.716	27.83
228.934	21.14
229.151	23.2
229.368	21.2
229.585	22.68
229.802	24.99
230.02	24.19
230.237	27.32
230.454	23.28
230.671	26.67
230.888	31.45
231.105	32.51
231.323	33.4
231.54	35.37
231.757	42.07
231.974	38.19
232.191	31.81
232.408	37.66
232.625	38.36
232.842	42.19
233.059	37.33
233.276	37.48
233.493	29.33
233.71	24.06
233.927	17.27
234.144	15.46
234.361	22.82
234.578	27.24
234.795	23.97
235.012	17.47
235.229	16.76
235.446	21.95
235.663	18.73
235.879	25.72
236.096	32.66
236.313	39.93
236.53	32.8
236.747	34.77
236.964	30.17
237.181	27.67
237.397	26.03
237.614	34.21
237.831	27.02
238.048	30.85
238.264	26.95
238.481	24.95
238.698	20.22
238.915	23.61
239.131	22.01
239.348	23.07
239.565	25.4
239.781	32.06
239.998	24.5
240.215	28.09
240.431	22.85
240.648	23.2
240.865	25.77
241.081	23.85
241.298	21.22
241.514	23.23
241.731	21.78
241.947	22.21
242.164	21.33
242.38	20.89
242.597	21.7
242.814	22.11
243.03	23.04
243.246	22.12
243.463	22.68
243.679	23.69
243.896	24.05
244.112	24.83
244.329	20.92
244.545	20.16
244.762	21.29
244.978	20.03
245.194	21.3
245.411	18.59
245.627	16.64
245.843	17.5
246.06	16.92
246.276	15.51
246.492	16.78
246.709	18.59
246.925	18.41
247.141	18.96
247.357	19.07
247.574	18.55
247.79	18.48
248.006	18.05
248.222	18.18
248.439	18.39
248.655	17.66
248.871	16.75
249.087	15.46
249.303	13.94
249.519	13.13
249.736	13.1
249.952	12.1
250.168	12.57
250.384	11.78
250.6	9.33
250.816	6.73
251.032	9.26
251.248	7.42
251.464	10.9
251.68	14.59
251.896	14.3
252.112	11.75
252.328	11.95
252.544	11.14
252.76	13.05
252.976	16.22
253.192	17.04
253.408	17.2
253.624	21.97
253.84	19.34
254.056	16.74
254.272	15.04
254.487	19.31
254.703	19.73
254.919	24.35
255.135	26.19
255.351	22.81
255.567	24.86
255.782	23.75
255.998	21.19
256.214	22.92
256.43	21.26
256.646	20.67
256.861	15.57
257.077	16.74
257.293	10.95
257.508	12.5
257.724	10.75
257.94	10.84
258.155	10.66
258.371	9.68
258.587	9.24
258.802	10.37
259.018	11.66
259.234	12.1
259.449	11.85
259.665	12.31
259.88	10.77
260.096	11.91
260.312	11.74
260.527	11.58
260.743	11.73
260.958	10.91
261.174	10.38
261.389	10.4
261.605	10.73
261.82	9.78
262.036	10.5
262.251	10.3
262.466	9.07
262.682	7.91
262.897	8.42
263.113	8.57
263.328	10.62
263.543	12.08
263.759	11.13
263.974	10.93
264.189	11.78
264.405	11.9
264.62	12.56
264.835	11.95
265.051	9.4
265.266	7.7
265.481	7.38
265.696	6.31
265.912	5.82
266.127	6.21
266.342	4.46
266.557	4.5
266.773	4.56
266.988	3.42
267.203	1.73
267.418	5.43
267.633	5.15
267.848	5.79
268.064	6.97
268.279	7.28
268.494	5.54
268.709	6.76
268.924	6.18
269.139	6.79
269.354	8.12
269.569	11.82
269.784	8.97
269.999	10.77
270.214	9.37
270.429	10.11
270.644	10.42
270.859	11.24
271.074	12.23
271.289	14.1
271.504	13.53
271.719	13.86
271.934	11.69
272.149	12.65
272.363	11.65
272.578	11.95
272.793	11.49
273.008	10.82
273.223	11.45
273.438	12
273.653	11.38
273.867	10.24
274.082	10.26
274.297	10.95
274.512	11.98
274.726	13.1
274.941	13.73
275.156	13.84
275.371	13.59
275.585	14.22
275.8	13.21
276.015	11.8
276.229	13.66
276.444	13.63
276.659	14.94
276.873	11.86
277.088	9.37
277.302	9.13
277.517	8.63
277.732	8.29
277.946	4.18
278.161	4.58
278.375	5.9
278.59	4.7
278.804	2.99
279.019	0.92
279.233	2.77
279.448	4.23
279.662	3.82
279.877	2.72
280.091	4.18
280.306	7.61
280.52	8.12
280.735	8.97
280.949	10.85
281.163	10.59
281.378	12.85
281.592	12.04
281.806	11.9
282.021	12.8
282.235	13.85
282.449	14.32
282.664	13.91
282.878	13.34
283.092	12.67
283.307	11.03
283.521	12.74
283.735	11.6
283.949	12.41
284.164	11.81
284.378	11.33
284.592	11.14
284.806	11.01
285.02	12.06
285.234	11.69
285.449	11.66
285.663	12.15
285.877	12.47
286.091	12.71
286.305	14.24
286.519	14.82
286.733	14.24
286.947	13.51
287.161	12.68
287.375	11.27
287.589	10.4
287.803	10.81
288.017	10.6
288.231	9.62
288.445	9.4
288.659	9.36
288.873	8.03
289.087	7.61
289.301	9.32
289.515	9.85
289.729	10.24
289.943	11.65
290.157	12.23
290.371	12.62
290.584	13.57
290.798	13.31
291.012	11.9
291.226	12.45
291.44	14.33
291.654	12.7
291.867	12.65
292.081	13.06
292.295	13.04
292.509	12.06
292.722	11.76
292.936	9.81
293.15	11.18
293.364	11.2
293.577	12.36
293.791	12.88
294.005	13.15
294.218	13.29
294.432	11.78
294.645	12.24
294.859	11.57
295.073	10.94
295.286	13.25
295.5	13.62
295.713	13.88
295.927	14.03
296.14	11.91
296.354	12.96
296.568	13.73
296.781	15.37
296.994	14.66
297.208	15.63
297.421	16.28
297.635	15.12
297.848	14.86
298.062	14.97
298.275	15.33
298.489	16.19
298.702	16.56
298.915	15.51
299.129	16.19
299.342	16.76
299.555	16.04
299.769	15.28
299.982	15.94
300.195	15.17
300.409	14.85
300.622	14.44
300.835	14.86
301.048	14.14
301.262	14.44
301.475	13.59
301.688	12.21
301.901	13.04
302.115	14.84
302.328	14.08
302.541	13.85
302.754	15.11
302.967	14.5
303.18	14.73
303.393	14.22
303.607	15.28
303.82	14.67
304.033	15.8
304.246	15.97
304.459	15.23
304.672	16.34
304.885	16.86
305.098	16.44
305.311	16.86
305.524	16.25
305.737	17.68
305.95	16.92
306.163	16.81
306.376	15.15
306.589	12.77
306.802	11.96
307.015	11.01
307.228	10.03
307.44	8.34
307.653	8.34
307.866	9.13
308.079	7.87
308.292	9.61
308.505	12.74
308.718	14.28
308.93	15.52
309.143	15.63
309.356	16.47
309.569	16.04
309.781	15.58
309.994	15.31
310.207	15.06
310.42	14.75
310.632	12.97
310.845	10.69
311.058	10.7
311.27	10.7
311.483	11.73
311.696	10.39
311.908	10.62
312.121	10.92
312.333	10.39
312.546	9.61
312.759	8.42
312.971	6.93
313.184	7.42
313.396	6.62
313.609	4.63
313.821	3.43
314.034	3.03
314.246	3.35
314.459	2.26
314.671	3.88
314.884	2.96
315.096	5.07
315.309	7.56
315.521	8.08
315.733	8.45
315.946	10.27
316.158	12.39
316.371	14.06
316.583	15.22
316.795	15.44
317.008	13.6
317.22	13.95
317.432	13.86
317.644	12.52
317.857	11.68
318.069	11.61
318.281	12.44
318.494	9.76
318.706	9.13
318.918	9.08
319.13	10.42
319.342	10.92
319.555	13.97
319.767	13.51
319.979	14.17
320.191	10.88
320.403	10.76
320.615	10.87
320.827	9.72
321.039	7.92
321.252	8.8
321.464	8.66
321.676	8.9
321.888	4.88
322.1	5.11
322.312	6.71
322.524	10.23
322.736	10.27
322.948	9.31
323.16	11.83
323.372	13.66
323.584	12.44
323.796	12.01
324.007	13.14
324.219	14.05
324.431	14.3
324.643	13.84
324.855	11.96
325.067	12.08
325.279	13.2
325.491	12.26
325.702	12.01
325.914	12.08
326.126	11.93
326.338	10.65
326.55	11.71
326.761	11.36
326.973	11.94
327.185	13.57
327.396	15.07
327.608	14.15
327.82	12.6
328.032	13.99
328.243	14.01
328.455	14.06
328.666	14.97
328.878	16.09
329.09	15.85
329.301	15.48
329.513	14.32
329.725	12.06
329.936	13.72
330.148	14.78
330.359	12.66
330.571	12.04
330.782	12.86
330.994	12.74
331.205	9.67
331.417	10.5
331.628	10.47
331.84	11.88
332.051	11.66
332.262	11.27
332.474	12.76
332.685	15.12
332.897	16.28
333.108	16.43
333.319	16.84
333.531	17.9
333.742	17.56
333.953	17.89
334.165	18.3
334.376	20.04
334.587	19.48
334.799	20.26
335.01	18.46
335.221	16.93
335.432	16.48
335.644	15.52
335.855	14.47
336.066	13.24
336.277	13.48
336.488	14.2
336.7	14.16
336.911	14.3
337.122	13.97
337.333	15.11
337.544	15.61
337.755	15.73
337.966	15.23
338.177	15.29
338.388	15.69
338.599	15.86
338.811	14.11
339.022	13.91
339.233	13.04
339.444	12.97
339.655	11.62
339.866	12.07
340.076	11.62
340.287	13.35
340.498	14.76
340.709	16.26
340.92	15.35
341.131	16.21
341.342	16.18
341.553	17.25
341.764	15.34
341.975	15.02
342.185	14.26
342.396	14.88
342.607	13.36
342.818	12.42
343.029	11.24
343.239	10.71
343.45	10.21
343.661	10.15
343.872	9.74
344.082	10.7
344.293	10.95
344.504	11.58
344.714	10.74
344.925	11.42
345.136	12.71
345.346	13.48
345.557	13.42
345.768	13.56
345.978	13.51
346.189	13.5
346.399	12.82
346.61	12.84
346.821	12.89
347.031	13.33
347.242	12.67
347.452	12.23
347.663	11.95
347.873	12.79
348.084	12.61
348.294	13.58
348.504	12.55
348.715	13.2
348.925	12.92
349.136	12.88
349.346	13.25
349.557	13.99
349.767	13.34
349.977	13.47
350.188	12.47
350.398	13.57
350.608	11.79
350.819	12.82
351.029	13.27
351.239	13.91
351.449	14.2
351.66	13.31
351.87	12.44
352.08	10.93
352.29	9.83
352.501	11.02
352.711	10.04
352.921	12.09
353.131	10.75
353.341	9.96
353.552	9.38
353.762	9.25
353.972	10.36
354.182	11
354.392	13.1
354.602	14.1
354.812	13.67
355.022	13.64
355.232	11.02
355.442	11.5
355.652	10.92
355.862	11.16
356.072	9.72
356.282	9.97
356.492	9.28
356.702	8.65
356.912	8.11
357.122	7.52
357.332	7.76
357.542	10.09
357.752	9.8
357.962	10.78
358.171	10.57
358.381	11.46
358.591	11.83
358.801	12.82
359.011	13.51
359.221	13.47
359.43	13.5
359.64	13.46
359.85	12.17
360.06	13.31
360.269	12.85
360.479	12.99
360.689	13.01
360.899	12.58
361.108	11.89
361.318	11.07
361.528	11.53
361.737	12.04
361.947	11.42
362.156	11.38
362.366	11.1
362.576	11.15
362.785	11.5
362.995	11.73
363.204	10.97
363.414	11.38
363.623	11.53
363.833	11.25
364.042	11.54
364.252	12.19
364.461	11.94
364.671	11.92
364.88	11.74
365.09	11.15
365.299	10.89
365.509	11.38
365.718	10.91
365.927	10.56
366.137	10.55
366.346	10.09
366.555	9.37
366.765	9.94
366.974	10.25
367.183	10.77
367.393	10.72
367.602	10.59
367.811	10.63
368.021	10.82
368.23	10.94
368.439	10.38
368.648	9.71
368.857	9.72
369.067	9.15
369.276	7.72
369.485	7.1
369.694	6.91
369.903	7.48
370.112	7.18
370.321	6.84
370.531	6.7
370.74	6.99
370.949	7.24
371.158	7.76
371.367	8.12
371.576	8.71
371.785	9.11
371.994	9.35
372.203	9.31
372.412	9.11
372.621	9.49
372.83	9.96
373.039	9.99
373.248	9.54
373.457	10.35
373.666	10.16
373.874	10.76
374.083	10.64
374.292	10.7
374.501	10.06
374.71	10.57
374.919	10.32
375.128	10.62
375.336	10.65
375.545	10.9
375.754	9.81
375.963	9.82
376.171	9.73
376.38	10.16
376.589	10.41
376.798	10.33
377.006	10.22
377.215	10.11
377.424	9.58
377.632	9.22
377.841	9.09
378.05	9.05
378.258	8.54
378.467	7.89
378.675	7.77
378.884	7.91
379.093	8.23
379.301	8.27
379.51	8.5
379.718	8.45
379.927	8.9
380.135	9.41
380.344	9.23
380.552	10.06
380.761	10.29
380.969	9.78
381.177	9.31
381.386	8.66
381.594	8.32
381.803	8.43
382.011	8.67
382.219	7.75
382.428	7.26
382.636	7.39
382.845	6.67
383.053	6.39
383.261	6.58
383.469	6.74
383.678	7.03
383.886	7.32
384.094	6.74
384.302	6.08
384.511	6.41
384.719	6.38
384.927	6.45
385.135	6.26
385.343	6.27
385.552	6.31
385.76	6.16
385.968	6.01
386.176	5.72
386.384	5.96
386.592	6.37
386.8	6.77
387.008	6.96
387.216	7.13
387.424	6.89
387.633	7.02
387.841	6.44
388.049	5.91
388.257	5.85
388.465	5.75
388.672	6.25
388.88	6.64
389.088	6.29
389.296	6.11
389.504	5.84
389.712	6.12
389.92	6.17
390.128	6.68
390.336	7.09
390.544	6.86
390.751	7
390.959	6.68
391.167	6.21
391.375	5.83
391.583	5.57
391.79	5.73
391.998	5.83
392.206	5.42
392.414	5.01
392.621	4.77
392.829	4.94
393.037	5.13
393.244	4.91
393.452	5.16
393.66	5.58
393.867	5.62
394.075	5.47
394.283	5.54
394.49	5.67
394.698	5.78
394.905	5.71
395.113	5.93
395.32	5.53
395.528	5.74
395.735	5.57
395.943	5.63
396.15	5.72
396.358	5.67
396.565	5.55
396.773	5.59
396.98	5.31
397.188	5.42
397.395	5.41
397.602	5.77
397.81	5.95
398.017	6.02
398.225	5.75
398.432	6.04
398.639	6.06
398.847	6.39
399.054	6.66
399.261	6.68
399.468	6.62
399.676	6.24
399.883	5.93
400.09	5.51
400.297	5.56
400.505	5.54
400.712	5.36
400.919	5.09
401.126	4.69
401.333	4.55
401.54	4.84
401.748	4.94
401.955	4.89
402.162	4.67
402.369	4.66
402.576	4.48
402.783	4.86
402.99	4.92
403.197	4.99
403.404	5.04
403.611	4.84
403.818	4.87
404.025	4.91
404.232	5.17
404.439	5.44
404.646	5.53
404.853	5.44
405.06	5.49
405.267	5.53
405.474	5.38
405.681	5.48
405.887	5.53
406.094	5.39
406.301	5.15
406.508	5.09
406.715	5.39
406.922	5.41
407.128	5.33
407.335	4.98
407.542	4.84
407.749	5.6
407.955	5.84
408.162	5.84
408.369	6.01
408.575	6.34
408.782	6.45
408.989	6.08
409.195	6.2
409.402	6.34
409.609	6.48
409.815	6.38
410.022	5.85
410.228	5.87
410.435	5.74
410.642	5.54
410.848	5.67
411.055	5.59
411.261	5.72
411.468	5.34
411.674	5.23
411.881	5.1
412.087	5.1
412.294	4.96
412.5	4.4
412.706	4.58
412.913	4.57
413.119	4.28
413.326	4.57
413.532	4.52
413.738	5.04
413.945	5.19
414.151	4.82
414.357	4.8
414.564	4.77
414.77	5.19
414.976	5.03
415.182	5.06
415.389	5.1
415.595	4.79
415.801	4.73
416.007	4.26
416.214	3.98
416.42	4.36
416.626	4.64
416.832	4.86
417.038	4.66
417.244	4.74
417.45	4.75
417.657	4.79
417.863	4.91
418.069	4.78
418.275	4.93
418.481	5.16
418.687	4.95
418.893	4.67
419.099	4.56
419.305	4.54
419.511	4.52
419.717	4.56
419.923	4.45
420.129	4.46
420.335	4.54
420.541	4.44
420.746	4.34
420.952	4.41
421.158	4.53
421.364	4.65
421.57	4.61
421.776	4.66
421.982	4.63
422.187	4.8
422.393	4.67
422.599	4.71
422.805	4.86
423.01	4.81
423.216	4.8
423.422	4.72
423.628	4.57
423.833	4.57
424.039	4.33
424.245	4.25
424.45	4.11
424.656	4.15
424.862	4.08
425.067	3.91
425.273	3.96
425.478	3.92
425.684	3.92
425.889	4.01
426.095	3.99
426.301	4.19
426.506	4.41
426.712	4.39
426.917	4.3
427.123	4.25
427.328	4.31
427.533	4.28
427.739	4.23
427.944	4.35
428.15	4.29
428.355	4.28
428.561	4.27
428.766	3.92
428.971	3.93
429.177	3.86
429.382	3.8
429.587	3.88
429.793	4.12
429.998	4.28
430.203	4.22
430.408	4.11
430.614	4.24
430.819	4.21
431.024	4.46
431.229	4.59
431.434	4.62
431.64	4.71
431.845	4.66
432.05	4.59
432.255	4.83
432.46	4.63
432.665	4.55
432.87	4.45
433.076	4.57
433.281	4.62
433.486	4.66
433.691	4.78
433.896	4.57
434.101	4.65
434.306	4.44
434.511	4.11
434.716	4.31
434.921	4.4
435.126	4.54
435.331	4.45
435.535	4.31
435.74	4.18
435.945	4.12
436.15	4.09
436.355	4.05
436.56	4.04
436.765	4.21
436.97	4.08
437.174	4.31
437.379	4.2
437.584	4.07
437.789	4.1
437.993	4.14
438.198	4.06
438.403	4.18
438.608	4.02
438.812	4.21
439.017	4
439.222	4.11
439.426	4
439.631	3.87
439.836	4.07
440.04	4.09
440.245	4.05
440.45	4.21
440.654	4.33
440.859	4.44
441.063	4.43
441.268	4.5
441.472	4.49
441.677	4.53
441.881	4.63
442.086	4.42
442.29	4.44
442.495	4.42
442.699	4.31
442.904	4.04
443.108	3.95
443.312	3.78
443.517	3.89
443.721	3.65
443.925	3.47
444.13	3.53
444.334	3.76
444.538	3.68
444.743	3.69
444.947	3.62
445.151	3.73
445.356	3.67
445.56	3.6
445.764	3.58
445.968	3.66
446.173	3.63
446.377	3.47
446.581	3.51
446.785	3.43
446.989	3.4
447.193	3.47
447.398	3.41
447.602	3.47
447.806	3.61
448.01	3.76
448.214	3.75
448.418	3.8
448.622	3.99
448.826	3.75
449.03	3.9
449.234	3.89
449.438	3.82
449.642	3.81
449.846	3.96
450.05	3.86
450.254	3.62
450.458	3.7
450.662	3.81
450.866	3.56
451.069	3.6
451.273	3.36
451.477	3.47
451.681	3.47
451.885	3.44
452.089	3.31
452.292	3.31
452.496	3.27
452.7	3.21
452.904	2.99
453.107	3.24
453.311	3.42
453.515	3.31
453.719	3.22
453.922	3.26
454.126	3.41
454.33	3.49
454.533	3.58
454.737	3.43
454.94	3.47
455.144	3.64
455.348	3.48
455.551	3.44
455.755	3.59
455.958	3.51
456.162	3.53
456.365	3.57
456.569	3.27
456.772	3.34
456.976	3.45
457.179	3.37
457.383	3.21
457.586	3.4
457.79	3.42
457.993	3.47
458.196	3.43
458.4	3.44
458.603	3.52
458.807	3.77
459.01	3.76
459.213	3.75
459.417	3.78
459.62	3.86
459.823	3.7
460.026	3.69
460.23	3.73
460.433	3.84
460.636	3.91
460.839	3.89
461.042	3.84
461.246	3.84
461.449	3.95
461.652	3.96
461.855	4.1
462.058	4.18
462.261	4.21
462.464	4.32
462.668	4.53
462.871	4.49
463.074	4.6
463.277	4.47
463.48	4.37
463.683	4.31
463.886	4.31
464.089	4.14
464.292	4.23
464.495	4.05
464.698	4.08
464.901	3.84
465.104	3.79
465.306	3.46
465.509	3.49
465.712	3.62
465.915	3.58
466.118	3.62
466.321	3.63
466.524	3.48
466.726	3.48
466.929	3.44
467.132	3.43
467.335	3.49
467.538	3.69
467.74	3.92
467.943	3.9
468.146	3.94
468.348	3.88
468.551	3.92
468.754	4.03
468.956	4.21
469.159	4.1
469.362	4.01
469.564	4.03
469.767	4.04
469.969	3.94
470.172	3.89
470.375	3.82
470.577	3.84
470.78	3.84
470.982	3.95
471.185	3.99
471.387	4.01
471.59	4.03
471.792	3.88
471.995	4.01
472.197	3.84
472.399	3.74
472.602	3.91
472.804	3.84
473.007	3.87
473.209	3.66
473.411	3.57
473.614	3.37
473.816	3.38
474.018	3.58
474.22	3.43
474.423	3.36
474.625	3.45
474.827	3.28
475.03	3.29
475.232	3.27
475.434	3.21
475.636	3.28
475.838	3.33
476.04	3.43
476.243	3.16
476.445	3
476.647	3.06
476.849	3
477.051	3.07
477.253	3.35
477.455	3.34
477.657	3.52
477.859	3.4
478.061	3.59
478.263	3.5
478.465	3.64
478.667	3.63
478.869	3.89
479.071	3.95
479.273	4
479.475	3.86
479.677	3.81
479.879	3.68
480.081	3.86
480.283	3.71
480.485	3.86
480.686	3.82
480.888	3.96
481.09	3.77
481.292	3.74
481.494	3.61
481.695	3.62
481.897	3.61
482.099	3.67
482.301	3.49
482.502	3.52
482.704	3.45
482.906	3.47
483.107	3.48
483.309	3.43
483.511	3.49
483.712	3.53
483.914	3.45
484.115	3.45
484.317	3.47
484.519	3.49
484.72	3.56
484.922	3.55
485.123	3.53
485.325	3.48
485.526	3.57
485.728	3.53
485.929	3.53
486.131	3.58
486.332	3.57
486.534	3.54
486.735	3.5
486.936	3.49
487.138	3.47
487.339	3.45
487.541	3.47
487.742	3.42
487.943	3.44
488.144	3.43
488.346	3.43
488.547	3.45
488.748	3.47
488.95	3.49
489.151	3.43
489.352	3.53
489.553	3.58
489.755	3.55
489.956	3.6
490.157	3.58
490.358	3.62
490.559	3.65
490.76	3.67
490.961	3.69
491.163	3.76
491.364	3.68
491.565	3.63
491.766	3.63
491.967	3.69
492.168	3.7
492.369	3.7
492.57	3.73
492.771	3.79
492.972	3.72
493.173	3.78
493.374	3.84
493.575	3.9
493.776	3.97
493.976	4.11
494.177	4.15
494.378	4.13
494.579	4.14
494.78	4.1
494.981	3.94
495.182	4.04
495.382	3.94
495.583	3.78
495.784	3.84
495.985	3.79
496.185	3.77
496.386	3.75
496.587	3.74
496.788	3.79
496.988	3.76
497.189	3.8
497.39	3.8
497.59	3.82
497.791	3.82
497.992	3.88
498.192	3.87
498.393	3.82
498.593	3.83
498.794	3.87
498.994	3.86
499.195	3.94
499.395	4.05
499.596	4.19
499.796	4.15
499.997	4.25
500.197	4.23
500.398	4.1
500.598	4.13
500.799	4.09
500.999	4.12
501.199	4.36
501.4	4.24
501.6	4.23
501.801	4.05
502.001	4.13
502.201	4.08
502.402	4.03
502.602	4.25
502.802	4.2
503.002	4.44
503.203	4.37
503.403	4.26
503.603	4.28
503.803	4.29
504.003	4.47
504.204	4.47
504.404	4.22
504.604	4.15
504.804	4.07
505.004	4.06
505.204	3.92
505.404	4.04
505.604	4.02
505.804	4.06
506.005	4.21
506.205	4.24
506.405	4.19
506.605	4.33
506.805	4.36
507.005	4.21
507.204	4.26
507.404	4.2
507.604	4.31
507.804	4.34
508.004	4.26
508.204	4.04
508.404	3.95
508.604	3.91
508.804	4.04
509.003	4.23
509.203	4.42
509.403	4.46
509.603	4.53
509.803	4.32
510.002	4.34
510.202	4.45
510.402	4.52
510.602	4.53
510.801	4.75
511.001	4.72
511.201	4.61
511.4	4.62
511.6	4.63
511.8	4.53
511.999	4.7
512.199	4.6
512.398	4.67
512.598	4.84
512.797	4.94
512.997	4.79
513.197	4.73
513.396	4.75
513.596	4.85
513.795	4.86
513.994	5.02
514.194	4.9
514.393	4.97
514.593	4.95
514.792	4.8
514.992	4.73
515.191	4.7
515.39	4.77
515.59	4.94
515.789	4.95
515.988	5.07
516.188	5.12
516.387	5.09
516.586	5.16
516.786	5.14
516.985	5.25
517.184	5.21
517.383	5.28
517.582	5.35
517.782	5.28
517.981	5.35
518.18	5.29
518.379	5.26
518.578	5.34
518.777	5.31
518.976	5.2
519.176	5.16
519.375	5.2
519.574	5.16
519.773	5.25
519.972	5.38
520.171	5.39
520.37	5.37
520.569	5.28
520.768	5.3
520.967	5.32
521.166	5.59
521.365	5.74
521.564	5.75
521.762	5.86
521.961	5.85
522.16	5.78
522.359	5.65
522.558	5.79
522.757	6.09
522.956	6.22
523.154	6.32
523.353	6.29
523.552	6.15
523.751	6.32
523.949	6.26
524.148	6.18
524.347	6.14
524.546	6.24
524.744	6.11
524.943	6.07
525.142	6.06
525.34	6.05
525.539	5.99
525.737	6
525.936	6.01
526.135	6.07
526.333	6.18
526.532	6.21
526.73	6.25
526.929	6.35
527.127	6.31
527.326	6.35
527.524	6.39
527.723	6.42
527.921	6.43
528.12	6.43
528.318	6.44
528.516	6.44
528.715	6.44
528.913	6.42
529.112	6.44
529.31	6.47
529.508	6.51
529.707	6.52
529.905	6.61
530.103	6.69
530.301	6.73
530.5	6.77
530.698	6.94
530.896	6.97
531.094	7.07
531.293	7.17
531.491	7.25
531.689	7.23
531.887	7.34
532.085	7.33
532.283	7.3
532.481	7.31
532.68	7.32
532.878	7.19
533.076	7.38
533.274	7.42
533.472	7.4
533.67	7.44
533.868	7.51
534.066	7.52
534.264	7.57
534.462	7.64
534.66	7.72
534.858	7.83
535.056	7.96
535.253	7.88
535.451	7.9
535.649	8.03
535.847	8.1
536.045	8.09
536.243	8.2
536.441	8.19
536.638	8.25
536.836	8.2
537.034	8.24
537.232	8.23
537.43	8.33
537.627	8.31
537.825	8.32
538.023	8.29
538.22	8.39
538.418	8.4
538.616	8.46
538.813	8.57
539.011	8.65
539.209	8.72
539.406	8.73
539.604	8.78
539.801	8.82
539.999	8.75
540.196	8.82
540.394	8.88
540.591	8.92
540.789	8.96
540.986	8.99
541.184	9.09
541.381	9.14
541.579	9.21
541.776	9.19
541.974	9.26
542.171	9.36
542.368	9.43
542.566	9.48
542.763	9.61
542.96	9.66
543.158	9.66
543.355	9.65
543.552	9.66
543.75	9.66
543.947	9.75
544.144	9.82
544.341	9.85
544.539	9.82
544.736	9.97
544.933	9.9
545.13	9.99
545.327	10.17
545.524	10.3
545.722	10.49
545.919	10.54
546.116	10.63
546.313	10.54
546.51	10.66
546.707	10.7
546.904	10.72
547.101	10.71
547.298	10.76
547.495	10.73
547.692	10.73
547.889	10.65
548.086	10.83
548.283	11.02
548.48	11.34
548.677	11.4
548.874	11.44
549.07	11.4
549.267	11.59
549.464	11.59
549.661	11.69
549.858	11.84
550.055	12.07
550.251	11.97
550.448	11.82
550.645	11.81
550.842	11.96
551.038	12.13
551.235	12.27
551.432	12.17
551.628	12.28
551.825	12.31
552.022	12.34
552.218	12.22
552.415	12.55
552.612	12.7
552.808	12.73
553.005	12.68
553.201	12.65
553.398	12.68
553.594	12.69
553.791	12.76
553.987	12.94
554.184	13.02
554.38	13.17
554.577	13.04
554.773	13.06
554.97	13.18
555.166	13.26
555.362	13.33
555.559	13.37
555.755	13.71
555.952	13.69
556.148	13.77
556.344	13.72
556.541	13.82
556.737	14.01
556.933	14.08
557.129	14.12
557.326	14.18
557.522	14.42
557.718	14.34
557.914	14.06
558.11	14.29
558.307	14.46
558.503	14.77
558.699	14.73
558.895	14.89
559.091	15.01
559.287	15.12
559.483	15.2
559.679	15.41
559.876	15.48
560.072	15.69
560.268	15.84
560.464	15.73
560.66	15.98
560.856	16.24
561.052	16.03
561.247	16.09
561.443	16.02
561.639	16.06
561.835	16.03
562.031	16.44
562.227	16.65
562.423	16.58
562.619	16.83
562.815	16.5
563.01	16.66
563.206	17.08
563.402	17.03
563.598	17.38
563.793	17.32
563.989	17.15
564.185	17.18
564.381	17.35
564.576	17.42
564.772	17.36
564.968	17.68
565.163	17.53
565.359	17.45
565.555	17.82
565.75	17.63
565.946	17.66
566.141	18.02
566.337	17.98
566.532	17.94
566.728	18.05
566.923	17.98
567.119	17.8
567.314	17.98
567.51	17.98
567.705	17.92
567.901	17.98
568.096	18.29
568.292	18.15
568.487	17.99
568.682	17.93
568.878	17.91
569.073	17.91
569.268	18.13
569.464	18
569.659	18.09
569.854	18.16
570.05	18.43
570.245	18.39
570.44	18.48
570.635	18.61
570.831	18.82
571.026	19.1
571.221	19.18
571.416	19.15
571.611	19.16
571.806	19.12
572.002	19.06
572.197	19.05
572.392	18.99
572.587	19.15
572.782	19.28
572.977	19.3
573.172	19.19
573.367	19.27
573.562	19.29
573.757	19.44
573.952	19.42
574.147	19.48
574.342	19.26
574.537	19.18
574.732	19.32
574.927	19.41
575.121	19.4
575.316	19.39
575.511	19.56
575.706	19.59
575.901	19.75
576.096	20
576.29	20.09
576.485	20.46
576.68	20.77
576.875	20.61
577.069	20.7
577.264	20.42
577.459	20.42
577.654	20.38
577.848	20.44
578.043	20.35
578.238	20.16
578.432	20.02
578.627	19.7
578.821	19.59
579.016	19.72
579.21	19.74
579.405	20.21
579.6	20.68
579.794	20.79
579.989	20.95
580.183	21.07
580.378	21.32
580.572	21.4
580.766	21.49
580.961	21.64
581.155	21.32
581.35	21.25
581.544	21.04
581.738	20.73
581.933	20.52
582.127	20.55
582.321	20.56
582.516	20.59
582.71	20.83
582.904	20.93
583.099	21.17
583.293	21.41
583.487	21.44
583.681	21.5
583.875	21.49
584.07	21.69
584.264	21.53
584.458	21.51
584.652	21.21
584.846	21.36
585.04	21.49
585.234	21.2
585.428	21.35
585.623	21.09
585.817	21.37
586.011	21.52
586.205	21.59
586.399	21.66
586.593	21.58
586.787	21.69
586.981	21.37
587.174	21.6
587.368	21.63
587.562	21.55
587.756	21.73
587.95	21.61
588.144	21.42
588.338	21.32
588.532	21.5
588.725	21.64
588.919	21.69
589.113	21.87
589.307	21.66
589.501	21.66
589.694	21.91
589.888	21.83
590.082	21.84
590.275	22.02
590.469	22.28
590.663	22.52
590.856	22.49
591.05	22.53
591.244	22.53
591.437	22.48
591.631	22.55
591.824	22.49
592.018	22.64
592.212	22.79
592.405	22.57
592.599	22.38
592.792	22.16
592.986	22.26
593.179	22.27
593.372	22.18
593.566	22.31
593.759	22.19
593.953	22.14
594.146	22.15
594.339	21.93
594.533	22.13
594.726	22.16
594.92	22.16
595.113	22.2
595.306	22.32
595.499	22.45
595.693	22.4
595.886	22.55
596.079	22.6
596.272	22.72
596.466	22.98
596.659	22.99
596.852	23.01
597.045	22.85
597.238	22.73
597.431	22.87
597.624	22.91
597.818	22.96
598.011	22.99
598.204	22.83
598.397	22.87
598.59	22.7
598.783	22.68
598.976	22.5
599.169	22.78
599.362	23.15
599.555	22.9
599.748	22.86
599.941	23.02
600.134	22.94
600.326	22.85
600.519	22.94
600.712	22.95
600.905	22.91
601.098	22.96
601.291	22.97
601.483	22.87
601.676	22.88
601.869	22.99
602.062	22.96
602.255	23.2
602.447	23.24
602.64	23.25
602.833	23.42
603.025	23.69
603.218	23.73
603.411	23.58
603.603	23.51
603.796	23.62
603.989	23.56
604.181	23.45
604.374	23.36
604.566	23.78
604.759	23.57
604.951	23.6
605.144	23.51
605.336	23.6
605.529	23.64
605.721	23.61
605.914	23.61
606.106	23.35
606.299	23.49
606.491	23.54
606.683	23.23
606.876	23.44
607.068	23.25
607.26	23.09
607.453	23.01
607.645	23.26
607.837	23.16
608.03	23.19
608.222	23.56
608.414	23.52
608.606	23.54
608.799	23.67
608.991	23.59
609.183	23.62
609.375	23.65
609.567	23.44
609.759	23.01
609.952	23.2
610.144	23.05
610.336	22.98
610.528	22.62
610.72	22.41
610.912	22.22
611.104	22.33
611.296	22.32
611.488	22.42
611.68	22.65
611.872	22.89
612.064	22.66
612.256	22.57
612.448	22.45
612.64	22.88
612.832	22.85
613.023	22.79
613.215	22.7
613.407	22.71
613.599	22.66
613.791	22.7
613.983	22.79
614.174	22.61
614.366	22.88
614.558	23.01
614.75	22.97
614.941	23.32
615.133	23.42
615.325	23.47
615.516	23.5
615.708	23.55
615.9	23.52
616.091	23.42
616.283	23.82
616.475	23.99
616.666	24.19
616.858	24.26
617.049	24.38
617.241	24.52
617.432	24.65
617.624	24.96
617.815	24.88
618.007	25.04
618.198	25.08
618.39	25.17
618.581	24.92
618.773	24.85
618.964	24.96
619.155	24.72
619.347	24.41
619.538	24.25
619.729	24.1
619.921	24.47
620.112	24.48
620.303	24.8
620.494	24.45
620.686	24.75
620.877	24.8
621.068	24.7
621.259	24.83
621.451	25.13
621.642	25.12
621.833	25.09
622.024	24.93
622.215	25
622.406	24.87
622.597	25.22
622.788	24.93
622.98	24.73
623.171	25.07
623.362	25.2
623.553	25.36
623.744	25.58
623.935	25.43
624.126	25.55
624.317	25.51
624.508	25.63
624.698	25.51
624.889	25.64
625.08	25.72
625.271	25.51
625.462	25.44
625.653	25.01
625.844	24.76
626.034	24.84
626.225	24.79
626.416	24.65
626.607	24.62
626.798	24.56
626.988	24.47
627.179	24.43
627.37	24.39
627.56	24.49
627.751	24.72
627.942	24.65
628.132	24.92
628.323	24.89
628.514	25.04
628.704	24.99
628.895	24.99
629.085	24.93
629.276	24.85
629.466	24.89
629.657	25
629.847	25.09
630.038	25.23
630.228	25.05
630.419	25.04
630.609	25.1
630.8	25.04
630.99	24.9
631.181	24.94
631.371	25.21
631.561	24.95
631.752	24.72
631.942	24.9
632.132	24.78
632.323	24.61
632.513	24.47
632.703	24.39
632.893	24.44
633.084	24.47
633.274	24.48
633.464	24.57
633.654	24.78
633.844	24.83
634.034	24.71
634.225	24.94
634.415	24.99
634.605	25.05
634.795	25.36
634.985	25.2
635.175	25.53
635.365	25.47
635.555	25.65
635.745	25.98
635.935	25.99
636.125	25.74
636.315	25.73
636.505	25.8
636.695	25.97
636.885	25.71
637.075	25.82
637.265	25.73
637.455	25.92
637.644	25.62
637.834	25.49
638.024	25.27
638.214	25.46
638.404	25.69
638.593	25.83
638.783	25.82
638.973	25.65
639.163	25.82
639.352	25.67
639.542	25.61
639.732	25.64
639.921	25.24
640.111	25.55
640.301	25.55
640.49	25.14
640.68	25.24
640.87	24.99
641.059	25.03
641.249	25.05
641.438	25.79
641.628	25.87
641.817	25.77
642.007	26.17
642.196	26.16
642.386	26.31
642.575	26.66
642.764	26.39
642.954	26.6
643.143	26.68
643.333	26.42
643.522	25.72
643.711	25.72
643.901	25.41
644.09	25.04
644.279	24.82
644.469	24.44
644.658	23.91
644.847	24.03
645.036	24.07
645.226	24.13
645.415	24.49
645.604	24.64
645.793	24.96
645.982	25.22
646.171	25.57
646.361	25.89
646.55	26
646.739	26.03
646.928	26.01
647.117	26.14
647.306	26.11
647.495	25.7
647.684	25.7
647.873	25.52
648.062	25.48
648.251	25.35
648.44	25.07
648.629	25.46
648.818	25.46
649.007	25.36
649.196	25.58
649.384	25.74
649.573	26.24
649.762	26.49
649.951	26.52
650.14	26.73
650.328	26.93
650.517	26.6
650.706	26.47
650.895	26.4
651.083	26.3
651.272	26.54
651.461	26.08
651.65	25.85
651.838	25.56
652.027	25.37
652.216	25.46
652.404	25.5
652.593	26.07
652.781	26.06
652.97	26.44
653.158	26.93
653.347	26.52
653.535	27.02
653.724	27.34
653.912	27.6
654.101	27.8
654.289	27.65
654.478	27
654.666	27.04
654.855	26.93
655.043	26.83
655.231	26.69
655.42	26.66
655.608	26.67
655.796	26.11
655.985	25.87
656.173	25.87
656.361	25.83
656.55	26.52
656.738	26.42
656.926	26.53
657.114	26.96
657.302	26.82
657.491	26.6
657.679	26.58
657.867	27.19
658.055	27
658.243	27.2
658.431	27.24
658.619	27.21
658.807	27.39
658.996	27.34
659.184	27.13
659.372	27.15
659.56	27.06
659.748	27.07
659.936	26.92
660.124	27.22
660.311	27.05
660.499	27.07
660.687	27.12
660.875	26.86
661.063	26.75
661.251	26.8
661.439	26.61
661.627	26.86
661.814	27.11
662.002	27.01
662.19	27.08
662.378	26.89
662.565	27.15
662.753	26.77
662.941	26.67
663.129	26.77
663.316	26.93
663.504	27.1
663.692	27.15
663.879	26.86
664.067	27.15
664.254	27.04
664.442	27.19
664.63	26.87
664.817	27.29
665.005	27.94
665.192	28.13
665.38	28.13
665.567	28.16
665.755	28.25
665.942	28.27
666.13	27.5
666.317	27.44
666.504	27.36
666.692	27.54
666.879	27.53
667.067	26.9
667.254	26.55
667.441	26.67
667.629	26.57
667.816	25.98
668.003	26.67
668.19	27.26
668.378	26.88
668.565	27.26
668.752	27.61
668.939	27.49
669.127	27.72
669.314	28.22
669.501	28.24
669.688	28.37
669.875	28.92
670.062	28.2
670.249	27.94
670.436	28.29
670.623	28.05
670.81	27.28
670.997	27.22
671.184	27.01
671.371	26.4
671.558	26.31
671.745	26.73
671.932	26.26
672.119	26.38
672.306	26.1
672.493	26.37
672.68	26.44
672.867	27.01
673.054	27.07
673.24	27.37
673.427	27.76
673.614	27.46
673.801	26.62
673.988	26.95
674.174	27.1
674.361	27.56
674.548	27.48
674.734	27.94
674.921	27.6
675.108	27.15
675.294	27.09
675.481	27.18
675.668	27.5
675.854	28.01
676.041	27.71
676.227	27.59
676.414	27.35
676.601	27.56
676.787	27.3
676.974	26.95
677.16	27.38
677.347	27.84
677.533	27.81
677.719	27.97
677.906	27.79
678.092	27.9
678.279	27.31
678.465	27.05
678.651	27.03
678.838	27.15
679.024	27.56
679.21	27.46
679.397	26.95
679.583	26.9
679.769	26.6
679.955	26.64
680.142	26.51
680.328	26.86
680.514	27.05
680.7	27.32
680.886	26.76
681.073	26.63
681.259	26.79
681.445	26.71
681.631	26.91
681.817	27.14
682.003	27.03
682.189	27.45
682.375	27.35
682.561	27.44
682.747	27.01
682.933	27.5
683.119	27.81
683.305	27.78
683.491	27.91
683.677	27.35
683.863	26.97
684.049	27.13
684.235	27.2
684.42	27.4
684.606	27.43
684.792	27.11
684.978	26.79
685.164	26.48
685.349	26.56
685.535	27.04
685.721	27.44
685.907	27.99
686.092	28.08
686.278	27.86
686.464	28.28
686.649	28.41
686.835	28.62
687.021	28.22
687.206	28.59
687.392	28.59
687.577	28.6
687.763	28.55
687.948	27.92
688.134	27.89
688.319	27.46
688.505	27.17
688.69	26.85
688.876	26.53
689.061	27.35
689.247	27.42
689.432	28.19
689.618	27.85
689.803	27.93
689.988	27.78
690.174	27.88
690.359	28.51
690.544	28.48
690.73	28.52
690.915	29.1
691.1	28.79
691.285	28.83
691.471	27.99
691.656	27.61
691.841	27.8
692.026	28.09
692.211	28.01
692.396	27.33
692.582	26.88
692.767	27.18
692.952	27.05
693.137	27.35
693.322	26.86
693.507	26.75
693.692	27.44
693.877	26.84
694.062	27.05
694.247	27.08
694.432	27.34
694.617	28.13
694.802	27.82
694.987	27.88
695.172	27.61
695.357	27.75
695.541	27.23
695.726	26.81
695.911	27.42
696.096	27.06
696.281	26.85
696.466	27.21
696.65	26.57
696.835	26.34
697.02	26.32
697.204	26.2
697.389	26.35
697.574	26.77
697.759	26.91
697.943	27
698.128	27.44
698.312	27.53
698.497	27.2
698.682	27.2
698.866	27.41
699.051	27.26
699.235	27.48
699.42	27.54
699.604	27.64
699.789	27.82
699.973	27.99
700.158	27.85
700.342	28.09
700.527	28.6
700.711	29.5
700.895	29.39
701.08	29.21
701.264	29.1
701.448	29.45
701.633	29.01
701.817	28.75
702.001	27.6
702.186	27.42
702.37	27.48
702.554	27.45
702.738	27.19
702.923	27.45
703.107	28.3
703.291	28.26
703.475	27.43
703.659	28.13
703.843	28.6
704.027	29.47
704.212	29.25
704.396	28.68
704.58	28.32
704.764	27.87
704.948	28.67
705.132	27.78
705.316	28.12
705.5	28.96
705.684	28.79
705.868	27.98
706.052	28.28
706.235	29.35
706.419	29.84
706.603	29.95
706.787	29.67
706.971	28.37
707.155	28.43
707.339	28.34
707.522	27.93
707.706	28.01
707.89	28.8
708.074	28.92
708.257	28.5
708.441	28.06
708.625	28.53
708.808	28.71
708.992	30.03
709.176	30.68
709.359	30.34
709.543	30.14
709.727	30.19
709.91	29.83
710.094	30.02
710.277	29.91
710.461	30.97
710.644	30.78
710.828	30.68
711.011	30.36
711.195	29.67
711.378	30.36
711.562	30.47
711.745	30.87
711.928	30.75
712.112	30.17
712.295	29.94
712.478	28.97
712.662	28.57
712.845	28.14
713.028	27.57
713.212	27.84
713.395	27.39
713.578	27.5
713.761	27.42
713.945	26.92
714.128	27.48
714.311	28.33
714.494	28.34
714.677	28.44
714.86	28.65
715.043	29.68
715.227	30.1
715.41	30.68
715.593	30.67
715.776	30.19
715.959	30.44
716.142	29.5
716.325	28.61
716.508	28.8
716.691	29.39
716.874	30.43
717.057	29.91
717.239	29.9
717.422	28.87
717.605	29.19
717.788	29.12
717.971	29.52
718.154	29.66
718.337	30.2
718.519	30.82
718.702	29.64
718.885	28.35
719.068	27.82
719.25	27.88
719.433	28.61
719.616	28.31
719.798	29.26
719.981	28.01
720.164	28.31
720.346	28.02
720.529	27.38
720.712	28.16
720.894	28.47
721.077	29.56
721.259	29.77
721.442	28.75
721.624	27.96
721.807	27.37
721.989	28.94
722.172	29.6
722.354	30.07
722.537	29.91
722.719	30
722.901	29.66
723.084	28.05
723.266	28.22
723.448	29.56
723.631	31.27
723.813	30.55
723.995	29.68
724.178	28.86
724.36	29.3
724.542	29.15
724.724	29.48
724.907	31.09
725.089	31.23
725.271	30.1
725.453	28.63
725.635	27.76
725.817	28.22
725.999	29.43
726.181	28.99
726.364	27.59
726.546	27.92
726.728	27.44
726.91	26.28
727.092	26.59
727.274	27.07
727.456	27.52
727.638	26.8
727.819	27.09
728.001	25.48
728.183	25.9
728.365	26.53
728.547	25.77
728.729	24.99
728.911	24.35
729.093	24.44
729.274	23.91
729.456	24.06
729.638	25.35
729.82	25.33
730.001	26.15
730.183	26.52
730.365	26.19
730.546	27.01
730.728	27.1
730.91	28.26
731.091	28.44
731.273	29.24
731.455	29.18
731.636	27.91
731.818	27.8
731.999	28.74
732.181	28.51
732.362	29.32
732.544	29.01
732.725	29.81
732.907	29.29
733.088	29.83
733.27	29.75
733.451	30.06
733.633	30.88
733.814	31.03
733.995	29.83
734.177	29.93
734.358	28.98
734.539	28.77
734.721	29.01
734.902	28.79
735.083	29.08
735.264	29.75
735.446	30.88
735.627	30.84
735.808	30.5
735.989	30.64
736.17	30.89
736.351	31.34
736.533	32.29
736.714	32.28
736.895	31.58
737.076	31.23
737.257	31.24
737.438	30.38
737.619	30.18
737.8	29.19
737.981	30.01
738.162	29.75
738.343	28.77
738.524	28.1
738.705	27.96
738.886	28.37
739.067	28.31
739.247	27.11
739.428	27.42
739.609	28.34
739.79	30.66
739.971	31.08
740.151	30.4
740.332	31.09
740.513	31.87
740.694	32.08
740.874	33.27
741.055	32.81
741.236	31.69
741.417	31.1
741.597	29.92
741.778	28.22
741.958	29.13
742.139	29.8
742.32	30.45
742.5	30.79
742.681	28.22
742.861	27.56
743.042	28.15
743.222	29.77
743.403	30.63
743.583	30.92
743.764	31.64
743.944	28.93
744.124	29.27
744.305	28.91
744.485	26.49
744.666	28.58
744.846	28.87
745.026	28.98
745.207	29.18
745.387	28.12
745.567	28.69
745.747	29.16
745.928	31.07
746.108	30.13
746.288	29.67
746.468	31.79
746.648	31.61
746.829	30.5
747.009	30
747.189	28.74
747.369	29.27
747.549	27.77
747.729	26.37
747.909	24.91
748.089	25.27
748.269	25.66
748.449	24.66
748.629	25.55
748.809	26.38
748.989	25.54
749.169	25.23
749.349	24.41
749.529	25.16
749.709	25.31
749.889	26.01
750.068	26.55
750.248	26.77
750.428	27.12
750.608	26.4
750.788	26.66
750.967	27.1
751.147	27.99
751.327	28.42
751.507	28.76
751.686	29.51
751.866	29.49
752.046	28.14
752.225	28.06
752.405	28.36
752.585	28.72
752.764	27.98
752.944	27.67
753.123	27.71
753.303	27.08
753.482	27.12
753.662	27.49
753.841	27.99
754.021	27.96
754.2	27.67
754.38	28.6
754.559	28.77
754.739	29.89
754.918	30.74
755.097	32.29
755.277	32.95
755.456	32.29
755.635	31.31
755.815	30.87
755.994	31.36
756.173	31.26
756.352	29.78
756.532	28.69
756.711	28.86
756.89	28.68
757.069	26.76
757.248	26.87
757.427	28.24
757.607	29.11
757.786	28.82
757.965	29.19
758.144	29.12
758.323	28.61
758.502	29.6
758.681	26.93
758.86	28.54
759.039	28.59
759.218	28.36
759.397	28.13
759.576	28.33
759.755	28.01
759.934	28.3
760.113	28.86
760.291	30.79
760.47	30.74
760.649	32.17
760.828	31.94
761.007	32.75
761.186	32.89
761.364	32.06
761.543	30.94
761.722	30.75
761.901	30.99
762.079	30.1
762.258	29.77
762.437	29.79
762.615	30.49
762.794	29.39
762.972	28.87
763.151	29.04
763.33	29.72
763.508	30.38
763.687	31.06
763.865	31.41
764.044	32
764.222	31.42
764.401	31.55
764.579	30.96
764.758	31.74
764.936	31.36
765.114	31
765.293	30.83
765.471	30.92
765.65	31.16
765.828	30.5
766.006	31.45
766.184	32.17
766.363	31.92
766.541	32.03
766.719	30.12
766.898	30.16
767.076	30.38
767.254	30.6
767.432	29.86
767.61	28.94
767.788	29.16
767.967	27.22
768.145	25.72
768.323	23.81
768.501	23.36
768.679	22.59
768.857	23.24
769.035	25.28
769.213	24.69
769.391	25.17
769.569	26.22
769.747	25.63
769.925	28.28
770.103	28.69
770.281	29.8
770.459	30.75
770.636	33.85
770.814	35
770.992	33.01
771.17	33.05
771.348	31.6
771.525	32.2
771.703	35.01
771.881	31.65
772.059	32.98
772.236	31.98
772.414	32.93
772.592	31.71
772.769	31.36
772.947	30.34
773.125	30.38
773.302	30.85
773.48	30.36
773.657	28.38
773.835	29.1
774.013	29.06
774.19	32.11
774.368	32.99
774.545	32.87
774.723	32.67
774.9	35.03
775.077	35.18
775.255	37.14
775.432	37.04
775.61	37.95
775.787	39.13
775.964	38.85
776.142	35.65
776.319	34.12
776.496	34.55
776.674	35.53
776.851	34.52
777.028	35.29
777.205	35.6
777.382	36.42
777.56	33.63
777.737	31.95
777.914	31.53
778.091	34.58
778.268	34.11
778.445	34.45
778.622	31.4
778.8	29.81
778.977	30.27
779.154	26.88
779.331	24.57
779.508	26.06
779.685	27.94
779.862	28.98
780.038	30.14
780.215	30.5
780.392	28.04
780.569	29.69
780.746	30.84
780.923	28.53
781.1	29.55
781.277	30.39
781.453	32.01
781.63	29.44
781.807	29.03
781.984	29.3
782.16	29.35
782.337	32.69
782.514	35.89
782.691	35.82
782.867	37.46
783.044	38.63
783.221	39.49
783.397	38.49
783.574	40.58
783.75	38.95
783.927	34.14
784.103	34.25
784.28	33.25
784.456	29.69
784.633	32.68
784.809	32.06
784.986	31.36
785.162	30.83
785.339	31.38
785.515	31.66
785.692	33.35
785.868	38.49
786.044	37.23
786.221	37.64
786.397	36.32
786.573	34.08
786.749	34
786.926	36.19
787.102	33.48
787.278	33.23
787.454	32.57
787.631	30.42
787.807	25.88
787.983	27.25
788.159	28.19
788.335	29.44
788.511	28.29
788.687	28.14
788.863	27.1
789.039	27.78
789.216	25.84
789.392	25.9
789.568	27.88
789.744	30.78
789.919	31.34
790.095	32.39
790.271	34.26
790.447	36.04
790.623	36.19
790.799	34.47
790.975	36.24
791.151	37.26
791.327	36.16
791.502	37.06
791.678	37.25
791.854	37.58
792.03	35.83
792.205	36.28
792.381	33.27
792.557	33.2
792.733	33.78
792.908	31.31
793.084	31.25
793.259	33.74
793.435	28.91
793.611	28.23
793.786	27.28
793.962	27.47
794.137	28.09
794.313	32.1
794.488	31.54
794.664	32.79
794.839	34.66
795.015	35.23
795.19	33.79
795.366	36.89
795.541	37.7
795.716	35.06
795.892	33.49
796.067	31.37
796.242	25.83
796.418	22.91
796.593	19.02
796.768	19.3
796.944	18.72
797.119	19.76
797.294	21.18
797.469	21.73
797.644	22.01
797.82	24.37
797.995	22.78
798.17	23.95
798.345	25.75
798.52	29.51
798.695	27.6
798.87	27.39
799.045	26.37
799.22	25.44
799.395	23.08
799.57	28.46
799.745	27.19
799.92	26.81
800.095	30.74
800.27	31.88
800.445	32.2
800.62	32.88
800.795	33.04
800.97	33.25
801.145	31.73
801.319	34.71
801.494	30.06
801.669	32.41
801.844	33.12
802.018	29.81
802.193	27.75
802.368	24.27
802.543	24.81
802.717	24.55
802.892	19.2
803.067	21.53
803.241	19.81
803.416	18.78
803.59	16.7
803.765	19.41
803.94	21.75
804.114	25.04
804.289	28.59
804.463	31.5
804.638	31.9
804.812	38.49
804.986	38.85
805.161	33.9
805.335	37.09
805.51	33.9
805.684	35
805.858	33.06
806.033	30.09
806.207	29.3
806.381	27.73
806.556	25.59
806.73	22.51
806.904	20.58
807.078	25.58
807.253	23.34
807.427	26.14
807.601	22.31
807.775	22.15
807.949	24.18
808.123	24.78
808.298	26.11
808.472	29.37
808.646	34.07
808.82	36.61
808.994	37.28
809.168	35.69
809.342	33.66
809.516	34.52
809.69	37.97
809.864	40.89
810.038	40.98
810.212	39.02
810.385	37.83
810.559	43.24
810.733	44.37
810.907	40.69
811.081	41.99
811.255	44.36
811.428	46.09
811.602	45.51
811.776	44.73
811.95	42.5
812.123	41.53
812.297	43.58
812.471	36.57
812.644	36.13
812.818	41.27
812.992	42.3
813.165	40.26
813.339	42.24
813.512	36.81
813.686	36.47
813.86	37.04
814.033	33.99
814.207	33.27
814.38	30.79
814.554	28.85
814.727	26.58
814.9	26.63
815.074	30.9
815.247	27.2
815.421	32.02
815.594	31.15
815.767	32.44
815.941	36.36
816.114	41.48
816.287	43.11
816.46	42.07
816.634	42.83
816.807	39.7
816.98	33.21
817.153	39.84
817.327	40.51
817.5	41.67
817.673	41.67
817.846	43.64
818.019	35.75
818.192	37.75
818.365	34.98
818.538	32.16
818.711	37.45
818.884	39
819.057	35.57
819.23	32.29
819.403	30.08
819.576	30.37
819.749	27.33
819.922	30.18
820.095	28.88
820.268	34.2
820.441	32.18
820.614	30.53
820.786	29.83
820.959	32.22
821.132	32.42
821.305	33.9
821.477	32.01
821.65	33.56
821.823	32.86
821.996	32.23
822.168	31.89
822.341	32.7
822.514	32.75
822.686	33.32
822.859	32.58
823.031	32.14
823.204	31.55
823.376	32.05
823.549	31.05
823.722	30.91
823.894	31.01
824.067	30.19
824.239	30.04
824.411	29.81
824.584	30.15
824.756	30.03
824.929	29.73
825.101	30.27
825.273	29.11
825.446	29.69
825.618	28.41
825.79	28.66
825.963	29.48
826.135	29.13
826.307	28.13
826.479	26.72
826.652	25.93
826.824	27.5
826.996	27.46
827.168	28.38
827.34	26.16
827.512	29.07
827.684	27.88
827.856	26.5
828.029	26.89
828.201	28.76
828.373	29.54
828.545	30.79
828.717	30.12
828.889	29.44
829.061	29.64
829.232	33.56
829.404	31.99
829.576	31.7
829.748	30.8
829.92	30.41
830.092	30.06
830.264	31.53
830.436	30
830.607	31.53
830.779	32.24
830.951	33.01
831.123	31.43
831.294	30.75
831.466	34.23
831.638	37.14
831.809	39.7
831.981	39.33
832.153	36.64
832.324	39.28
832.496	38.44
832.667	35.88
832.839	36.36
833.011	33.77
833.182	34.56
833.354	32.97
833.525	32.25
833.697	31.53
833.868	32.89
834.039	31.73
834.211	32.41
834.382	30.3
834.554	30.38
834.725	28.68
834.896	29.97
835.068	29.76
835.239	31.84
835.41	32.82
835.581	34.94
835.753	34.31
835.924	36.56
836.095	35.76
836.266	36.89
836.438	38.72
836.609	44.16
836.78	44.55
836.951	46.25
837.122	47.33
837.293	47.05
837.464	45.94
837.635	47.71
837.806	45.68
837.977	43.21
838.148	45.4
838.319	46.23
838.49	36.76
838.661	38.96
838.832	41.8
839.003	37.42
839.174	37.97
839.345	35.27
839.516	26.82
839.687	30.61
839.857	30.86
840.028	27.46
840.199	22.79
840.37	25.31
840.54	27.7
840.711	26.23
840.882	24.03
841.053	23.42
841.223	26.8
841.394	35.24
841.564	32.86
841.735	39.46
841.906	39.07
842.076	44.54
842.247	41.19
842.417	29.57
842.588	25.65
842.758	34.3
842.929	29.86
843.099	25.04
843.27	31.96
843.44	29.27
843.611	28.6
843.781	30.56
843.951	40.36
844.122	48.34
844.292	55
844.462	60.04
844.633	56.76
844.803	68.96
844.973	62.58
845.144	56.33
845.314	61.01
845.484	63.88
845.654	69.09
845.824	58.87
845.995	66.01
846.165	60.32
846.335	57.54
846.505	52.2
846.675	43.47
846.845	42.05
847.015	49.77
847.185	57.04
847.355	42.97
847.525	48.14
847.695	34.88
847.865	20.41
848.035	34.24
848.205	33.73
848.375	32.64
848.545	42.87
848.715	41.86
848.884	18.48
849.054	22.55
849.224	24.96
849.394	29.83
849.564	41.2
849.733	49.74
849.903	38.83
850.073	49.59
850.243	50.41
850.412	58.56
850.582	61.38
850.752	81.85
850.921	66.83
851.091	75.92
851.26	72.75
851.43	67.79
851.599	57.17
851.769	66.5
851.939	63
852.108	72.19
852.278	52.38
852.447	66.07
852.616	46.27
852.786	64.55
852.955	70.2
853.125	56.2
853.294	56.94
853.463	70.62
853.633	67.65
853.802	61.07
853.971	60.48
854.141	66.95
854.31	54.31
854.479	57.48
854.648	40.87
854.818	17.8
854.987	19.24
855.156	33.84
855.325	18.67
855.494	17.43
855.663	21.22
855.832	17.03
856.001	3.71
856.171	3.81
856.34	-10.07
856.509	11.48
856.678	21.03
856.847	18.5
857.016	6.84
857.185	11.36
857.353	24.39
857.522	20.42
857.691	21.38
857.86	14.31
858.029	24.9
858.198	38.29
858.367	33.22
858.535	51.64
858.704	57.24
858.873	62.85
859.042	55.06
859.21	45.67
859.379	46.86
859.548	37.51
859.717	63.19
859.885	51.36
860.054	45.72
860.222	15.46
860.391	-15.8
860.56	3.44
860.728	1.87
860.897	10.1
861.065	32.81
861.234	30.25
861.402	12.73
861.571	27.48
861.739	40.8
861.908	56.93
862.076	71.06
862.244	76.04
862.413	73.68
862.581	71.29
862.749	63.46
862.918	56.05
863.086	53.63
863.254	90.32
863.423	67.93
863.591	60.66
863.759	52.68
863.927	46.72
864.096	50.7
864.264	63.95
864.432	54.52
864.6	65.85
864.768	69.75
864.936	76.52
865.104	68.59
865.272	76.3
865.44	89.15
865.608	73.97
865.776	75.64
865.944	72.35
866.112	67.31
866.28	64.66
866.448	55.34
866.616	51.66
866.784	37.87
866.952	49.01
867.12	36.18
867.288	33.05
867.455	30.2
867.623	37.5
867.791	28.16
867.959	5.08
868.127	26.35
868.294	-11.79
868.462	-44.61
868.63	-88.71
868.797	-245.83
868.965	-92.39
869.133	-92.09
869.3	-66.3
869.468	-45.94
869.636	8.12
869.803	31.42
869.971	17.69
870.138	30.78
870.306	77.17
870.473	97.56
870.641	103.67
870.808	97.03
870.975	72.02
871.143	54.11
871.31	70.01
871.478	62.72
871.645	69.89
871.812	77.3
871.98	76.87
872.147	65
872.314	60.73
872.482	64.57
872.649	80.89
872.816	85.99
872.983	101.61
873.15	101.51
873.318	118.45
873.485	114.42
873.652	103.94
873.819	101.89
873.986	108.19
874.153	106.01
874.32	97.69
874.487	99.64
874.654	99.54
874.821	85.55
874.988	63.41
875.155	67.06
875.322	38.14
875.489	32.45
875.656	43.25
875.823	32.04
875.99	41.88
876.157	44.03
876.324	36.96
876.49	33.8
876.657	39.62
876.824	69.08
876.991	72.79
877.157	89.56
877.324	88.27
877.491	83.39
877.658	110.97
877.824	121.02
877.991	93.68
878.157	88.92
878.324	109.86
878.491	123.11
878.657	109.49
878.824	102.86
878.99	98.52
879.157	110.7
879.323	98.22
879.49	68.07
879.656	59.33
879.823	65.28
879.989	39.28
880.156	50.7
880.322	34.63
880.488	47.4
880.655	29.7
880.821	41.16
880.987	43.68
881.154	36.97
881.32	37.74
881.486	40.2
881.652	42.99
881.819	50.9
881.985	36.67
882.151	35.92
882.317	28.93
882.483	36.28
882.649	35.21
882.816	34.44
882.982	37.92
883.148	37.41
883.314	41.45
883.48	38.12
883.646	36.45
883.812	36.61
883.978	37.74
884.144	38.53
884.31	35.73
884.476	36.03
884.642	37.12
884.807	38.26
884.973	39.44
885.139	37.31
885.305	36.7
885.471	35.76
885.637	37.16
885.802	39.31
885.968	37.87
886.134	41.86
886.3	45.27
886.465	44.55
886.631	44.55
886.797	43.96
886.962	42.69
887.128	50.96
887.293	56.76
887.459	50.99
887.625	53.46
887.79	48.74
887.956	32.8
888.121	15.84
888.287	-0.95
888.452	-51.68
888.618	-106.49
888.783	-135.36
