Data from 2937829_Reflection_3.txt Node
Date: Wed Jul 15 16:53:23 EDT 2015
User: robert
Spectrometer: USB4E03001
Autoset integration time: false
Trigger mode: 4
Integration Time (sec): 1.000000E-1
Scans to average: 10
Electric dark correction enabled: true
Nonlinearity correction enabled: false
Boxcar width: 5
Stray light correction enabled: false
XAxis mode: Wavelengths
Stop averaging: false
Number of Pixels in Spectrum: 3648
>>>>>Begin Spectral Data<<<<<
177.566	-37.95
177.785	19.02
178.005	38.19
178.225	-438.1
178.445	-8083.33
178.665	59.91
178.885	252.85
179.105	-680.56
179.324	904.79
179.544	-39.85
179.764	-32.96
179.984	-248.06
180.204	-221.86
180.423	-124.79
180.643	-60.03
180.863	-176.52
181.083	-11.98
181.302	-92.54
181.522	-222.5
181.742	-65.28
181.961	-75.91
182.181	-12.9
182.401	-19.41
182.621	-8.91
182.84	-39.69
183.06	-91.56
183.279	-30.04
183.499	-30.37
183.719	-8.28
183.938	127.72
184.158	-3928.99
184.377	-122.54
184.597	-43.23
184.816	-56.03
185.036	-233.16
185.256	-210.34
185.475	-292.56
185.695	500.1
185.914	1482.95
186.134	272.29
186.353	94.89
186.572	34.38
186.792	33.4
187.011	14.74
187.231	25.49
187.45	26.06
187.67	22.56
187.889	36.41
188.108	31.74
188.328	56.03
188.547	41.42
188.766	34.66
188.986	46.54
189.205	137.62
189.424	147.61
189.644	88.36
189.863	1105.88
190.082	92.73
190.302	-109.51
190.521	-346.94
190.74	-2398
190.959	-300.48
191.178	435.8
191.398	204.6
191.617	-215.43
191.836	-111.04
192.055	-23.47
192.274	-182.75
192.494	1626.22
192.713	287.59
192.932	-348.1
193.151	-110.35
193.37	60.18
193.589	23.46
193.808	-3.65
194.027	46.73
194.246	25.61
194.465	-135.81
194.685	-173.16
194.904	-175.13
195.123	-378.21
195.342	-441.18
195.561	-503.59
195.78	-365.78
195.999	-801.43
196.218	-412.23
196.436	-219.61
196.655	1252.88
196.874	160.36
197.093	88.8
197.312	47.67
197.531	-148.03
197.75	-159.82
197.969	-179.88
198.188	-329.12
198.407	-251.15
198.625	-157.49
198.844	-85.72
199.063	-405.7
199.282	-229.96
199.501	-80.35
199.719	-30.05
199.938	-73.04
200.157	-92.02
200.376	-3.44
200.594	-100.97
200.813	43.85
201.032	73.74
201.251	90.91
201.469	174.97
201.688	134.41
201.907	185.85
202.125	300.26
202.344	292.66
202.563	338.85
202.781	559.95
203	317.14
203.218	134.32
203.437	121.74
203.656	215.51
203.874	-214.84
204.093	-47.32
204.311	102.9
204.53	221.72
204.748	100.43
204.967	104.73
205.185	116.01
205.404	114.81
205.622	497.19
205.841	162.45
206.059	124.29
206.278	145.51
206.496	91.31
206.715	184.41
206.933	141.74
207.151	62.86
207.37	56.45
207.588	68.85
207.806	85.9
208.025	64.93
208.243	146.29
208.461	112.29
208.68	19.34
208.898	9.37
209.116	3.49
209.335	75.17
209.553	82.54
209.771	79.15
209.989	98.09
210.208	-154.87
210.426	97.58
210.644	60.57
210.862	69.87
211.081	81.58
211.299	115.26
211.517	158.42
211.735	97.48
211.953	99.66
212.171	97.57
212.39	89.69
212.608	88.14
212.826	76.14
213.044	95.98
213.262	105.73
213.48	112.8
213.698	35.71
213.916	32.16
214.134	34.25
214.352	92.05
214.57	104.1
214.788	138.7
215.006	91.07
215.224	70.14
215.442	124.71
215.66	118.98
215.878	114.72
216.096	282.89
216.314	244.33
216.532	488.69
216.75	-34.23
216.968	-87.52
217.185	140.67
217.403	38.64
217.621	71.3
217.839	146.93
218.057	-368.2
218.275	65.62
218.492	101.34
218.71	53.29
218.928	104.1
219.146	-39.96
219.363	81.58
219.581	-959.93
219.799	-3268.03
220.017	-239.4
220.234	-314.62
220.452	-62.1
220.67	-47.96
220.887	-39.32
221.105	-16.75
221.323	45.93
221.54	22.15
221.758	20.53
221.976	51.93
222.193	92.12
222.411	74.29
222.629	110.63
222.846	74.6
223.064	66.65
223.281	99.37
223.499	74.47
223.716	85.32
223.934	72.54
224.151	63.87
224.369	81.44
224.586	90.99
224.804	75.37
225.021	53.92
225.239	36.54
225.456	38.05
225.674	20.76
225.891	-3.25
226.108	-25.33
226.326	24.43
226.543	7.62
226.76	18.61
226.978	5.64
227.195	24.79
227.413	4.91
227.63	11.78
227.847	8.31
228.064	13.26
228.282	12.23
228.499	11.79
228.716	12.79
228.934	19.43
229.151	13.4
229.368	9.3
229.585	4.7
229.802	8.33
230.02	8.23
230.237	2.1
230.454	0.44
230.671	2.19
230.888	2.62
231.105	-6.93
231.323	-13.07
231.54	-9.24
231.757	-3.45
231.974	7.59
232.191	9.85
232.408	13.67
232.625	21.74
232.842	17.67
233.059	19.73
233.276	14.14
233.493	24.36
233.71	25.07
233.927	23.7
234.144	21.07
234.361	4.72
234.578	2.63
234.795	-5.58
235.012	0.03
235.229	1.84
235.446	-2.16
235.663	8.86
235.879	3.57
236.096	1.79
236.313	-5.95
236.53	-5.38
236.747	4.57
236.964	2.81
237.181	6.02
237.397	0.33
237.614	-0.18
237.831	-7.3
238.048	-9.45
238.264	-6.1
238.481	-1.3
238.698	2.67
238.915	5.73
239.131	8.63
239.348	6.28
239.565	11.43
239.781	13.31
239.998	16.87
240.215	18.19
240.431	18.28
240.648	19.69
240.865	17.46
241.081	17.3
241.298	19.07
241.514	16.11
241.731	19.48
241.947	20.89
242.164	17.84
242.38	16.95
242.597	19.29
242.814	20.42
243.03	19.84
243.246	20.06
243.463	20.21
243.679	20.13
243.896	20.05
244.112	17.67
244.329	16.07
244.545	19.03
244.762	22.92
244.978	21.84
245.194	17.94
245.411	15.72
245.627	15.81
245.843	17.5
246.06	15.91
246.276	16.35
246.492	18.44
246.709	17.13
246.925	17.96
247.141	16.8
247.357	17.22
247.574	18.33
247.79	19.17
248.006	18.49
248.222	18.39
248.439	19.28
248.655	19.2
248.871	19.6
249.087	19.33
249.303	19.15
249.519	18.84
249.736	16.63
249.952	15.85
250.168	15.53
250.384	16.8
250.6	13.34
250.816	15.08
251.032	15.38
251.248	15.01
251.464	17.2
251.68	16.43
251.896	15.97
252.112	16.91
252.328	17.33
252.544	15.09
252.76	16.57
252.976	19.83
253.192	17.34
253.408	17.42
253.624	16.24
253.84	14.6
254.056	14.6
254.272	15.1
254.487	15.14
254.703	10.58
254.919	11.51
255.135	14.86
255.351	13.92
255.567	13.3
255.782	13.8
255.998	14.26
256.214	15.69
256.43	13.15
256.646	10.26
256.861	12.53
257.077	16.51
257.293	18.79
257.508	13.35
257.724	13.8
257.94	15.77
258.155	15.02
258.371	14.17
258.587	14.67
258.802	15.6
259.018	16.8
259.234	17.07
259.449	16.44
259.665	15.84
259.88	15.91
260.096	15.34
260.312	14.24
260.527	13.86
260.743	14.08
260.958	13.26
261.174	13.4
261.389	12.12
261.605	10.43
261.82	10.1
262.036	10.22
262.251	8.79
262.466	6.43
262.682	5.5
262.897	6.28
263.113	4.54
263.328	4.74
263.543	4.38
263.759	7.54
263.974	9.37
264.189	10.78
264.405	11.49
264.62	12.05
264.835	17.34
265.051	17.55
265.266	18.65
265.481	18.19
265.696	16.41
265.912	16.89
266.127	14.82
266.342	14.3
266.557	12.46
266.773	11.06
266.988	14.19
267.203	11.77
267.418	11.6
267.633	10.77
267.848	11.62
268.064	12.25
268.279	11.05
268.494	10.02
268.709	9.52
268.924	11.44
269.139	9.31
269.354	6.86
269.569	7.44
269.784	8.67
269.999	8.43
270.214	8.02
270.429	8.04
270.644	7.22
270.859	9.26
271.074	10.27
271.289	9.76
271.504	12.53
271.719	12.25
271.934	11.83
272.149	11
272.363	10.61
272.578	12.47
272.793	12.96
273.008	12.99
273.223	12.73
273.438	12.9
273.653	12.03
273.867	12.76
274.082	13.09
274.297	14.04
274.512	14.73
274.726	15.44
274.941	12.4
275.156	13.62
275.371	14.2
275.585	14.96
275.8	15.01
276.015	15.26
276.229	12.46
276.444	14.41
276.659	12.91
276.873	12.79
277.088	11.91
277.302	12.22
277.517	10.67
277.732	10.94
277.946	7.91
278.161	6.87
278.375	5.8
278.59	7.88
278.804	5.54
279.019	6.21
279.233	5.49
279.448	2.3
279.662	3.45
279.877	2.85
280.091	2.18
280.306	7.03
280.52	8.24
280.735	9.37
280.949	8.39
281.163	9.88
281.378	11.54
281.592	11.97
281.806	14.75
282.021	15.76
282.235	17.04
282.449	17.17
282.664	15.46
282.878	14.58
283.092	16
283.307	15.76
283.521	15.26
283.735	13.7
283.949	12.83
284.164	12.47
284.378	11.82
284.592	11.58
284.806	10.7
285.02	11.02
285.234	11.53
285.449	11.27
285.663	12.92
285.877	13.69
286.091	15.22
286.305	16.46
286.519	17.43
286.733	17.93
286.947	18.14
287.161	20.41
287.375	20.58
287.589	21.94
287.803	21.41
288.017	19.87
288.231	18.93
288.445	19.48
288.659	19.47
288.873	19.51
289.087	16.98
289.301	16.34
289.515	16.61
289.729	16.68
289.943	15.58
290.157	17.11
290.371	17.8
290.584	17.32
290.798	15.25
291.012	15.07
291.226	14.53
291.44	16.04
291.654	15.9
291.867	15.48
292.081	15.81
292.295	14.14
292.509	12.01
292.722	13
292.936	13.03
293.15	15.85
293.364	16.49
293.577	16.78
293.791	18.56
294.005	18.42
294.218	19.13
294.432	21.05
294.645	24.09
294.859	26.84
295.073	25.43
295.286	25.54
295.5	25.4
295.713	25.33
295.927	26.24
296.14	26.28
296.354	27.61
296.568	27.8
296.781	27.98
296.994	28.85
297.208	28.22
297.421	29.93
297.635	32.48
297.848	32.2
298.062	32.49
298.275	32.3
298.489	32.78
298.702	34.14
298.915	34.57
299.129	33.84
299.342	33.73
299.555	33.15
299.769	33.61
299.982	32.79
300.195	33.14
300.409	35.75
300.622	38.11
300.835	39.52
301.048	38.68
301.262	38.94
301.475	39.91
301.688	40.08
301.901	41.67
302.115	41.02
302.328	41.34
302.541	43.47
302.754	41.63
302.967	42.44
303.18	42.31
303.393	44.23
303.607	43.59
303.82	45
304.033	44.87
304.246	45.91
304.459	46.83
304.672	46.8
304.885	47.65
305.098	50.51
305.311	48.57
305.524	48.57
305.737	47.45
305.95	50.86
306.163	50.52
306.376	52.45
306.589	50.52
306.802	49.52
307.015	49.84
307.228	48.64
307.44	48.02
307.653	49.58
307.866	49.64
308.079	50.82
308.292	47.34
308.505	47.4
308.718	47.24
308.93	49.52
309.143	50.06
309.356	49.46
309.569	49.32
309.781	49.84
309.994	49.91
310.207	49.87
310.42	48.39
310.632	49.31
310.845	50.87
311.058	50.77
311.27	50.8
311.483	50.03
311.696	50.45
311.908	50.57
312.121	49.99
312.333	49.27
312.546	49.12
312.759	50.11
312.971	51.36
313.184	48.66
313.396	47.09
313.609	46.35
313.821	49.64
314.034	48.66
314.246	49.46
314.459	49.74
314.671	50.49
314.884	51
315.096	51.3
315.309	49.97
315.521	50.46
315.733	50.75
315.946	50.29
316.158	48.95
316.371	51.88
316.583	50.53
316.795	49.55
317.008	49.78
317.22	50.11
317.432	50.68
317.644	50.88
317.857	50.67
318.069	51.44
318.281	53.45
318.494	51.89
318.706	51.01
318.918	52.64
319.13	52.9
319.342	52.96
319.555	52.48
319.767	52.43
319.979	53.23
320.191	54.38
320.403	55.21
320.615	52.54
320.827	53.46
321.039	53.9
321.252	52.49
321.464	53.45
321.676	51.84
321.888	51.22
322.1	50.8
322.312	50.24
322.524	50.65
322.736	50.33
322.948	51.81
323.16	51.03
323.372	51.09
323.584	52.41
323.796	52.4
324.007	53.26
324.219	53.37
324.431	54.58
324.643	55.91
324.855	56.6
325.067	56.44
325.279	56.17
325.491	58.72
325.702	58.36
325.914	58.66
326.126	56.97
326.338	57.03
326.55	58.79
326.761	58.78
326.973	58.24
327.185	59.17
327.396	58.86
327.608	59.75
327.82	57.13
328.032	58.61
328.243	58.69
328.455	60.86
328.666	60.58
328.878	60.09
329.09	58.93
329.301	58.05
329.513	56.62
329.725	57.66
329.936	58.39
330.148	61.99
330.359	59.71
330.571	60.33
330.782	59.82
330.994	60.13
331.205	58.88
331.417	60.3
331.628	61.53
331.84	60.57
332.051	61.37
332.262	61.88
332.474	60.16
332.685	62.15
332.897	60.69
333.108	60.48
333.319	61.01
333.531	61.18
333.742	61.22
333.953	61.78
334.165	63.15
334.376	62.51
334.587	62.15
334.799	61.47
335.01	61.35
335.221	62.46
335.432	62.08
335.644	63.58
335.855	64.79
336.066	64.2
336.277	63.24
336.488	63.03
336.7	64.4
336.911	63.55
337.122	64.78
337.333	65.87
337.544	66.35
337.755	68.18
337.966	67.68
338.177	68.32
338.388	69.24
338.599	69.8
338.811	71.24
339.022	70.07
339.233	69.73
339.444	69.36
339.655	69.61
339.866	69.72
340.076	68.88
340.287	69.47
340.498	67.92
340.709	66.77
340.92	66.82
341.131	65.64
341.342	67.19
341.553	68.14
341.764	67.94
341.975	67.26
342.185	66.21
342.396	66.4
342.607	66.33
342.818	67.38
343.029	69.28
343.239	70.32
343.45	70.85
343.661	70.71
343.872	71.2
344.082	71.82
344.293	71.02
344.504	71.53
344.714	71.71
344.925	71.23
345.136	71.71
345.346	70.36
345.557	70.65
345.768	69.41
345.978	70.15
346.189	70.38
346.399	70.63
346.61	70.88
346.821	72.16
347.031	71.95
347.242	72
347.452	71.9
347.663	72.45
347.873	72.8
348.084	74.04
348.294	73.33
348.504	72.83
348.715	72.46
348.925	72.02
349.136	70.77
349.346	70.55
349.557	70.26
349.767	69.04
349.977	68.78
350.188	68.05
350.398	68.14
350.608	67.08
350.819	67.96
351.029	69.38
351.239	70.62
351.449	70.73
351.66	72.85
351.87	73.69
352.08	75.04
352.29	76.06
352.501	75.85
352.711	75.73
352.921	75.04
353.131	74.23
353.341	73.33
353.552	72.91
353.762	72.27
353.972	70.93
354.182	69.59
354.392	68.93
354.602	68.35
354.812	67.88
355.022	67.07
355.232	68.36
355.442	70.14
355.652	70.24
355.862	69.81
356.072	70.76
356.282	71.48
356.492	72.21
356.702	71.79
356.912	70.68
357.122	71.64
357.332	71.61
357.542	70.22
357.752	68.32
357.962	68.14
358.171	67.96
358.381	68.46
358.591	68.04
358.801	68.44
359.011	68.2
359.221	70.22
359.43	68.76
359.64	69.1
359.85	70.21
360.06	70.41
360.269	70.45
360.479	70.91
360.689	71.04
360.899	70.26
361.108	70.75
361.318	71.75
361.528	70.97
361.737	71.47
361.947	71.3
362.156	70.73
362.366	70.69
362.576	70.61
362.785	70
362.995	69.17
363.204	68.77
363.414	67.89
363.623	67.4
363.833	67.56
364.042	67.12
364.252	67.24
364.461	67.63
364.671	66.68
364.88	65.62
365.09	66.74
365.299	66.28
365.509	67.13
365.718	67.39
365.927	66.94
366.137	66.74
366.346	66.75
366.555	65.91
366.765	64.87
366.974	65.8
367.183	66.91
367.393	65.82
367.602	65.19
367.811	64.43
368.021	63.5
368.23	63.71
368.439	63.8
368.648	63.81
368.857	64
369.067	64.82
369.276	64.39
369.485	63.39
369.694	63.2
369.903	63.82
370.112	63.79
370.321	64.17
370.531	63.69
370.74	62.11
370.949	61.59
371.158	62.64
371.367	62.61
371.576	61.75
371.785	62.08
371.994	61.69
372.203	60.39
372.412	60.31
372.621	60.18
372.83	60.51
373.039	61.27
373.248	61.35
373.457	59.49
373.666	58.5
373.874	58.86
374.083	57.71
374.292	57.89
374.501	58.39
374.71	57.29
374.919	55.9
375.128	54.62
375.336	52.99
375.545	51.96
375.754	51.86
375.963	51.88
376.171	51.77
376.38	52.74
376.589	51.81
376.798	51.82
377.006	52.96
377.215	53.21
377.424	53.7
377.632	54.79
377.841	55.5
378.05	56.03
378.258	55.24
378.467	54.98
378.675	54.38
378.884	55.08
379.093	54.76
379.301	54.2
379.51	54.42
379.718	53.86
379.927	53.35
380.135	53.01
380.344	52.3
380.552	52.43
380.761	51.82
380.969	52.01
381.177	51.1
381.386	51.16
381.594	50.34
381.803	50.21
382.011	49.67
382.219	49.65
382.428	49.32
382.636	48.95
382.845	48.69
383.053	49.01
383.261	48.08
383.469	47.9
383.678	47.09
383.886	47.18
384.094	47.12
384.302	47.55
384.511	46.74
384.719	46.3
384.927	46.53
385.135	46.33
385.343	45.8
385.552	44.99
385.76	44.97
385.968	45.1
386.176	44.97
386.384	44.25
386.592	43.6
386.8	43.62
387.008	43.32
387.216	42.98
387.424	42.77
387.633	42.55
387.841	42.95
388.049	42.87
388.257	42.65
388.465	42.36
388.672	42.47
388.88	42.61
389.088	42.61
389.296	42.57
389.504	42.28
389.712	42.53
389.92	42.7
390.128	42.72
390.336	42.14
390.544	41.77
390.751	41.44
390.959	41.4
391.167	41.02
391.375	40.94
391.583	41.02
391.79	40.69
391.998	40.17
392.206	39.4
392.414	38.96
392.621	39.15
392.829	39.43
393.037	39.16
393.244	38.6
393.452	38.33
393.66	38.07
393.867	37.88
394.075	38.11
394.283	37.94
394.49	38.37
394.698	38.07
394.905	37.84
395.113	37.12
395.32	37.58
395.528	37.54
395.735	37.67
395.943	37.52
396.15	37.47
396.358	37.41
396.565	37.31
396.773	37
396.98	37.02
397.188	36.83
397.395	37.23
397.602	36.79
397.81	36.88
398.017	36.64
398.225	36.14
398.432	35.67
398.639	35.25
398.847	34.95
399.054	34.49
399.261	34.85
399.468	34.89
399.676	34.65
399.883	34.66
400.09	34.3
400.297	34.51
400.505	34.94
400.712	35.56
400.919	35.31
401.126	35.74
401.333	36.33
401.54	36.25
401.748	36.34
401.955	36.39
402.162	36.44
402.369	36.47
402.576	36.31
402.783	35.98
402.99	35.84
403.197	35.99
403.404	35.59
403.611	35.38
403.818	35.21
404.025	34.77
404.232	34.39
404.439	34.45
404.646	34.55
404.853	34.66
405.06	34.64
405.267	34.06
405.474	34.27
405.681	34.27
405.887	34.55
406.094	34.63
406.301	34.82
406.508	35.04
406.715	34.61
406.922	34.42
407.128	34.3
407.335	34.58
407.542	34.56
407.749	34.21
407.955	34.23
408.162	33.88
408.369	33.35
408.575	33.23
408.782	33.29
408.989	33.44
409.195	33.42
409.402	33.39
409.609	32.87
409.815	33.09
410.022	33.48
410.228	33.59
410.435	33.44
410.642	33.57
410.848	33.62
411.055	33.35
411.261	33.01
411.468	32.73
411.674	32.78
411.881	33.09
412.087	32.91
412.294	32.44
412.5	32.49
412.706	32.43
412.913	32.34
413.119	32.31
413.326	32.74
413.532	33.12
413.738	32.97
413.945	32.88
414.151	32.77
414.357	33.02
414.564	33.12
414.77	32.88
414.976	32.92
415.182	33.24
415.389	32.94
415.595	32.48
415.801	32.59
416.007	32.86
416.214	32.91
416.42	32.54
416.626	32.48
416.832	32.47
417.038	32.73
417.244	32.99
417.45	32.97
417.657	33.19
417.863	33.49
418.069	33.33
418.275	33.23
418.481	33.1
418.687	33.1
418.893	33.27
419.099	33.44
419.305	33.55
419.511	33.58
419.717	33.52
419.923	33.38
420.129	33.21
420.335	33.24
420.541	33.34
420.746	33.11
420.952	33.21
421.158	33.14
421.364	32.9
421.57	32.63
421.776	32.39
421.982	32.53
422.187	32.59
422.393	32.72
422.599	32.47
422.805	32.43
423.01	32.62
423.216	32.55
423.422	32.46
423.628	32.61
423.833	32.65
424.039	32.7
424.245	32.51
424.45	32.38
424.656	32.25
424.862	32.54
425.067	32.55
425.273	32.73
425.478	32.79
425.684	32.71
425.889	32.77
426.095	32.72
426.301	32.68
426.506	32.52
426.712	32.66
426.917	32.5
427.123	32.22
427.328	31.95
427.533	31.69
427.739	31.65
427.944	31.51
428.15	31.55
428.355	31.56
428.561	31.38
428.766	31.52
428.971	31.35
429.177	31.46
429.382	31.59
429.587	31.74
429.793	31.55
429.998	31.57
430.203	31.57
430.408	31.15
430.614	31.16
430.819	31.1
431.024	30.9
431.229	30.91
431.434	30.88
431.64	31.1
431.845	31.19
432.05	31.46
432.255	31.61
432.46	31.62
432.665	31.59
432.87	31.69
433.076	31.86
433.281	32.08
433.486	32.28
433.691	32.3
433.896	32.17
434.101	32.39
434.306	32.06
434.511	31.82
434.716	31.94
434.921	32.21
435.126	32.24
435.331	32.14
435.535	31.95
435.74	31.64
435.945	31.6
436.15	31.47
436.355	31.23
436.56	31.47
436.765	31.63
436.97	31.43
437.174	31.34
437.379	31
437.584	31.02
437.789	31.15
437.993	31
438.198	31.12
438.403	31.3
438.608	31.02
438.812	31.17
439.017	31.08
439.222	31.22
439.426	31.46
439.631	31.78
439.836	31.84
440.04	31.76
440.245	31.96
440.45	31.83
440.654	31.89
440.859	32.01
441.063	31.88
441.268	31.9
441.472	31.83
441.677	31.67
441.881	31.3
442.086	31.15
442.29	31.23
442.495	31.2
442.699	31.34
442.904	31.19
443.108	31.12
443.312	31.16
443.517	31.05
443.721	30.9
443.925	30.92
444.13	31.22
444.334	31.3
444.538	31.42
444.743	31.62
444.947	31.53
445.151	31.39
445.356	31.49
445.56	31.3
445.764	31.44
445.968	31.72
446.173	31.63
446.377	31.39
446.581	31.27
446.785	31.21
446.989	31.08
447.193	31.08
447.398	31.1
447.602	30.99
447.806	30.97
448.01	30.81
448.214	30.44
448.418	30.35
448.622	30.43
448.826	30.3
449.03	30.28
449.234	30.21
449.438	30.03
449.642	30.04
449.846	30.12
450.05	30.35
450.254	30.36
450.458	30.51
450.662	30.41
450.866	30.42
451.069	30.42
451.273	30.31
451.477	30.15
451.681	30.2
451.885	30.07
452.089	29.95
452.292	29.74
452.496	29.82
452.7	29.97
452.904	30.04
453.107	30.01
453.311	30.36
453.515	30.39
453.719	30.41
453.922	30.57
454.126	30.71
454.33	30.71
454.533	30.61
454.737	30.55
454.94	30.63
455.144	30.56
455.348	30.54
455.551	30.36
455.755	30.33
455.958	30.4
456.162	30.27
456.365	30.14
456.569	30.26
456.772	30.34
456.976	30.14
457.179	29.77
457.383	29.84
457.586	30.15
457.79	30.25
457.993	30.02
458.196	30.07
458.4	30.26
458.603	30.28
458.807	30.31
459.01	30.2
459.213	30.5
459.417	30.79
459.62	30.92
459.823	30.84
460.026	30.91
460.23	31.13
460.433	31.18
460.636	31.08
460.839	31.13
461.042	31.25
461.246	31.33
461.449	31.04
461.652	30.98
461.855	30.83
462.058	30.49
462.261	30.58
462.464	30.28
462.668	30.02
462.871	30.09
463.074	29.87
463.277	29.66
463.48	29.64
463.683	29.93
463.886	29.75
464.089	29.56
464.292	29.85
464.495	29.35
464.698	29.65
464.901	30
465.104	29.94
465.306	30.14
465.509	30.03
465.712	30.03
465.915	29.92
466.118	30.04
466.321	30.13
466.524	30.07
466.726	30.26
466.929	30.13
467.132	29.93
467.335	29.78
467.538	29.67
467.74	29.95
467.943	29.98
468.146	30.08
468.348	30.05
468.551	29.97
468.754	29.92
468.956	30.05
469.159	30.12
469.362	30.07
469.564	30.08
469.767	30.25
469.969	29.98
470.172	29.77
470.375	29.69
470.577	29.6
470.78	29.83
470.982	29.85
471.185	29.55
471.387	29.44
471.59	29.44
471.792	29.67
471.995	29.57
472.197	29.72
472.399	29.91
472.602	30.05
472.804	30.2
473.007	30.23
473.209	30.4
473.411	30.49
473.614	30.55
473.816	30.66
474.018	30.57
474.22	30.43
474.423	30.24
474.625	30.15
474.827	29.93
475.03	29.6
475.232	29.58
475.434	29.47
475.636	29.48
475.838	29.46
476.04	29.42
476.243	29.31
476.445	29.5
476.647	29.47
476.849	29.67
477.051	29.77
477.253	29.88
477.455	29.75
477.657	29.73
477.859	29.65
478.061	29.72
478.263	29.82
478.465	29.83
478.667	29.78
478.869	29.96
479.071	29.83
479.273	29.59
479.475	29.67
479.677	29.67
479.879	29.71
480.081	29.81
480.283	29.64
480.485	29.56
480.686	29.54
480.888	29.52
481.09	29.35
481.292	29.38
481.494	29.59
481.695	29.63
481.897	29.69
482.099	29.78
482.301	29.97
482.502	30.21
482.704	30.33
482.906	30.55
483.107	30.74
483.309	30.91
483.511	31.03
483.712	31.15
483.914	31.28
484.115	31.41
484.317	31.48
484.519	31.47
484.72	31.42
484.922	31.38
485.123	31.29
485.325	31.22
485.526	31.14
485.728	31.11
485.929	31.11
486.131	31.06
486.332	30.96
486.534	30.87
486.735	30.89
486.936	30.89
487.138	30.97
487.339	31.1
487.541	31.12
487.742	31.15
487.943	31.16
488.144	31.1
488.346	31.08
488.547	30.98
488.748	30.91
488.95	30.76
489.151	30.69
489.352	30.59
489.553	30.45
489.755	30.26
489.956	30.21
490.157	30.09
490.358	30.01
490.559	30.02
490.76	30.07
490.961	30.11
491.163	30.21
491.364	30.33
491.565	30.41
491.766	30.42
491.967	30.5
492.168	30.49
492.369	30.49
492.57	30.48
492.771	30.34
492.972	30.33
493.173	30.22
493.374	30.16
493.575	29.96
493.776	29.81
493.976	29.75
494.177	29.78
494.378	29.61
494.579	29.57
494.78	29.47
494.981	29.38
495.182	29.35
495.382	29.39
495.583	29.21
495.784	29.28
495.985	29.15
496.185	29
496.386	29.09
496.587	29.28
496.788	29.17
496.988	29.19
497.189	29.32
497.39	29.31
497.59	29.31
497.791	29.47
497.992	29.59
498.192	29.63
498.393	29.72
498.593	29.61
498.794	29.76
498.994	29.86
499.195	29.95
499.395	29.92
499.596	29.91
499.796	29.95
499.997	29.89
500.197	29.9
500.398	29.92
500.598	29.96
500.799	29.94
500.999	29.73
501.199	29.73
501.4	29.68
501.6	29.57
501.801	29.57
502.001	29.62
502.201	29.64
502.402	29.62
502.602	29.66
502.802	29.9
503.002	29.89
503.203	29.78
503.403	29.78
503.603	29.98
503.803	30.16
504.003	30.06
504.204	30.1
504.404	30.17
504.604	30.16
504.804	30.34
505.004	30.09
505.204	30.15
505.404	30.22
505.604	30.25
505.804	29.98
506.005	30.01
506.205	30.23
506.405	30.31
506.605	30.52
506.805	30.82
507.005	30.85
507.204	31.01
507.404	30.95
507.604	31.13
507.804	31.56
508.004	31.65
508.204	31.71
508.404	31.79
508.604	31.92
508.804	31.89
509.003	31.82
509.203	31.9
509.403	32.06
509.603	32.31
509.803	32.3
510.002	32.13
510.202	32.38
510.402	32.45
510.602	32.61
510.801	32.52
511.001	32.52
511.201	32.62
511.4	32.69
511.6	32.56
511.8	32.43
511.999	32.66
512.199	32.64
512.398	32.6
512.598	32.58
512.797	32.39
512.997	32.41
513.197	32.51
513.396	32.4
513.596	32.36
513.795	32.37
513.994	32.4
514.194	32.33
514.393	32.37
514.593	32.31
514.792	32.5
514.992	32.86
515.191	32.98
515.39	33.06
515.59	33.29
515.789	33.51
515.988	33.62
516.188	33.75
516.387	33.81
516.586	34.05
516.786	34.3
516.985	34.41
517.184	34.61
517.383	34.91
517.582	35.04
517.782	35
517.981	35.15
518.18	35.42
518.379	35.67
518.578	35.93
518.777	35.97
518.976	35.99
519.176	36.06
519.375	36.02
519.574	36.07
519.773	36.14
519.972	36.24
520.171	36.1
520.37	36.08
520.569	36
520.768	35.83
520.967	35.85
521.166	35.88
521.365	35.71
521.564	35.69
521.762	35.61
521.961	35.46
522.16	35.73
522.359	35.89
522.558	35.97
522.757	36.21
522.956	36.21
523.154	36.42
523.353	36.63
523.552	36.88
523.751	36.95
523.949	37.16
524.148	37.49
524.347	37.54
524.546	37.75
524.744	37.87
524.943	37.95
525.142	38.18
525.34	38.41
525.539	38.55
525.737	38.79
525.936	39.12
526.135	39.26
526.333	39.37
526.532	39.5
526.73	39.65
526.929	39.9
527.127	40.14
527.326	40.54
527.524	40.71
527.723	40.93
527.921	41.2
528.12	41.28
528.318	41.45
528.516	41.69
528.715	41.82
528.913	41.89
529.112	41.96
529.31	41.94
529.508	41.9
529.707	41.77
529.905	41.71
530.103	41.62
530.301	41.5
530.5	41.47
530.698	41.21
530.896	41.16
531.094	41.11
531.293	41.1
531.491	41.21
531.689	41.25
531.887	41.5
532.085	41.69
532.283	41.8
532.481	41.95
532.68	42.11
532.878	42.34
533.076	42.4
533.274	42.48
533.472	42.54
533.67	42.67
533.868	42.67
534.066	42.69
534.264	42.61
534.462	42.58
534.66	42.58
534.858	42.47
535.056	42.53
535.253	42.63
535.451	42.75
535.649	42.71
535.847	42.7
536.045	42.67
536.243	42.67
536.441	42.88
536.638	42.79
536.836	42.96
537.034	42.89
537.232	42.86
537.43	42.73
537.627	42.54
537.825	42.61
538.023	42.46
538.22	42.44
538.418	42.47
538.616	42.35
538.813	42.44
539.011	42.44
539.209	42.5
539.406	42.67
539.604	42.91
539.801	43.2
539.999	43.3
540.196	43.59
540.394	43.89
540.591	44.14
540.789	44.35
540.986	44.5
541.184	44.64
541.381	44.83
541.579	44.75
541.776	44.65
541.974	44.75
542.171	44.7
542.368	44.58
542.566	44.48
542.763	44.45
542.96	44.32
543.158	44.19
543.355	44.04
543.552	43.87
543.75	43.79
543.947	43.76
544.144	43.39
544.341	43.43
544.539	43.32
544.736	43.15
544.933	42.99
545.13	42.82
545.327	42.85
545.524	42.88
545.722	43.03
545.919	43.22
546.116	43.3
546.313	43.48
546.51	43.5
546.707	43.73
546.904	43.87
547.101	43.93
547.298	44.08
547.495	44.04
547.692	43.94
547.889	43.78
548.086	43.48
548.283	43.5
548.48	43.35
548.677	43.13
548.874	42.79
549.07	42.54
549.267	42.31
549.464	42.13
549.661	42.15
549.858	42.18
550.055	42.15
550.251	42.23
550.448	42.49
550.645	42.44
550.842	42.7
551.038	43.15
551.235	43.32
551.432	43.38
551.628	43.6
551.825	43.56
552.022	43.5
552.218	43.65
552.415	43.72
552.612	43.55
552.808	43.93
553.005	43.91
553.201	43.95
553.398	43.75
553.594	43.86
553.791	43.86
553.987	44.05
554.184	44.12
554.38	43.87
554.577	43.79
554.773	43.78
554.97	43.59
555.166	43.51
555.362	43.22
555.559	43.15
555.755	43.11
555.952	43.2
556.148	43.21
556.344	43.25
556.541	43.4
556.737	43.65
556.933	43.48
557.129	43.53
557.326	43.46
557.522	43.54
557.718	44.02
557.914	44.11
558.11	44.03
558.307	44.02
558.503	43.87
558.699	44.01
558.895	44.04
559.091	44.21
559.287	44.35
559.483	44.43
559.679	44.67
559.876	44.8
560.072	44.93
560.268	44.95
560.464	45.07
560.66	45.14
560.856	45.35
561.052	45.49
561.247	45.54
561.443	45.36
561.639	45.48
561.835	45.48
562.031	45.53
562.227	45.38
562.423	45.27
562.619	45.12
562.815	45.39
563.01	45.25
563.206	45.18
563.402	45.13
563.598	45.35
563.793	45.31
563.989	45.27
564.185	45.27
564.381	45.32
564.576	45.62
564.772	45.73
564.968	46
565.163	46.2
565.359	46.26
565.555	46.5
565.75	46.51
565.946	46.72
566.141	46.73
566.337	46.7
566.532	46.9
566.728	46.82
566.923	47.02
567.119	46.94
567.314	46.95
567.51	46.85
567.705	46.9
567.901	46.81
568.096	46.82
568.292	47.09
568.487	47.17
568.682	47.13
568.878	47.43
569.073	47.24
569.268	47.03
569.464	47.07
569.659	47.22
569.854	47.11
570.05	47.15
570.245	47.28
570.44	47.33
570.635	47.42
570.831	47.42
571.026	47.19
571.221	47.56
571.416	47.65
571.611	47.85
571.806	47.99
572.002	48.19
572.197	48.4
572.392	48.67
572.587	48.54
572.782	48.56
572.977	48.71
573.172	48.88
573.367	48.49
573.562	48.74
573.757	48.62
573.952	48.7
574.147	48.63
574.342	48.6
574.537	48.35
574.732	48.42
574.927	48.47
575.121	48.22
575.316	48.47
575.511	48.6
575.706	48.27
575.901	48.24
576.096	47.89
576.29	47.71
576.485	47.56
576.68	47.25
576.875	47.16
577.069	46.82
577.264	46.95
577.459	46.4
577.654	46.18
577.848	46.17
578.043	46.06
578.238	46.27
578.432	46.27
578.627	46.34
578.821	46.45
579.016	46.33
579.21	46.24
579.405	46.17
579.6	46.32
579.794	46.25
579.989	46.36
580.183	46.27
580.378	46.03
580.572	45.95
580.766	45.84
580.961	45.87
581.155	45.72
581.35	45.52
581.544	45.53
581.738	45.37
581.933	45.5
582.127	45.88
582.321	45.81
582.516	46.11
582.71	45.99
582.904	45.61
583.099	45.89
583.293	46.13
583.487	46.42
583.681	46.21
583.875	46.29
584.07	46.33
584.264	45.9
584.458	45.95
584.652	46.16
584.846	46.33
585.04	46.77
585.234	46.68
585.428	46.87
585.623	47.02
585.817	47.19
586.011	47.28
586.205	47.61
586.399	47.82
586.593	48.02
586.787	47.86
586.981	48.32
587.174	48.83
587.368	48.62
587.562	48.64
587.756	48.84
587.95	49.31
588.144	49.85
588.338	50.22
588.532	50.96
588.725	51.21
588.919	51.3
589.113	51.17
589.307	51.2
589.501	51.76
589.694	51.86
589.888	52.11
590.082	51.98
590.275	51.78
590.469	51.46
590.663	51.05
590.856	51.13
591.05	51.11
591.244	51.2
591.437	51.13
591.631	50.83
591.824	50.99
592.018	51.02
592.212	51.06
592.405	51.27
592.599	51.27
592.792	51.31
592.986	51.02
593.179	51.32
593.372	51.53
593.566	51.89
593.759	52.04
593.953	52.19
594.146	52.44
594.339	52.47
594.533	52.66
594.726	53.22
594.92	53.1
595.113	53.59
595.306	54.1
595.499	54.16
595.693	54.22
595.886	54.51
596.079	54.57
596.272	54.41
596.466	54.93
596.659	55.05
596.852	54.63
597.045	54.76
597.238	54.59
597.431	54.35
597.624	54.51
597.818	54.31
598.011	54.14
598.204	54.01
598.397	54.34
598.59	53.94
598.783	53.52
598.976	53.74
599.169	53.71
599.362	53.65
599.555	53.38
599.748	53.24
599.941	53.11
600.134	52.75
600.326	52.78
600.519	52.49
600.712	52.48
600.905	52.47
601.098	52.55
601.291	52.63
601.483	52.77
601.676	53.15
601.869	53.05
602.062	53.2
602.255	53.66
602.447	53.68
602.64	53.91
602.833	54.11
603.025	54.59
603.218	54.72
603.411	54.94
603.603	54.93
603.796	54.98
603.989	55.4
604.181	55.51
604.374	55.49
604.566	55.68
604.759	55.55
604.951	55.63
605.144	55.53
605.336	55.51
605.529	55.41
605.721	55.47
605.914	55.19
606.106	54.83
606.299	54.4
606.491	54.55
606.683	54.39
606.876	54.35
607.068	54.31
607.26	54.14
607.453	54.18
607.645	54.07
607.837	54.31
608.03	54.47
608.222	54.72
608.414	55.04
608.606	54.96
608.799	54.95
608.991	54.8
609.183	54.69
609.375	54.69
609.567	54.3
609.759	54.33
609.952	53.89
610.144	53.45
610.336	53.09
610.528	52.98
610.72	52.55
610.912	52.25
611.104	52.11
611.296	51.48
611.488	51.3
611.68	51.22
611.872	50.82
612.064	51.04
612.256	51.33
612.448	51.1
612.64	50.94
612.832	50.98
613.023	51.12
613.215	51.28
613.407	52
613.599	51.79
613.791	51.98
613.983	52.51
614.174	52.74
614.366	52.82
614.558	53.13
614.75	53.33
614.941	53.53
615.133	53.67
615.325	53.53
615.516	53.66
615.708	54.14
615.9	53.93
616.091	53.82
616.283	53.67
616.475	53.36
616.666	53.33
616.858	53.84
617.049	53.93
617.241	54.07
617.432	54.33
617.624	54.33
617.815	54.12
618.007	54.4
618.198	54.64
618.39	54.83
618.581	54.94
618.773	55.02
618.964	54.9
619.155	54.6
619.347	54.15
619.538	53.96
619.729	53.59
619.921	53.49
620.112	53.15
620.303	53.04
620.494	53.03
620.686	53.19
620.877	52.99
621.068	52.64
621.259	53.13
621.451	53.13
621.642	53.29
621.833	53.54
622.024	54.22
622.215	54.48
622.406	54.37
622.597	53.46
622.788	53.19
622.98	53.4
623.171	53.5
623.362	53.45
623.553	53.97
623.744	53.92
623.935	53.89
624.126	53.39
624.317	53.8
624.508	54.13
624.698	54.97
624.889	55.13
625.08	55.28
625.271	55.43
625.462	55.44
625.653	55.44
625.844	55.71
626.034	55.8
626.225	56.33
626.416	56.31
626.607	56.24
626.798	56.29
626.988	56.95
627.179	57.28
627.37	57.28
627.56	57.18
627.751	57.16
627.942	57.01
628.132	57.07
628.323	56.93
628.514	57.08
628.704	56.88
628.895	57.04
629.085	56.39
629.276	55.92
629.466	55.73
629.657	56.05
629.847	55.56
630.038	55.63
630.228	55.44
630.419	55.43
630.609	55.18
630.8	54.92
630.99	54.53
631.181	54.68
631.371	55.01
631.561	55.04
631.752	54.79
631.942	55.45
632.132	55.52
632.323	55.63
632.513	55.52
632.703	55.29
632.893	55.85
633.084	56.1
633.274	56.32
633.464	55.99
633.654	56.03
633.844	56.18
634.034	56.21
634.225	56.58
634.415	56.78
634.605	56.7
634.795	57.12
634.985	57.09
635.175	56.59
635.365	56.69
635.555	56.44
635.745	56.68
635.935	56.64
636.125	56.33
636.315	55.6
636.505	55.31
636.695	55.37
636.885	55.24
637.075	54.98
637.265	55.02
637.455	54.86
637.644	54.96
637.834	54.72
638.024	54.58
638.214	54.53
638.404	54.9
638.593	54.57
638.783	54.55
638.973	54.57
639.163	54.37
639.352	54.65
639.542	54.51
639.732	55.03
639.921	54.89
640.111	54.99
640.301	55.29
640.49	55.42
640.68	55.66
640.87	55.36
641.059	55.67
641.249	56.32
641.438	56.17
641.628	56.31
641.817	56.07
642.007	56.12
642.196	55.94
642.386	55.55
642.575	55.46
642.764	55.88
642.954	55.91
643.143	55.28
643.333	54.68
643.522	54.95
643.711	54.45
643.901	54.27
644.09	54.47
644.279	54.51
644.469	54.49
644.658	54.17
644.847	54.26
645.036	54.49
645.226	54.76
645.415	55.23
645.604	54.57
645.793	54.96
645.982	55.11
646.171	55.11
646.361	55.61
646.55	55.91
646.739	55.87
646.928	55.48
647.117	55.44
647.306	55.45
647.495	55.2
647.684	55.84
647.873	55.37
648.062	55.63
648.251	55.49
648.44	55.65
648.629	55.89
648.818	56.26
649.007	56.59
649.196	56.75
649.384	56.61
649.573	57.03
649.762	56.73
649.951	56.99
650.14	57
650.328	57.3
650.517	56.86
650.706	56.54
650.895	56.05
651.083	55.69
651.272	55.52
651.461	55.89
651.65	55.93
651.838	56.19
652.027	56.15
652.216	56.02
652.404	55.97
652.593	56.12
652.781	55.94
652.97	56.01
653.158	55.87
653.347	55.72
653.535	55.56
653.724	54.97
653.912	55.17
654.101	55.68
654.289	55.37
654.478	55.58
654.666	55.48
654.855	55.68
655.043	55.98
655.231	56.08
655.42	55.65
655.608	55.61
655.796	56.41
655.985	56.08
656.173	56.05
656.361	56.85
656.55	56.74
656.738	56.41
656.926	56.5
657.114	56.62
657.302	57.38
657.491	57.89
657.679	57.82
657.867	57.34
658.055	57.54
658.243	57.41
658.431	57.25
658.619	57.04
658.807	57.73
658.996	58.12
659.184	58.14
659.372	57.75
659.56	57.85
659.748	58.08
659.936	58.17
660.124	58.64
660.311	58.6
660.499	58.39
660.687	59.01
660.875	58.25
661.063	57.53
661.251	57.66
661.439	58
661.627	58
661.814	57.68
662.002	57.87
662.19	57.16
662.378	56.74
662.565	56.27
662.753	55.33
662.941	55.86
663.129	56.18
663.316	56.54
663.504	55.64
663.692	55.69
663.879	55.83
664.067	55.99
664.254	56.19
664.442	56.47
664.63	56.73
664.817	56.86
665.005	56.46
665.192	56.47
665.38	56.06
665.567	56.52
665.755	56.19
665.942	56.04
666.13	55.65
666.317	55.38
666.504	55.46
666.692	55.07
666.879	56.31
667.067	57
667.254	57.21
667.441	56.88
667.629	57.15
667.816	57.39
668.003	57.54
668.19	57.44
668.378	57.31
668.565	57.19
668.752	57.9
668.939	57
669.127	56.75
669.314	56.64
669.501	56.84
669.688	56.9
669.875	57.07
670.062	57.2
670.249	57.37
670.436	57.53
670.623	57.94
670.81	57.58
670.997	57.39
671.184	57.05
671.371	57.06
671.558	57.14
671.745	56.69
671.932	56.41
672.119	56.28
672.306	56.34
672.493	56.27
672.68	56.03
672.867	57.07
673.054	57.38
673.24	57.77
673.427	57.91
673.614	57.6
673.801	57.81
673.988	57.86
674.174	57.91
674.361	57.6
674.548	58.28
674.734	58.07
674.921	57.21
675.108	56.87
675.294	56.71
675.481	56.33
675.668	56.46
675.854	56.97
676.041	57.25
676.227	57.15
676.414	56.57
676.601	56.17
676.787	56.55
676.974	56.32
677.16	56.28
677.347	56.01
677.533	56.15
677.719	56.26
677.906	55.43
678.092	55.46
678.279	55.56
678.465	55.72
678.651	55.9
678.838	55.94
679.024	56.51
679.21	56.81
679.397	57.21
679.583	57.57
679.769	57.16
679.955	57.59
680.142	57.6
680.328	57.75
680.514	58.19
680.7	58.09
680.886	57.79
681.073	57.62
681.259	57.71
681.445	57.58
681.631	57.28
681.817	57.79
682.003	57.28
682.189	57.55
682.375	57.68
682.561	57.8
682.747	57.37
682.933	57.58
683.119	57.05
683.305	56.93
683.491	57.03
683.677	57.21
683.863	57.1
684.049	57.43
684.235	56.81
684.42	56.67
684.606	56.16
684.792	56.76
684.978	57.6
685.164	58.29
685.349	58.59
685.535	58.53
685.721	58.17
685.907	58.47
686.092	58.86
686.278	59.53
686.464	59.77
686.649	60.14
686.835	60.28
687.021	60.47
687.206	60.15
687.392	59.86
687.577	60.02
687.763	60.56
687.948	60.38
688.134	60.1
688.319	59.5
688.505	59.13
688.69	59.36
688.876	59.32
689.061	58.55
689.247	58.95
689.432	58.95
689.618	59.16
689.803	59.09
689.988	59.39
690.174	59.48
690.359	59.54
690.544	59.35
690.73	59.06
690.915	59.03
691.1	58.48
691.285	59.16
691.471	59.15
691.656	58.39
691.841	58.24
692.026	57.82
692.211	57.76
692.396	57.96
692.582	58.35
692.767	59.25
692.952	59.37
693.137	60.22
693.322	59.43
693.507	59.92
693.692	60.07
693.877	60.39
694.062	60.89
694.247	61.24
694.432	60.9
694.617	60.79
694.802	59.65
694.987	59.38
695.172	59.23
695.357	59.19
695.541	59.01
695.726	59.9
695.911	60.42
696.096	60.25
696.281	60.26
696.466	60.93
696.65	60.73
696.835	61.4
697.02	61.39
697.204	61.79
697.389	61.8
697.574	61.98
697.759	61.66
697.943	61.37
698.128	61.35
698.312	61.79
698.497	62.02
698.682	62.25
698.866	62.96
699.051	62.71
699.235	62.32
699.42	62.55
699.604	62.58
699.789	62.39
699.973	62.12
700.158	61.52
700.342	61.09
700.527	60.66
700.711	60.96
700.895	59.62
701.08	60.64
701.264	60.76
701.448	59.97
701.633	59.41
701.817	59.7
702.001	59.55
702.186	60.33
702.37	59.53
702.554	59.12
702.738	58.19
702.923	58.44
703.107	57.11
703.291	56.95
703.475	57.47
703.659	57.19
703.843	56.85
704.027	57.11
704.212	56.23
704.396	56.74
704.58	57.01
704.764	57.32
704.948	57.29
705.132	57.62
705.316	57.51
705.5	56.94
705.684	56.69
705.868	57.64
706.052	57.88
706.235	58.35
706.419	59.08
706.603	59.03
706.787	58.63
706.971	58.28
707.155	58.51
707.339	58.04
707.522	58.33
707.706	59.35
707.89	58.39
708.074	58.28
708.257	58.21
708.441	57.3
708.625	57.02
708.808	57.67
708.992	57.71
709.176	57.16
709.359	56.95
709.543	57.62
709.727	57.38
709.91	57.81
710.094	58.39
710.277	59.44
710.461	59.71
710.644	60.91
710.828	60.44
711.011	60.45
711.195	60.58
711.378	61.52
711.562	61.21
711.745	60.91
711.928	60.27
712.112	59.26
712.295	58.1
712.478	58.78
712.662	57.5
712.845	57.61
713.028	58.84
713.212	58.48
713.395	57.92
713.578	57.87
713.761	58.42
713.945	58.34
714.128	58.04
714.311	57.85
714.494	57.2
714.677	57.64
714.86	58.15
715.043	57.24
715.227	57.91
715.41	58.37
715.593	59.64
715.776	59.42
715.959	60.18
716.142	61.27
716.325	61.03
716.508	61.43
716.691	62.21
716.874	61.38
717.057	61.92
717.239	62.44
717.422	62.04
717.605	60.46
717.788	60.91
717.971	61.67
718.154	61.74
718.337	63.8
718.519	63.79
718.702	63.28
718.885	64.36
719.068	63.48
719.25	62.58
719.433	63.15
719.616	63.4
719.798	62.37
719.981	62.4
720.164	61.29
720.346	59.84
720.529	60.06
720.712	59.43
720.894	59.61
721.077	59.8
721.259	60.03
721.442	60.22
721.624	60.9
721.807	61.74
721.989	60.25
722.172	60.15
722.354	60.55
722.537	61.3
722.719	61.64
722.901	61.75
723.084	62.66
723.266	62.81
723.448	63.19
723.631	63.49
723.813	62.94
723.995	63.95
724.178	65.22
724.36	65.82
724.542	64.3
724.724	64.31
724.907	63.22
725.089	63.89
725.271	64.21
725.453	64.16
725.635	62.67
725.817	63.76
725.999	62.19
726.181	61.3
726.364	60.48
726.546	60.13
726.728	60.45
726.91	60.65
727.092	59.41
727.274	59.42
727.456	58.82
727.638	60.91
727.819	60.68
728.001	61.59
728.183	61.45
728.365	61.97
728.547	61.78
728.729	61.02
728.911	62.36
729.093	62
729.274	61.79
729.456	62.18
729.638	60.05
729.82	59.8
730.001	61.16
730.183	61.4
730.365	61.38
730.546	62.34
730.728	63.45
730.91	62.3
731.091	62.96
731.273	62.91
731.455	62.39
731.636	62.38
731.818	62.28
731.999	61.51
732.181	61.76
732.362	60.77
732.544	61.23
732.725	60.48
732.907	60.26
733.088	59.97
733.27	58.9
733.451	58.63
733.633	59.69
733.814	58.9
733.995	58.44
734.177	59.47
734.358	59.91
734.539	58.61
734.721	58.16
734.902	56.69
735.083	57.41
735.264	58.33
735.446	57.13
735.627	55.8
735.808	55.41
735.989	54.21
736.17	53.44
736.351	53.55
736.533	54.61
736.714	53.74
736.895	55.14
737.076	54.65
737.257	54.78
737.438	56.85
737.619	57.81
737.8	58.62
737.981	60.2
738.162	60.2
738.343	58.94
738.524	57.65
738.705	59.3
738.886	61.3
739.067	59.69
739.247	60.33
739.428	58.87
739.609	57.3
739.79	57.12
739.971	57.39
740.151	56.22
740.332	57.72
740.513	57.5
740.694	57.71
740.874	56.02
741.055	56.1
741.236	56.5
741.417	57.36
741.597	59.51
741.778	60.93
741.958	61.15
742.139	62.04
742.32	62.88
742.5	64.02
742.681	63.49
742.861	62.84
743.042	63.21
743.222	61.41
743.403	62.42
743.583	60.98
743.764	60.22
743.944	60.48
744.124	60.69
744.305	59.54
744.485	59.46
744.666	58.16
744.846	59.24
745.026	60.83
745.207	60.95
745.387	58.54
745.567	59.4
745.747	59.36
745.928	57.89
746.108	57.5
746.288	57.56
746.468	59.68
746.648	61.27
746.829	60.34
747.009	59.08
747.189	59
747.369	59.36
747.549	58.25
747.729	57.02
747.909	58.07
748.089	58.51
748.269	58.43
748.449	57.87
748.629	57.35
748.809	57.31
748.989	56.95
749.169	57.73
749.349	58.49
749.529	57.86
749.709	59.37
749.889	58.06
750.068	57.46
750.248	58.12
750.428	55.14
750.608	55.72
750.788	55.95
750.967	56.33
751.147	56.25
751.327	55.67
751.507	57.31
751.686	57.24
751.866	57.5
752.046	57.68
752.225	57.04
752.405	58.11
752.585	57.51
752.764	57.98
752.944	58.19
753.123	58.4
753.303	59.14
753.482	60.01
753.662	59.75
753.841	58.36
754.021	58.26
754.2	59.88
754.38	61.34
754.559	61.07
754.739	60.82
754.918	61.32
755.097	60.84
755.277	61.41
755.456	60.48
755.635	59.42
755.815	58.42
755.994	58.29
756.173	55.94
756.352	54.85
756.532	54.89
756.711	55.35
756.89	55.44
757.069	55.47
757.248	55.11
757.427	54.58
757.607	56.51
757.786	57.89
757.965	58.59
758.144	59.13
758.323	58.05
758.502	59.15
758.681	58.55
758.86	57.16
759.039	56.89
759.218	56.44
759.397	56.89
759.576	56.83
759.755	56.71
759.934	55.94
760.113	55.99
760.291	57.74
760.47	57.33
760.649	58.18
760.828	59.54
761.007	59.25
761.186	59.42
761.364	59.42
761.543	59.21
761.722	61.31
761.901	62.63
762.079	62.64
762.258	60.92
762.437	61.74
762.615	61.44
762.794	61.51
762.972	62.17
763.151	62.47
763.33	63.11
763.508	62.86
763.687	62.52
763.865	63.08
764.044	63.54
764.222	64.42
764.401	63.93
764.579	62.75
764.758	62.43
764.936	63.05
765.114	63.19
765.293	62.66
765.471	62.59
765.65	61.96
765.828	60.69
766.006	60.38
766.184	59.98
766.363	60.43
766.541	62.4
766.719	61.81
766.898	61.49
767.076	60.81
767.254	59.38
767.432	59.21
767.61	59.99
767.788	59.21
767.967	57.62
768.145	57.99
768.323	58.05
768.501	56.52
768.679	57
768.857	56.42
769.035	57.17
769.213	57.87
769.391	57.27
769.569	56.18
769.747	55.8
769.925	57.7
770.103	55.75
770.281	56.47
770.459	58.11
770.636	59.11
770.814	58.12
770.992	57.66
771.17	60.52
771.348	60.09
771.525	59.17
771.703	60.6
771.881	58.93
772.059	60.73
772.236	57.91
772.414	55.49
772.592	55.04
772.769	57.54
772.947	57
773.125	53.6
773.302	53.48
773.48	55.03
773.657	54.66
773.835	54.92
774.013	56.56
774.19	57.2
774.368	58.45
774.545	56.28
774.723	53.74
774.9	53.49
775.077	54.14
775.255	54.82
775.432	53.88
775.61	51.91
775.787	52.2
775.964	50.09
776.142	51.68
776.319	52.89
776.496	53.7
776.674	53.86
776.851	55.28
777.028	55.41
777.205	56.09
777.382	57.17
777.56	59.1
777.737	57.96
777.914	58.32
778.091	57.65
778.268	58.8
778.445	60.74
778.622	61.14
778.8	60.72
778.977	62.89
779.154	61.88
779.331	61.08
779.508	60.93
779.685	61.23
779.862	61.58
780.038	62.46
780.215	60.25
780.392	56.66
780.569	54.93
780.746	54.39
780.923	51.46
781.1	49.32
781.277	50.71
781.453	51.28
781.63	52.78
781.807	54.01
781.984	53.74
782.16	53.87
782.337	59.57
782.514	64.48
782.691	63.35
782.867	65.7
783.044	68.69
783.221	69.68
783.397	68.26
783.574	69.38
783.75	69.53
783.927	69.27
784.103	67.75
784.28	65.06
784.456	62.88
784.633	62.8
784.809	60.5
784.986	58.6
785.162	57.43
785.339	59.35
785.515	58.55
785.692	57.43
785.868	54.57
786.044	57.26
786.221	55.63
786.397	53.95
786.573	54.07
786.749	55.24
786.926	56.01
787.102	56.91
787.278	59
787.454	58.23
787.631	56.16
787.807	57.43
787.983	59.05
788.159	60.67
788.335	60.72
788.511	62.36
788.687	63.72
788.863	64.06
789.039	60.01
789.216	57.86
789.392	59.68
789.568	61.84
789.744	64.37
789.919	61.6
790.095	59.98
790.271	59.78
790.447	59.46
790.623	57.18
790.799	56.29
790.975	57.32
791.151	54.76
791.327	55.92
791.502	53.35
791.678	48.26
791.854	47.3
792.03	51.95
792.205	54.63
792.381	54.38
792.557	55.55
792.733	59.01
792.908	62.56
793.084	66.85
793.259	62.69
793.435	66.82
793.611	68.49
793.786	70.25
793.962	67.18
794.137	64.02
794.313	63.93
794.488	63.22
794.664	61.89
794.839	59.71
795.015	59.71
795.19	60.17
795.366	56.78
795.541	51.29
795.716	52.15
795.892	50.96
796.067	52.64
796.242	53.01
796.418	54.46
796.593	57.28
796.768	54.98
796.944	53.15
797.119	52.48
797.294	51.9
797.469	57.68
797.644	53.89
797.82	55.13
797.995	56.4
798.17	54.89
798.345	54.16
798.52	52.04
798.695	54.13
798.87	53.96
799.045	54.34
799.22	55.16
799.395	57.18
799.57	59.76
799.745	59.77
799.92	57.03
800.095	60
800.27	57.3
800.445	57.64
800.62	57.04
800.795	52.51
800.97	52.02
801.145	53.49
801.319	52.17
801.494	52.65
801.669	52.05
801.844	51.62
802.018	47.57
802.193	49.42
802.368	45.17
802.543	44.88
802.717	54.7
802.892	55.47
803.067	55.9
803.241	54.12
803.416	53.8
803.59	55.57
803.765	55.04
803.94	54.8
804.114	54.44
804.289	56.63
804.463	57.31
804.638	48.99
804.812	49.66
804.986	48.66
805.161	49.43
805.335	51.85
805.51	51.16
805.684	53.9
805.858	62.05
806.033	60.03
806.207	59.8
806.381	58.01
806.556	60.94
806.73	61.01
806.904	60.22
807.078	56.95
807.253	52.99
807.427	54.43
807.601	50.24
807.775	44.93
807.949	45.24
808.123	44.82
808.298	49.75
808.472	51.06
808.646	51.99
808.82	54.89
808.994	60.86
809.168	61.94
809.342	63.15
809.516	60.12
809.69	59.57
809.864	63.63
810.038	60.1
810.212	60.52
810.385	60.12
810.559	57.91
810.733	54.92
810.907	52.67
811.081	51.49
811.255	50.25
811.428	59.52
811.602	61.96
811.776	57.05
811.95	59.9
812.123	54.73
812.297	56.34
812.471	53.92
812.644	54.39
812.818	56.05
812.992	59.25
813.165	59.85
813.339	57.81
813.512	55.35
813.686	60.12
813.86	59.62
814.033	59.37
814.207	61.23
814.38	66.77
814.554	65.92
814.727	64.19
814.9	67.06
815.074	64.77
815.247	61.78
815.421	68.14
815.594	67.23
815.767	63.92
815.941	66.71
816.114	69.5
816.287	70
816.46	71.71
816.634	64.46
816.807	64.38
816.98	60.98
817.153	61.61
817.327	52.76
817.5	53.48
817.673	54.41
817.846	52.38
818.019	49.69
818.192	52.44
818.365	52.51
818.538	61.39
818.711	55.58
818.884	56.7
819.057	55.75
819.23	59.88
819.403	58.55
819.576	61.32
819.749	63.21
819.922	63.18
820.095	59.14
820.268	56.86
820.441	54.27
820.614	55.52
820.786	57.59
820.959	57.38
821.132	57.5
821.305	59.94
821.477	60.6
821.65	60.47
821.823	59.09
821.996	59.49
822.168	61.28
822.341	61.93
822.514	62.58
822.686	62.26
822.859	63.4
823.031	64.11
823.204	63.13
823.376	62.71
823.549	62.77
823.722	63.72
823.894	63.12
824.067	62.08
824.239	62.44
824.411	61.93
824.584	61.3
824.756	60.63
824.929	59.27
825.101	59.64
825.273	58.83
825.446	59.66
825.618	57.2
825.79	58.26
825.963	58.97
826.135	57.54
826.307	57.25
826.479	57.31
826.652	57.35
826.824	57.47
826.996	56.59
827.168	57.46
827.34	57.49
827.512	60.95
827.684	59.9
827.856	58.9
828.029	60.07
828.201	60.25
828.373	60.79
828.545	59.83
828.717	60.64
828.889	60.92
829.061	60.03
829.232	58.79
829.404	54.74
829.576	57.07
829.748	59.8
829.92	57.39
830.092	59.4
830.264	58.34
830.436	56.26
830.607	53.88
830.779	55.34
830.951	58.53
831.123	56.69
831.294	59
831.466	54.04
831.638	51.5
831.809	55.07
831.981	52.21
832.153	56.72
832.324	60.11
832.496	60.97
832.667	65.19
832.839	56.87
833.011	55.51
833.182	54.78
833.354	58.6
833.525	53.7
833.697	48.83
833.868	52.09
834.039	49.64
834.211	48.93
834.382	50.48
834.554	48.74
834.725	52.8
834.896	55.1
835.068	54.46
835.239	54.74
835.41	58.32
835.581	61.88
835.753	60.73
835.924	59.93
836.095	63.67
836.266	64.33
836.438	63.83
836.609	60.22
836.78	57.06
836.951	58.25
837.122	61.25
837.293	63.56
837.464	58.29
837.635	57.21
837.806	56.58
837.977	51.12
838.148	46.23
838.319	45.77
838.49	50.23
838.661	55.61
838.832	55.93
839.003	50.35
839.174	47.35
839.345	57.5
839.516	56.59
839.687	53.95
839.857	54.12
840.028	61.4
840.199	58.85
840.37	58.46
840.54	53.37
840.711	52.94
840.882	52.2
841.053	52.14
841.223	45.91
841.394	53.92
841.564	63.09
841.735	70.86
841.906	64.8
842.076	61.08
842.247	67.04
842.417	77.55
842.588	77.94
842.758	84.09
842.929	71.24
843.099	85.89
843.27	75.51
843.44	71.79
843.611	55.79
843.781	59.86
843.951	76.03
844.122	67.11
844.292	44.48
844.462	51.33
844.633	49.04
844.803	50.78
844.973	44.85
845.144	54.26
845.314	50.64
845.484	71.03
845.654	78.53
845.824	70.44
845.995	52.03
846.165	52.65
846.335	53.94
846.505	50.63
846.675	62.67
846.845	59.39
847.015	58.03
847.185	49.32
847.355	44.98
847.525	38.79
847.695	21.26
847.865	51.96
848.035	82.18
848.205	89.09
848.375	79.37
848.545	97.43
848.715	97.48
848.884	69.92
849.054	77.85
849.224	68.43
849.394	69.99
849.564	77.16
849.733	62.2
849.903	38.58
850.073	21.52
850.243	20.04
850.412	-44.06
850.582	-14.01
850.752	6.48
850.921	-0.68
851.091	23.42
851.26	13
851.43	16.28
851.599	27.47
851.769	29.17
851.939	42.27
852.108	52.82
852.278	64.96
852.447	78.15
852.616	76.91
852.786	86.41
852.955	88.35
853.125	81.59
853.294	93.94
853.463	36.39
853.633	20.15
853.802	3.17
853.971	-5.91
854.141	-9.7
854.31	-32.4
854.479	-59.87
854.648	-25.4
854.818	-12.2
854.987	-6.48
855.156	6.01
855.325	28.37
855.494	31.65
855.663	24.43
855.832	29.97
856.001	20.71
856.171	28.6
856.34	38.95
856.509	22.44
856.678	4.61
856.847	12.57
857.016	14.38
857.185	0.55
857.353	-4.87
857.522	14.79
857.691	8.9
857.86	39.85
858.029	39.85
858.198	46.44
858.367	33.58
858.535	33.13
858.704	55.55
858.873	61.24
859.042	68.6
859.21	79.98
859.379	88.8
859.548	85.79
859.717	84.96
859.885	89.64
860.054	86.83
860.222	111.75
860.391	91.1
860.56	93.82
860.728	79.09
860.897	67.92
861.065	76.46
861.234	53.31
861.402	49.15
861.571	45.4
861.739	48.61
861.908	56.04
862.076	74.13
862.244	96.5
862.413	89.13
862.581	83.31
862.749	109.9
862.918	119.25
863.086	124.87
863.254	158.2
863.423	242.09
863.591	168.82
863.759	97.45
863.927	62.04
864.096	75.91
864.264	52.03
864.432	103.61
864.6	116.51
864.768	94.09
864.936	76.05
865.104	115.99
865.272	124.86
865.44	179.46
865.608	336.85
865.776	802.11
865.944	284.89
866.112	6348.78
866.28	360.54
866.448	1068.97
866.616	123.91
866.784	283.75
866.952	178.26
867.12	64.33
867.288	51.92
867.455	66.85
867.623	49.88
867.791	68.1
867.959	30.49
868.127	28.28
868.294	36.17
868.462	47.77
868.63	32.79
868.797	36.95
868.965	78.91
869.133	115.64
869.3	84.01
869.468	69.52
869.636	59.39
869.803	86.03
869.971	75.78
870.138	75.6
870.306	64.59
870.473	71.37
870.641	70.62
870.808	42.29
870.975	24.68
871.143	52.75
871.31	42.42
871.478	29.55
871.645	20.52
871.812	12.65
871.98	23.57
872.147	32.3
872.314	45.83
872.482	33.05
872.649	28.92
872.816	39.71
872.983	22.92
873.15	25.29
873.318	29.68
873.485	39.72
873.652	39.25
873.819	28.9
873.986	34.14
874.153	16.38
874.32	21.69
874.487	22.67
874.654	-16.22
874.821	6.94
874.988	-19.47
875.155	-5.76
875.322	-129
875.489	96.01
875.656	36.12
875.823	-135.51
875.99	55.12
876.157	40.06
876.324	-21.46
876.49	504.77
876.657	124.61
876.824	118.38
876.991	162.69
877.157	136.83
877.324	117.16
877.491	94.12
877.658	99.61
877.824	91.98
877.991	105.46
878.157	102.55
878.324	91.14
878.491	163.88
878.657	139.67
878.824	168.31
878.99	114.96
879.157	102.76
879.323	116.48
879.49	107.09
879.656	104.94
879.823	102.49
879.989	107.4
880.156	99.13
880.322	95.9
880.488	92.31
880.655	74.35
880.821	86.48
880.987	80.69
881.154	80.07
881.32	82.98
881.486	71.41
881.652	67.46
881.819	69.16
881.985	73.77
882.151	59.92
882.317	56.6
882.483	59.53
882.649	61.67
882.816	62.28
882.982	60.32
883.148	55.3
883.314	55.71
883.48	54.34
883.646	55.52
883.812	56.33
883.978	61.08
884.144	64.63
884.31	64.13
884.476	57.52
884.642	58.47
884.807	57.8
884.973	64.25
885.139	66.41
885.305	67.99
885.471	65.98
885.637	65.43
885.802	64.58
885.968	60.64
886.134	62.62
886.3	65.4
886.465	66.09
886.631	74.66
886.797	74.73
886.962	74.33
887.128	59.42
887.293	67.65
887.459	78.64
887.625	90.58
887.79	109.41
887.956	110.2
888.121	130.4
888.287	159.31
888.452	161.08
888.618	140.75
888.783	141.67
