Data from 2937867_Reflection_2.txt Node
Date: Wed Jul 15 15:07:27 EDT 2015
User: robert
Spectrometer: USB4E03001
Autoset integration time: false
Trigger mode: 4
Integration Time (sec): 1.000000E-1
Scans to average: 10
Electric dark correction enabled: true
Nonlinearity correction enabled: false
Boxcar width: 5
Stray light correction enabled: false
XAxis mode: Wavelengths
Stop averaging: false
Number of Pixels in Spectrum: 3648
>>>>>Begin Spectral Data<<<<<
177.566	850.58
177.785	532.6
178.005	-1098.53
178.225	-192.9
178.445	-126.97
178.665	-268.06
178.885	-48.74
179.105	308.18
179.324	-52.45
179.544	12.88
179.764	39.54
179.984	45.15
180.204	52.65
180.423	26.93
180.643	15.01
180.863	-23.15
181.083	-18.14
181.302	-50.28
181.522	11.87
181.742	158
181.961	498.46
182.181	532.81
182.401	-269.69
182.621	-64.23
182.84	-88
183.06	-54.08
183.279	-100.87
183.499	-118.28
183.719	-76.33
183.938	-37.96
184.158	38.59
184.377	27.27
184.597	29.93
184.816	63.8
185.036	157.24
185.256	142.66
185.475	131.28
185.695	-785.17
185.914	-200.83
186.134	-36.85
186.353	-50.26
186.572	28.84
186.792	18.49
187.011	16.79
187.231	31.07
187.45	31
187.67	19.16
187.889	19.3
188.108	60.89
188.328	64.91
188.547	101.06
188.766	324.88
188.986	216.8
189.205	242.41
189.424	138.3
189.644	126.53
189.863	337.79
190.082	183.68
190.302	-3914.29
190.521	-353.15
190.74	38.03
190.959	38.55
191.178	67.27
191.398	-3.56
191.617	31.47
191.836	14.81
192.055	-9.33
192.274	15.02
192.494	-25.92
192.713	-98.14
192.932	-72.53
193.151	-139.93
193.37	-65.24
193.589	-593.99
193.808	-1028.92
194.027	128.62
194.246	54.69
194.465	60.32
194.685	60.73
194.904	55.18
195.123	72.22
195.342	58.15
195.561	65.68
195.78	41.74
195.999	40.22
196.218	47.62
196.436	61.24
196.655	69.11
196.874	45.34
197.093	46.85
197.312	63.07
197.531	23.58
197.75	17.81
197.969	1.54
198.188	45.25
198.407	47.67
198.625	33.57
198.844	-40.22
199.063	-26.16
199.282	-245.88
199.501	-27.96
199.719	5.38
199.938	-6.3
200.157	18.34
200.376	21.28
200.594	-36.02
200.813	-149.22
201.032	-458.46
201.251	-385.71
201.469	-67.8
201.688	107.26
201.907	124.66
202.125	135.95
202.344	219.86
202.563	135.03
202.781	151.82
203	182.06
203.218	328.97
203.437	272.2
203.656	1822.95
203.874	-1244.99
204.093	-315.01
204.311	-140.07
204.53	-96.15
204.748	-97.19
204.967	-105.49
205.185	-112.92
205.404	-106.42
205.622	-117.31
205.841	-177.19
206.059	-584.24
206.278	12129.69
206.496	2163.64
206.715	1141.73
206.933	6236.89
207.151	1588.59
207.37	407.08
207.588	375.85
207.806	237.96
208.025	79.86
208.243	900.96
208.461	538.11
208.68	200.46
208.898	488.71
209.116	112.81
209.335	88.35
209.553	82.65
209.771	1139.06
209.989	219.44
210.208	264.65
210.426	3310
210.644	-514.08
210.862	1158.78
211.081	325.37
211.299	-1324.12
211.517	-147.14
211.735	63.9
211.953	75.16
212.171	75.52
212.39	104.72
212.608	293.3
212.826	218.05
213.044	106.94
213.262	125.91
213.48	98.56
213.698	128.02
213.916	44.53
214.134	83.22
214.352	172.85
214.57	106.78
214.788	96.4
215.006	180.89
215.224	86.53
215.442	60.21
215.66	98.27
215.878	75.67
216.096	125.3
216.314	107.46
216.532	112.67
216.75	63.04
216.968	79.71
217.185	109.25
217.403	138.01
217.621	426.98
217.839	448.4
218.057	193.6
218.275	-89.69
218.492	-441.28
218.71	-248.52
218.928	-92.73
219.146	-8.11
219.363	-3.37
219.581	51.61
219.799	83.01
220.017	90.86
220.234	99.94
220.452	118.51
220.67	159.78
220.887	112.78
221.105	140.8
221.323	386.37
221.54	-384.69
221.758	-34.41
221.976	14.16
222.193	50.16
222.411	44.24
222.629	34.18
222.846	43.63
223.064	64.9
223.281	28.32
223.499	78.01
223.716	117.31
223.934	147.14
224.151	276.87
224.369	179.17
224.586	213.94
224.804	288.92
225.021	933.72
225.239	560.42
225.456	176.79
225.674	206.83
225.891	181.46
226.108	140.43
226.326	71.13
226.543	-157.85
226.76	-108.71
226.978	-118.03
227.195	-31.12
227.413	-8.27
227.63	11.72
227.847	1.92
228.064	22.67
228.282	28.32
228.499	25.87
228.716	21.59
228.934	25.01
229.151	24.25
229.368	27.46
229.585	23.5
229.802	20.33
230.02	17.06
230.237	16.05
230.454	5.24
230.671	3.53
230.888	2.61
231.105	4.39
231.323	0.62
231.54	-4.8
231.757	-5.14
231.974	-2.22
232.191	4.78
232.408	12.3
232.625	8.97
232.842	17.51
233.059	15.03
233.276	8.25
233.493	6.13
233.71	17.14
233.927	26.04
234.144	32.91
234.361	33.89
234.578	38.4
234.795	34.67
235.012	38.29
235.229	41.78
235.446	43.4
235.663	47.72
235.879	53.43
236.096	56.02
236.313	58.15
236.53	61.14
236.747	63.33
236.964	60.74
237.181	61.99
237.397	65.53
237.614	67.42
237.831	70.29
238.048	69.67
238.264	65.73
238.481	59.02
238.698	46.74
238.915	36.18
239.131	35.58
239.348	33.42
239.565	35.29
239.781	32.1
239.998	25.84
240.215	26.15
240.431	20.33
240.648	20.01
240.865	20.73
241.081	20.29
241.298	17.47
241.514	13.7
241.731	15.12
241.947	18.58
242.164	18.24
242.38	18.37
242.597	16.55
242.814	17.73
243.03	18.51
243.246	17.45
243.463	17.73
243.679	21.99
243.896	22.99
244.112	19.91
244.329	19.61
244.545	20.89
244.762	23.47
244.978	22.96
245.194	25.63
245.411	24.31
245.627	26.7
245.843	26.61
246.06	22.75
246.276	23.22
246.492	23.51
246.709	22.49
246.925	21.73
247.141	21.6
247.357	21.85
247.574	21.35
247.79	20.97
248.006	20.08
248.222	19.01
248.439	18.34
248.655	16.93
248.871	16.98
249.087	16.54
249.303	15.51
249.519	12.87
249.736	13.44
249.952	13.03
250.168	13.44
250.384	13.93
250.6	13.79
250.816	16.07
251.032	20
251.248	20.35
251.464	20.79
251.68	22.17
251.896	21.25
252.112	19.03
252.328	18.13
252.544	17.78
252.76	18.12
252.976	19.17
253.192	18.38
253.408	17.73
253.624	19.84
253.84	19.94
254.056	17.39
254.272	18.92
254.487	18.4
254.703	20.69
254.919	25.48
255.135	22.76
255.351	25.48
255.567	23.69
255.782	20.97
255.998	17.53
256.214	14.97
256.43	16.32
256.646	18.65
256.861	15.32
257.077	9.3
257.293	4.25
257.508	3.63
257.724	0.28
257.94	2.87
258.155	0.99
258.371	0.92
258.587	5.39
258.802	8.47
259.018	9.33
259.234	12.46
259.449	13.84
259.665	13.98
259.88	14.59
260.096	15.35
260.312	16.66
260.527	17.63
260.743	18.6
260.958	17.11
261.174	15.9
261.389	15.45
261.605	13.97
261.82	13.01
262.036	13.44
262.251	13.41
262.466	13.52
262.682	10.98
262.897	10.76
263.113	9.8
263.328	12.01
263.543	15.3
263.759	14.53
263.974	15.65
264.189	15.82
264.405	13.89
264.62	15.22
264.835	13.01
265.051	13.54
265.266	14.47
265.481	12.7
265.696	12.9
265.912	9.67
266.127	11.34
266.342	11.73
266.557	12.86
266.773	13.13
266.988	13.38
267.203	13.01
267.418	12.99
267.633	13.46
267.848	15.36
268.064	13.82
268.279	13.68
268.494	12.31
268.709	12.83
268.924	13.19
269.139	13.24
269.354	10.23
269.569	11.41
269.784	11.13
269.999	10.61
270.214	9.7
270.429	11.2
270.644	13.38
270.859	13.47
271.074	14.89
271.289	16.23
271.504	15.69
271.719	16.43
271.934	16.34
272.149	14.45
272.363	14.53
272.578	15.28
272.793	13.35
273.008	12.6
273.223	12.41
273.438	10.79
273.653	8.01
273.867	9.39
274.082	10.92
274.297	10.44
274.512	11.91
274.726	10.61
274.941	8.7
275.156	9.46
275.371	7.15
275.585	7.67
275.8	6.66
276.015	7.65
276.229	5.01
276.444	3.26
276.659	1.37
276.873	1.11
277.088	2.42
277.302	2.87
277.517	4.09
277.732	7.68
277.946	9.02
278.161	10.36
278.375	10.94
278.59	13.64
278.804	12.91
279.019	14.2
279.233	14.75
279.448	15.11
279.662	14.79
279.877	14.25
280.091	13.04
280.306	13.03
280.52	11.35
280.735	12.37
280.949	8.73
281.163	9.31
281.378	10.99
281.592	10.17
281.806	10.69
282.021	10
282.235	9.22
282.449	8.69
282.664	9.48
282.878	8.73
283.092	9.17
283.307	11.58
283.521	10.78
283.735	10.8
283.949	12.63
284.164	11.48
284.378	12.16
284.592	13.02
284.806	12.04
285.02	10
285.234	12.29
285.449	9.81
285.663	9.59
285.877	10.39
286.091	8.8
286.305	9.32
286.519	8.4
286.733	8.85
286.947	8.63
287.161	10.2
287.375	11.74
287.589	12.44
287.803	14.29
288.017	15.1
288.231	12.71
288.445	15.08
288.659	13.4
288.873	14.25
289.087	14.65
289.301	14.74
289.515	14.66
289.729	13.86
289.943	13.54
290.157	12.46
290.371	12.38
290.584	15.66
290.798	14.35
291.012	13.8
291.226	15.48
291.44	14.04
291.654	13.91
291.867	13.06
292.081	14.78
292.295	11.2
292.509	12.16
292.722	10.83
292.936	10.73
293.15	11.42
293.364	14.11
293.577	12.79
293.791	14.28
294.005	14.06
294.218	14.33
294.432	14.24
294.645	18.05
294.859	18.15
295.073	18.46
295.286	17.22
295.5	17.51
295.713	15.61
295.927	16.63
296.14	15.68
296.354	15.62
296.568	15.76
296.781	14.22
296.994	14.57
297.208	14.08
297.421	14.09
297.635	13.41
297.848	13.96
298.062	14.52
298.275	15.64
298.489	14.82
298.702	15.84
298.915	16.3
299.129	17.25
299.342	15.64
299.555	16.36
299.769	16.6
299.982	19.84
300.195	18.19
300.409	19.17
300.622	16.93
300.835	16.63
301.048	14.26
301.262	14.45
301.475	13.93
301.688	13.68
301.901	13.92
302.115	13.61
302.328	12.07
302.541	13.02
302.754	11.03
302.967	11.27
303.18	13.98
303.393	16.46
303.607	13.43
303.82	14.94
304.033	15.79
304.246	16.06
304.459	18.29
304.672	17.49
304.885	17.83
305.098	21.12
305.311	20.99
305.524	20.93
305.737	18.98
305.95	21.42
306.163	22.11
306.376	22.89
306.589	20.44
306.802	19.32
307.015	19.23
307.228	17.55
307.44	15.42
307.653	15.5
307.866	15.65
308.079	17.24
308.292	16.09
308.505	13.64
308.718	12.69
308.93	16.58
309.143	16.32
309.356	16.3
309.569	15.96
309.781	16.89
309.994	17.42
310.207	17.51
310.42	18.55
310.632	20.94
310.845	20.5
311.058	20.22
311.27	17.34
311.483	14.97
311.696	14.78
311.908	15.62
312.121	13.77
312.333	14.31
312.546	14.13
312.759	13.94
312.971	12.86
313.184	12.67
313.396	12.4
313.609	13.16
313.821	14.26
314.034	14.45
314.246	12.82
314.459	14.67
314.671	12.2
314.884	12.01
315.096	11.76
315.309	9.68
315.521	11.46
315.733	10.97
315.946	11.02
316.158	13.79
316.371	13.47
316.583	12.97
316.795	11.13
317.008	10.84
317.22	12.41
317.432	10.43
317.644	12.13
317.857	10.78
318.069	10.58
318.281	9.96
318.494	11.14
318.706	12.96
318.918	15.51
319.13	15.13
319.342	15.49
319.555	13.05
319.767	11.32
319.979	9.74
320.191	10.95
320.403	14.28
320.615	15.51
320.827	14.62
321.039	13.08
321.252	11.91
321.464	14.57
321.676	16.26
321.888	15.26
322.1	18.28
322.312	17.96
322.524	17.42
322.736	13.21
322.948	15.03
323.16	14.07
323.372	14.45
323.584	13.11
323.796	12.39
324.007	11
324.219	14.05
324.431	15.98
324.643	17.77
324.855	18.53
325.067	19.85
325.279	18.03
325.491	17.84
325.702	18.79
325.914	21.58
326.126	22
326.338	21.7
326.55	21.11
326.761	19.45
326.973	18
327.185	17.6
327.396	17.24
327.608	17.87
327.82	17.1
328.032	16.05
328.243	14.7
328.455	13.3
328.666	14.21
328.878	14.04
329.09	13.89
329.301	16.06
329.513	17.56
329.725	18.4
329.936	19.21
330.148	20.02
330.359	20.75
330.571	19.29
330.782	18.54
330.994	18.45
331.205	18.24
331.417	17.64
331.628	16.64
331.84	17.14
332.051	18.4
332.262	19.26
332.474	19.35
332.685	18.16
332.897	20.71
333.108	22.24
333.319	20.83
333.531	20.73
333.742	21.57
333.953	19.66
334.165	17.9
334.376	16.93
334.587	14.21
334.799	15.54
335.01	15.42
335.221	15.76
335.432	15.62
335.644	17.42
335.855	17.54
336.066	16.83
336.277	19.05
336.488	18.85
336.7	18.22
336.911	20.86
337.122	19.72
337.333	18.76
337.544	17.47
337.755	18.63
337.966	18.27
338.177	19.13
338.388	19.25
338.599	19.17
338.811	17.87
339.022	18.52
339.233	16.91
339.444	17.93
339.655	18.76
339.866	20.22
340.076	19.57
340.287	19.56
340.498	18.74
340.709	18.61
340.92	18.43
341.131	20.58
341.342	20.84
341.553	21.22
341.764	21.89
341.975	21.88
342.185	20.81
342.396	20.18
342.607	20.35
342.818	19.96
343.029	19.55
343.239	18.99
343.45	17.47
343.661	17.68
343.872	17.27
344.082	16.53
344.293	17.54
344.504	17.91
344.714	19.27
344.925	19.31
345.136	19.14
345.346	20.26
345.557	20.55
345.768	22.17
345.978	23.16
346.189	23.08
346.399	22.79
346.61	22.85
346.821	23.46
347.031	22.42
347.242	22.07
347.452	21.59
347.663	20.07
347.873	19.92
348.084	18.83
348.294	18.06
348.504	16.65
348.715	16.69
348.925	15.64
349.136	14.94
349.346	14.61
349.557	14.21
349.767	15.22
349.977	16.77
350.188	16.8
350.398	16.64
350.608	15.82
350.819	15.72
351.029	16.2
351.239	16.27
351.449	14.98
351.66	15.18
351.87	14.85
352.08	14.71
352.29	14.84
352.501	13.71
352.711	13.38
352.921	14.74
353.131	16.42
353.341	15.28
353.552	16.06
353.762	16.08
353.972	15.85
354.182	16.83
354.392	17.62
354.602	17.28
354.812	17.78
355.022	18.32
355.232	17.89
355.442	17.59
355.652	18.68
355.862	18.21
356.072	19.13
356.282	19.57
356.492	19.53
356.702	19.09
356.912	18.98
357.122	19.36
357.332	19.26
357.542	18.76
357.752	18.73
357.962	17.93
358.171	19.58
358.381	18.97
358.591	19.38
358.801	18.88
359.011	19.54
359.221	19.99
359.43	19.7
359.64	20.34
359.85	19.93
360.06	20.09
360.269	20.48
360.479	18.9
360.689	19.45
360.899	18.46
361.108	18.78
361.318	17.53
361.528	17.28
361.737	17.94
361.947	17.56
362.156	17.79
362.366	17
362.576	16.96
362.785	17.85
362.995	17.58
363.204	16.86
363.414	16.91
363.623	18.31
363.833	17.03
364.042	17.22
364.252	16.73
364.461	16.44
364.671	17.39
364.88	17.24
365.09	16.44
365.299	16.51
365.509	16.93
365.718	16.96
365.927	14.86
366.137	16.49
366.346	14.44
366.555	14.47
366.765	15.21
366.974	14.37
367.183	13.59
367.393	13.82
367.602	14.27
367.811	15.81
368.021	15.53
368.23	16.91
368.439	16.27
368.648	17.64
368.857	18.9
369.067	18.65
369.276	18.94
369.485	19.4
369.694	19.24
369.903	18.17
370.112	16.96
370.321	16.28
370.531	17.35
370.74	16.84
370.949	16.75
371.158	16.39
371.367	16.7
371.576	17.65
371.785	18.27
371.994	18.75
372.203	19.64
372.412	20.25
372.621	21.03
372.83	19.86
373.039	20.41
373.248	20.08
373.457	19.5
373.666	19.32
373.874	18.39
374.083	17.88
374.292	17.32
374.501	16.67
374.71	16.02
374.919	15.69
375.128	15.75
375.336	15.63
375.545	15.51
375.754	15.24
375.963	14.43
376.171	14.82
376.38	15.03
376.589	14.34
376.798	14.93
377.006	15.29
377.215	15.13
377.424	14.8
377.632	14.89
377.841	14.64
378.05	14.4
378.258	14.77
378.467	14.13
378.675	13.16
378.884	13.45
379.093	12.7
379.301	12.16
379.51	11.61
379.718	11.48
379.927	11.06
380.135	12.07
380.344	11.86
380.552	10.85
380.761	11.34
380.969	11.31
381.177	11.23
381.386	11.31
381.594	11.1
381.803	10.84
382.011	10.71
382.219	10.92
382.428	10.54
382.636	10.95
382.845	11.58
383.053	11.16
383.261	11.07
383.469	10.95
383.678	10.79
383.886	11.26
384.094	12.07
384.302	12.39
384.511	12.58
384.719	11.95
384.927	11.85
385.135	12.3
385.343	12.58
385.552	12.42
385.76	12.69
385.968	12.23
386.176	12.13
386.384	11.75
386.592	11.14
386.8	11.12
387.008	11.1
387.216	11.12
387.424	10.92
387.633	10.35
387.841	10.41
388.049	10.27
388.257	10.67
388.465	11.23
388.672	11.58
388.88	11.89
389.088	11.42
389.296	11.62
389.504	11.82
389.712	11.58
389.92	11.77
390.128	11.87
390.336	11.76
390.544	11.73
390.751	11.33
390.959	10.48
391.167	10.44
391.375	10.3
391.583	10.14
391.79	10.35
391.998	10.37
392.206	10.35
392.414	10.47
392.621	10.08
392.829	10.19
393.037	10.16
393.244	10.58
393.452	10.44
393.66	10.72
393.867	10.99
394.075	10.54
394.283	10.51
394.49	10.68
394.698	10.9
394.905	11.07
395.113	11.16
395.32	10.75
395.528	10.77
395.735	10.85
395.943	10.82
396.15	10.76
396.358	10.65
396.565	10.39
396.773	10.28
396.98	9.84
397.188	10.15
397.395	9.86
397.602	10.12
397.81	10.12
398.017	10.09
398.225	10.14
398.432	9.82
398.639	10.01
398.847	10.16
399.054	9.79
399.261	9.7
399.468	9.36
399.676	9.3
399.883	9.48
400.09	9.52
400.297	9.29
400.505	9.2
400.712	9.6
400.919	9.53
401.126	9.83
401.333	10.06
401.54	10.09
401.748	10.19
401.955	10.37
402.162	10.19
402.369	10.08
402.576	10.46
402.783	10.45
402.99	10.06
403.197	10.02
403.404	10.03
403.611	10.25
403.818	10.3
404.025	10.29
404.232	10.58
404.439	10.52
404.646	10.68
404.853	10.73
405.06	10.75
405.267	10.61
405.474	10.6
405.681	10.43
405.887	10.05
406.094	9.86
406.301	9.95
406.508	9.39
406.715	9.44
406.922	9.04
407.128	8.65
407.335	8.32
407.542	8.48
407.749	8.24
407.955	8.13
408.162	7.95
408.369	7.97
408.575	8.41
408.782	8.61
408.989	8.59
409.195	8.88
409.402	8.7
409.609	8.91
409.815	9.28
410.022	9.8
410.228	9.96
410.435	10.1
410.642	10.28
410.848	9.6
411.055	9.6
411.261	9.63
411.468	9.55
411.674	9.83
411.881	9.57
412.087	9.32
412.294	8.66
412.5	8.5
412.706	9
412.913	8.83
413.119	9.08
413.326	8.51
413.532	8.32
413.738	8.2
413.945	8.47
414.151	8.68
414.357	8.39
414.564	8.84
414.77	8.72
414.976	8.35
415.182	8.79
415.389	8.73
415.595	9.26
415.801	9.18
416.007	9.35
416.214	9.05
416.42	8.88
416.626	9.15
416.832	9.17
417.038	9.27
417.244	9.37
417.45	9.05
417.657	8.79
417.863	8.95
418.069	9
418.275	8.83
418.481	8.87
418.687	9.02
418.893	9.15
419.099	9.06
419.305	9.01
419.511	8.89
419.717	8.95
419.923	9.11
420.129	9.03
420.335	9.24
420.541	9.13
420.746	9.08
420.952	9.07
421.158	8.95
421.364	9.04
421.57	9.1
421.776	9.28
421.982	9.18
422.187	9.21
422.393	9.14
422.599	9.05
422.805	9.39
423.01	9.58
423.216	9.45
423.422	9.38
423.628	9.25
423.833	9.29
424.039	9.12
424.245	9.33
424.45	9.25
424.656	9.16
424.862	9.07
425.067	8.96
425.273	8.74
425.478	8.91
425.684	8.98
425.889	8.93
426.095	8.85
426.301	8.83
426.506	8.63
426.712	8.54
426.917	8.63
427.123	8.56
427.328	8.51
427.533	8.65
427.739	8.71
427.944	8.58
428.15	8.69
428.355	8.59
428.561	8.83
428.766	8.72
428.971	8.91
429.177	9.04
429.382	8.99
429.587	8.88
429.793	8.96
429.998	8.75
430.203	8.73
430.408	8.51
430.614	8.51
430.819	8.56
431.024	8.9
431.229	8.79
431.434	8.59
431.64	8.66
431.845	8.88
432.05	8.8
432.255	8.7
432.46	8.63
432.665	8.53
432.87	8.64
433.076	8.37
433.281	8.17
433.486	8.34
433.691	8.31
433.896	8.32
434.101	7.98
434.306	7.82
434.511	7.9
434.716	7.87
434.921	8.12
435.126	8.1
435.331	8.14
435.535	8.22
435.74	8.11
435.945	8.21
436.15	8.14
436.355	8.19
436.56	8.45
436.765	8.52
436.97	8.77
437.174	8.81
437.379	8.77
437.584	8.73
437.789	8.62
437.993	8.63
438.198	8.57
438.403	8.83
438.608	8.95
438.812	8.9
439.017	8.81
439.222	8.77
439.426	8.72
439.631	8.78
439.836	8.84
440.04	8.73
440.245	8.94
440.45	9.06
440.654	8.7
440.859	8.79
441.063	8.69
441.268	8.73
441.472	8.74
441.677	8.69
441.881	8.53
442.086	8.56
442.29	8.77
442.495	8.43
442.699	8.46
442.904	8.77
443.108	8.62
443.312	8.52
443.517	8.49
443.721	8.55
443.925	8.66
444.13	8.83
444.334	8.55
444.538	8.5
444.743	8.57
444.947	8.55
445.151	8.31
445.356	8.27
445.56	8.3
445.764	8.43
445.968	8.24
446.173	8.19
446.377	8.14
446.581	8.2
446.785	8.12
446.989	8.13
447.193	7.99
447.398	8.01
447.602	8.14
447.806	8.14
448.01	8.06
448.214	7.97
448.418	7.98
448.622	8.11
448.826	8.03
449.03	8
449.234	7.9
449.438	7.86
449.642	7.74
449.846	7.46
450.05	7.48
450.254	7.17
450.458	7.29
450.662	7.38
450.866	7.16
451.069	7.47
451.273	7.6
451.477	7.86
451.681	8.16
451.885	8.35
452.089	8.63
452.292	8.48
452.496	8.78
452.7	8.9
452.904	8.75
453.107	8.68
453.311	8.64
453.515	8.7
453.719	8.44
453.922	8.26
454.126	8.24
454.33	8.35
454.533	8.37
454.737	8.4
454.94	8.44
455.144	8.43
455.348	8.42
455.551	8.19
455.755	8.07
455.958	8.19
456.162	8.31
456.365	8.3
456.569	8.01
456.772	8.25
456.976	8.13
457.179	8.02
457.383	7.82
457.586	7.85
457.79	8.03
457.993	7.93
458.196	7.91
458.4	7.8
458.603	7.74
458.807	7.86
459.01	7.68
459.213	7.76
459.417	7.73
459.62	7.84
459.823	7.78
460.026	7.7
460.23	7.83
460.433	7.77
460.636	7.73
460.839	7.88
461.042	7.85
461.246	8.11
461.449	8.07
461.652	8.1
461.855	8.14
462.058	8.31
462.261	8.48
462.464	8.25
462.668	8.15
462.871	8.41
463.074	8.34
463.277	8.32
463.48	8.03
463.683	8.1
463.886	8.04
464.089	7.99
464.292	7.8
464.495	7.72
464.698	8.11
464.901	8.34
465.104	8
465.306	8.01
465.509	8.08
465.712	8.13
465.915	8.01
466.118	8.01
466.321	8.03
466.524	8.24
466.726	8.14
466.929	7.93
467.132	7.93
467.335	7.98
467.538	7.81
467.74	7.77
467.943	7.7
468.146	7.68
468.348	7.59
468.551	7.57
468.754	7.49
468.956	7.46
469.159	7.56
469.362	7.51
469.564	7.66
469.767	7.67
469.969	7.67
470.172	7.57
470.375	7.69
470.577	7.93
470.78	7.86
470.982	7.73
471.185	7.82
471.387	7.97
471.59	8.23
471.792	8.27
471.995	8.54
472.197	8.36
472.399	8.34
472.602	8.32
472.804	8.3
473.007	8.35
473.209	8.72
473.411	8.76
473.614	8.5
473.816	8.22
474.018	8.03
474.22	8.01
474.423	8.04
474.625	8.35
474.827	8.14
475.03	8.01
475.232	8.03
475.434	7.88
475.636	7.84
475.838	7.92
476.04	8.03
476.243	8.23
476.445	8.14
476.647	8.14
476.849	8.05
477.051	7.95
477.253	7.85
477.455	7.97
477.657	7.77
477.859	7.95
478.061	7.98
478.263	7.85
478.465	7.64
478.667	7.53
478.869	7.68
479.071	7.63
479.273	7.81
479.475	7.96
479.677	7.94
479.879	8.04
480.081	7.88
480.283	7.83
480.485	7.89
480.686	8.09
480.888	8.23
481.09	8.25
481.292	8.21
481.494	8.12
481.695	8.17
481.897	8.16
482.099	8.23
482.301	8.26
482.502	8.26
482.704	8.34
482.906	8.27
483.107	8.21
483.309	8.11
483.511	8.08
483.712	8.08
483.914	8.13
484.115	8.13
484.317	8.1
484.519	8.06
484.72	8.07
484.922	8.04
485.123	8
485.325	8.08
485.526	8.19
485.728	8.29
485.929	8.44
486.131	8.39
486.332	8.41
486.534	8.45
486.735	8.6
486.936	8.56
487.138	8.56
487.339	8.58
487.541	8.56
487.742	8.56
487.943	8.54
488.144	8.44
488.346	8.44
488.547	8.4
488.748	8.4
488.95	8.28
489.151	8.29
489.352	8.35
489.553	8.42
489.755	8.43
489.956	8.35
490.157	8.35
490.358	8.35
490.559	8.3
490.76	8.34
490.961	8.35
491.163	8.44
491.364	8.47
491.565	8.43
491.766	8.4
491.967	8.38
492.168	8.45
492.369	8.41
492.57	8.4
492.771	8.51
492.972	8.46
493.173	8.46
493.374	8.32
493.575	8.35
493.776	8.33
493.976	8.36
494.177	8.33
494.378	8.3
494.579	8.3
494.78	8.46
494.981	8.32
495.182	8.31
495.382	8.22
495.583	8.26
495.784	8.17
495.985	8.26
496.185	8.28
496.386	8.31
496.587	8.32
496.788	8.27
496.988	8.02
497.189	8.1
497.39	8.12
497.59	8.14
497.791	8.27
497.992	8.33
498.192	8.21
498.393	8.19
498.593	8.29
498.794	8.29
498.994	8.44
499.195	8.75
499.395	8.72
499.596	8.84
499.796	8.83
499.997	8.87
500.197	9.06
500.398	9.11
500.598	8.91
500.799	8.84
500.999	8.74
501.199	8.66
501.4	8.74
501.6	8.68
501.801	8.58
502.001	8.58
502.201	8.43
502.402	8.13
502.602	8.21
502.802	8.49
503.002	8.41
503.203	8.33
503.403	8.31
503.603	8.19
503.803	8.09
504.003	8.16
504.204	8.18
504.404	8.31
504.604	8.32
504.804	8.26
505.004	8.13
505.204	8.12
505.404	8.13
505.604	8.16
505.804	8.01
506.005	7.99
506.205	8.02
506.405	7.99
506.605	7.94
506.805	8.09
507.005	7.97
507.204	7.98
507.404	8.06
507.604	8.18
507.804	8.19
508.004	8.24
508.204	8.32
508.404	8.2
508.604	8.3
508.804	8.23
509.003	8.19
509.203	8.35
509.403	8.37
509.603	8.48
509.803	8.42
510.002	8.41
510.202	8.3
510.402	8.47
510.602	8.49
510.801	8.6
511.001	8.6
511.201	8.67
511.4	8.65
511.6	8.66
511.8	8.49
511.999	8.56
512.199	8.63
512.398	8.7
512.598	8.55
512.797	8.69
512.997	8.65
513.197	8.73
513.396	8.56
513.596	8.72
513.795	8.91
513.994	8.89
514.194	9.07
514.393	9.03
514.593	9.1
514.792	9.33
514.992	9.29
515.191	9.2
515.39	9.16
515.59	9.34
515.789	9.26
515.988	9.26
516.188	9.44
516.387	9.31
516.586	9.29
516.786	9.45
516.985	9.37
517.184	9.34
517.383	9.37
517.582	9.36
517.782	9.32
517.981	9.26
518.18	9.21
518.379	9.05
518.578	9.03
518.777	9.07
518.976	8.92
519.176	8.95
519.375	8.94
519.574	8.89
519.773	8.94
519.972	9.06
520.171	9.04
520.37	8.9
520.569	9.04
520.768	9.09
520.967	9.1
521.166	9.16
521.365	9.1
521.564	9.25
521.762	9.36
521.961	9.4
522.16	9.29
522.359	9.12
522.558	9.29
522.757	9.42
522.956	9.36
523.154	9.34
523.353	9.45
523.552	9.34
523.751	9.32
523.949	9.25
524.148	9.37
524.347	9.38
524.546	9.56
524.744	9.63
524.943	9.63
525.142	9.78
525.34	9.84
525.539	9.82
525.737	10.02
525.936	9.98
526.135	10.04
526.333	10.02
526.532	10.18
526.73	10.17
526.929	10.17
527.127	10.07
527.326	9.97
527.524	9.96
527.723	9.96
527.921	9.91
528.12	9.95
528.318	9.95
528.516	9.9
528.715	9.79
528.913	9.85
529.112	9.82
529.31	9.85
529.508	9.89
529.707	9.87
529.905	9.85
530.103	9.86
530.301	9.91
530.5	9.91
530.698	9.95
530.896	9.91
531.094	9.81
531.293	9.82
531.491	9.8
531.689	9.84
531.887	10
532.085	9.93
532.283	9.97
532.481	9.99
532.68	10.04
532.878	10.12
533.076	10.25
533.274	10.29
533.472	10.33
533.67	10.39
533.868	10.39
534.066	10.36
534.264	10.59
534.462	10.56
534.66	10.56
534.858	10.58
535.056	10.51
535.253	10.49
535.451	10.63
535.649	10.71
535.847	10.71
536.045	10.81
536.243	10.79
536.441	10.65
536.638	10.72
536.836	10.56
537.034	10.54
537.232	10.66
537.43	10.73
537.627	10.76
537.825	10.53
538.023	10.62
538.22	10.57
538.418	10.66
538.616	10.76
538.813	10.82
539.011	11
539.209	11.07
539.406	11.13
539.604	11.08
539.801	11.13
539.999	11.4
540.196	11.52
540.394	11.51
540.591	11.51
540.789	11.61
540.986	11.74
541.184	11.86
541.381	11.89
541.579	11.97
541.776	12.04
541.974	12.02
542.171	12.04
542.368	12.01
542.566	12.1
542.763	12.06
542.96	11.99
543.158	11.97
543.355	11.94
543.552	12.04
543.75	12.08
543.947	12.2
544.144	12.28
544.341	12.29
544.539	12.35
544.736	12.35
544.933	12.6
545.13	12.73
545.327	12.83
545.524	12.89
545.722	12.94
545.919	12.76
546.116	12.78
546.313	12.86
546.51	12.96
546.707	12.92
546.904	12.82
547.101	12.89
547.298	12.9
547.495	12.84
547.692	12.83
547.889	12.75
548.086	12.92
548.283	12.96
548.48	13.09
548.677	13.1
548.874	13.07
549.07	13.17
549.267	13.2
549.464	13.48
549.661	13.68
549.858	13.8
550.055	13.93
550.251	14
550.448	13.97
550.645	14.03
550.842	14.15
551.038	14.47
551.235	14.59
551.432	14.58
551.628	14.47
551.825	14.12
552.022	14.09
552.218	14.27
552.415	14.35
552.612	14.54
552.808	14.51
553.005	14.44
553.201	14.5
553.398	14.46
553.594	14.69
553.791	14.84
553.987	15.09
554.184	15.28
554.38	15.43
554.577	15.65
554.773	15.8
554.97	15.86
555.166	15.88
555.362	15.9
555.559	16.24
555.755	16.06
555.952	16.24
556.148	16.51
556.344	16.56
556.541	16.46
556.737	16.58
556.933	16.63
557.129	16.59
557.326	16.83
557.522	16.75
557.718	16.92
557.914	17.06
558.11	16.92
558.307	17.07
558.503	17.05
558.699	17.11
558.895	17.11
559.091	17.22
559.287	17.4
559.483	17.52
559.679	17.56
559.876	17.48
560.072	17.64
560.268	17.53
560.464	17.41
560.66	17.59
560.856	17.71
561.052	17.8
561.247	17.84
561.443	17.89
561.639	17.93
561.835	18.26
562.031	18.49
562.227	18.65
562.423	18.94
562.619	18.96
562.815	19.17
563.01	19.33
563.206	19.43
563.402	19.27
563.598	19.32
563.793	19.4
563.989	19.44
564.185	19.2
564.381	19.25
564.576	19.31
564.772	19.4
564.968	19.39
565.163	19.3
565.359	19.17
565.555	19.35
565.75	19.5
565.946	19.56
566.141	19.84
566.337	20.02
566.532	20.03
566.728	20.12
566.923	20.11
567.119	20.19
567.314	20.45
567.51	20.53
567.705	20.72
567.901	20.74
568.096	20.84
568.292	20.64
568.487	20.53
568.682	20.34
568.878	20.19
569.073	20.33
569.268	20.34
569.464	20.27
569.659	20.39
569.854	20.39
570.05	20.27
570.245	20.43
570.44	20.4
570.635	20.83
570.831	21.16
571.026	21.44
571.221	21.82
571.416	22
571.611	21.97
571.806	21.98
572.002	21.91
572.197	22.23
572.392	22.22
572.587	22.48
572.782	22.24
572.977	22.35
573.172	22.39
573.367	22.19
573.562	22.16
573.757	22.13
573.952	22.2
574.147	22.32
574.342	22.32
574.537	22.34
574.732	22.18
574.927	22.47
575.121	22.47
575.316	22.4
575.511	22.52
575.706	22.53
575.901	22.72
576.096	22.63
576.29	22.88
576.485	22.96
576.68	23.04
576.875	23.14
577.069	23.04
577.264	23.09
577.459	23.39
577.654	23.51
577.848	23.54
578.043	23.74
578.238	23.76
578.432	23.56
578.627	23.46
578.821	23.4
579.016	23.79
579.21	24.04
579.405	23.97
579.6	23.83
579.794	23.89
579.989	23.93
580.183	23.76
580.378	23.99
580.572	24.04
580.766	24.18
580.961	24.11
581.155	23.62
581.35	23.55
581.544	23.45
581.738	23.36
581.933	23.21
582.127	23.02
582.321	23.5
582.516	23.51
582.71	23.66
582.904	23.37
583.099	23.63
583.293	23.7
583.487	23.86
583.681	23.67
583.875	23.85
584.07	23.79
584.264	23.92
584.458	23.57
584.652	23.8
584.846	23.71
585.04	23.92
585.234	23.67
585.428	23.83
585.623	23.93
585.817	24.13
586.011	24.06
586.205	24.19
586.399	24.33
586.593	24.25
586.787	24.22
586.981	24.19
587.174	24.4
587.368	24.8
587.562	25.18
587.756	24.93
587.95	25.11
588.144	25.33
588.338	25.33
588.532	25.21
588.725	25.42
588.919	25.43
589.113	25.68
589.307	25.6
589.501	25.71
589.694	25.64
589.888	25.59
590.082	25.92
590.275	25.83
590.469	25.98
590.663	26.12
590.856	26.09
591.05	26.06
591.244	26.08
591.437	25.99
591.631	25.9
591.824	25.55
592.018	25.54
592.212	25.44
592.405	25.54
592.599	25.68
592.792	25.52
592.986	25.66
593.179	25.6
593.372	25.83
593.566	25.91
593.759	25.94
593.953	26.17
594.146	26.4
594.339	26.46
594.533	26.56
594.726	26.38
594.92	26.53
595.113	26.57
595.306	26.69
595.499	26.48
595.693	26.74
595.886	26.7
596.079	26.68
596.272	26.79
596.466	26.85
596.659	27.06
596.852	27.15
597.045	27.43
597.238	27.35
597.431	27.35
597.624	27.25
597.818	27.16
598.011	27.37
598.204	27.6
598.397	27.7
598.59	27.78
598.783	27.26
598.976	26.95
599.169	26.99
599.362	27.09
599.555	27.23
599.748	27.52
599.941	27.4
600.134	27.48
600.326	27.56
600.519	27.62
600.712	27.26
600.905	27.49
601.098	27.93
601.291	27.74
601.483	27.79
601.676	27.68
601.869	27.48
602.062	27.67
602.255	27.65
602.447	27.41
602.64	27.13
602.833	27.33
603.025	27.31
603.218	27.42
603.411	27.38
603.603	27.44
603.796	27.71
603.989	27.76
604.181	27.86
604.374	27.83
604.566	27.73
604.759	27.97
604.951	27.99
605.144	27.95
605.336	27.65
605.529	27.63
605.721	27.75
605.914	27.33
606.106	27.42
606.299	27.38
606.491	27.2
606.683	27.4
606.876	27.19
607.068	27.1
607.26	27.13
607.453	27.35
607.645	27.42
607.837	27.19
608.03	27.57
608.222	27.76
608.414	27.79
608.606	27.79
608.799	27.75
608.991	27.88
609.183	27.94
609.375	27.92
609.567	27.78
609.759	27.51
609.952	27.19
610.144	26.91
610.336	26.67
610.528	26.36
610.72	26.42
610.912	26.19
611.104	26.02
611.296	25.91
611.488	25.75
611.68	26.08
611.872	26.29
612.064	26.48
612.256	26.82
612.448	26.38
612.64	26.57
612.832	26.41
613.023	26.46
613.215	26.31
613.407	26.58
613.599	27.13
613.791	26.92
613.983	27.07
614.174	27.33
614.366	27.2
614.558	27.71
614.75	27.8
614.941	27.95
615.133	28.33
615.325	28.29
615.516	27.83
615.708	27.58
615.9	27.47
616.091	27.26
616.283	27.11
616.475	26.8
616.666	26.68
616.858	26.82
617.049	26.56
617.241	26.29
617.432	26.56
617.624	26.85
617.815	26.95
618.007	26.99
618.198	27.13
618.39	27.13
618.581	27.23
618.773	27.68
618.964	27.43
619.155	27.63
619.347	27.71
619.538	27.97
619.729	27.83
619.921	27.86
620.112	28.11
620.303	27.78
620.494	27.95
620.686	28.45
620.877	28.49
621.068	28.66
621.259	29
621.451	28.77
621.642	28.6
621.833	28.52
622.024	28.62
622.215	28.43
622.406	28.92
622.597	28.87
622.788	28.62
622.98	28.41
623.171	28.48
623.362	28.32
623.553	28.75
623.744	28.56
623.935	28.86
624.126	28.91
624.317	28.99
624.508	28.7
624.698	28.67
624.889	28.84
625.08	28.79
625.271	28.65
625.462	28.74
625.653	28.8
625.844	28.64
626.034	28.58
626.225	28.47
626.416	28.51
626.607	28.79
626.798	28.78
626.988	28.72
627.179	28.66
627.37	28.61
627.56	28.41
627.751	28.22
627.942	28.55
628.132	28.54
628.323	28.63
628.514	28.36
628.704	28.05
628.895	27.72
629.085	27.35
629.276	27.48
629.466	27.64
629.657	27.68
629.847	28.02
630.038	27.77
630.228	27.87
630.419	27.89
630.609	28.09
630.8	28.25
630.99	28.73
631.181	29.09
631.371	28.87
631.561	28.84
631.752	29.04
631.942	29.01
632.132	29.23
632.323	29.3
632.513	29.03
632.703	28.9
632.893	29.01
633.084	28.66
633.274	28.9
633.464	28.92
633.654	28.86
633.844	28.72
634.034	28.54
634.225	28.62
634.415	28.4
634.605	28.34
634.795	28.62
634.985	28.83
635.175	29.13
635.365	28.83
635.555	29.06
635.745	29.26
635.935	29.43
636.125	29.78
636.315	29.58
636.505	29.91
636.695	30.52
636.885	30.42
637.075	30.41
637.265	30.5
637.455	30.66
637.644	30.72
637.834	30.67
638.024	30.62
638.214	30.2
638.404	30.38
638.593	30.07
638.783	29.65
638.973	29.57
639.163	29.14
639.352	29.15
639.542	28.92
639.732	28.87
639.921	28.86
640.111	28.82
640.301	29.28
640.49	29.51
640.68	29.36
640.87	29.24
641.059	29.24
641.249	29.82
641.438	29.32
641.628	29.22
641.817	29.13
642.007	28.93
642.196	29.06
642.386	28.49
642.575	28.48
642.764	28.71
642.954	28.75
643.143	29.41
643.333	29.31
643.522	29.8
643.711	29.88
643.901	29.66
644.09	29.56
644.279	29.67
644.469	29.7
644.658	29.67
644.847	29.63
645.036	29.78
645.226	29.58
645.415	30
645.604	30.1
645.793	30.2
645.982	30.4
646.171	30.7
646.361	30.74
646.55	30.94
646.739	30.76
646.928	30.94
647.117	30.35
647.306	30.23
647.495	29.24
647.684	28.85
647.873	28.77
648.062	28.59
648.251	28.46
648.44	28.17
648.629	28.29
648.818	28.24
649.007	28.04
649.196	28.55
649.384	28.54
649.573	28.93
649.762	29.38
649.951	29.96
650.14	30.02
650.328	29.99
650.517	30.06
650.706	29.8
650.895	30.25
651.083	30.72
651.272	30.46
651.461	30.55
651.65	30.97
651.838	31.04
652.027	30.25
652.216	30.14
652.404	30.37
652.593	30.37
652.781	30.52
652.97	30.05
653.158	29.45
653.347	29.57
653.535	29.12
653.724	28.67
653.912	28.73
654.101	29.13
654.289	29.27
654.478	29.17
654.666	29.03
654.855	28.52
655.043	29.13
655.231	29.57
655.42	29.59
655.608	29.88
655.796	29.78
655.985	29.24
656.173	29.35
656.361	29.61
656.55	29.78
656.738	30.11
656.926	30.48
657.114	30.05
657.302	29.96
657.491	29.86
657.679	29.79
657.867	30.16
658.055	30.75
658.243	30.7
658.431	30.71
658.619	30.82
658.807	30.66
658.996	30.76
659.184	30.86
659.372	30.83
659.56	31.07
659.748	31.14
659.936	31.01
660.124	30.47
660.311	30.45
660.499	30.88
660.687	30.68
660.875	30.99
661.063	30.99
661.251	30.79
661.439	31.03
661.627	31.33
661.814	31
662.002	30.75
662.19	31.16
662.378	31.08
662.565	30.54
662.753	30.24
662.941	30
663.129	29.86
663.316	29.24
663.504	28.8
663.692	28.26
663.879	28.52
664.067	28.54
664.254	28.59
664.442	29.11
664.63	28.88
664.817	28.89
665.005	28.97
665.192	29.14
665.38	29.5
665.567	29.34
665.755	29.67
665.942	29.7
666.13	29.74
666.317	29.96
666.504	29.38
666.692	29.62
666.879	30.57
667.067	29.77
667.254	29.18
667.441	29.76
667.629	30.03
667.816	29.91
668.003	30.14
668.19	30.14
668.378	30.05
668.565	30.43
668.752	30.07
668.939	29.34
669.127	30.06
669.314	30.75
669.501	30.73
669.688	30.77
669.875	31.05
670.062	31.18
670.249	31.48
670.436	31.11
670.623	30.84
670.81	31.08
670.997	31.45
671.184	31.6
671.371	31.52
671.558	31.4
671.745	31.24
671.932	30.38
672.119	29.97
672.306	30.03
672.493	30.3
672.68	30.69
672.867	30.52
673.054	30.52
673.24	30.39
673.427	30.62
673.614	30.45
673.801	30.54
673.988	31.52
674.174	31.9
674.361	31.39
674.548	31.34
674.734	30.74
674.921	30.83
675.108	30.84
675.294	31.09
675.481	30.34
675.668	30.57
675.854	30.75
676.041	30.52
676.227	30.31
676.414	30.61
676.601	30.37
676.787	30.13
676.974	30.69
677.16	30.68
677.347	30.24
677.533	30.57
677.719	30.48
677.906	30.73
678.092	31.03
678.279	31.54
678.465	31.47
678.651	31.35
678.838	31.77
679.024	31.51
679.21	31.14
679.397	31.47
679.583	31.57
679.769	31.62
679.955	31.03
680.142	30.39
680.328	29.81
680.514	30.1
680.7	30.25
680.886	30.46
681.073	30.83
681.259	31.07
681.445	30.67
681.631	30.5
681.817	30.71
682.003	31.08
682.189	31.32
682.375	31.94
682.561	31.65
682.747	31.57
682.933	31.35
683.119	30.58
683.305	31.14
683.491	31.36
683.677	31.18
683.863	31.37
684.049	31.15
684.235	31.55
684.42	31
684.606	30.74
684.792	31.09
684.978	31.17
685.164	31.41
685.349	30.36
685.535	30.21
685.721	30.8
685.907	30.07
686.092	30.8
686.278	30.67
686.464	30.73
686.649	30.72
686.835	30.43
687.021	30.03
687.206	30.48
687.392	30.54
687.577	30.67
687.763	30.25
687.948	30.44
688.134	30.07
688.319	30.25
688.505	30.03
688.69	30.08
688.876	29.94
689.061	30.87
689.247	30.53
689.432	30.64
689.618	30.58
689.803	30.84
689.988	30.44
690.174	30.7
690.359	30.36
690.544	30.79
690.73	31.48
690.915	31.58
691.1	31.5
691.285	31.79
691.471	32.12
691.656	32.09
691.841	32.12
692.026	33.08
692.211	32.6
692.396	32.28
692.582	32.11
692.767	31.23
692.952	31.39
693.137	30.96
693.322	30.91
693.507	29.99
693.692	30.37
693.877	29.8
694.062	29.59
694.247	29.95
694.432	30.25
694.617	30.58
694.802	30.71
694.987	30.98
695.172	30.36
695.357	30.49
695.541	31.81
695.726	31.31
695.911	31.96
696.096	31.52
696.281	31.88
696.466	32.14
696.65	31.89
696.835	32.37
697.02	31.99
697.204	32.18
697.389	31.83
697.574	31.85
697.759	32.29
697.943	32.1
698.128	32.32
698.312	31.78
698.497	31.93
698.682	32.37
698.866	32
699.051	32.29
699.235	32.29
699.42	32.36
699.604	32.76
699.789	32.02
699.973	32.28
700.158	32.17
700.342	32.31
700.527	31.92
700.711	31.53
700.895	32.27
701.08	32.14
701.264	32.25
701.448	31.74
701.633	30.63
701.817	30.67
702.001	30.18
702.186	30.02
702.37	29.92
702.554	30.14
702.738	29.96
702.923	29.4
703.107	29.66
703.291	29.96
703.475	30.51
703.659	30.29
703.843	31.17
704.027	31.25
704.212	30.69
704.396	31.21
704.58	31.27
704.764	29.9
704.948	29.51
705.132	28.94
705.316	28.8
705.5	28.18
705.684	28.73
705.868	28.14
706.052	27.92
706.235	28.72
706.419	28.46
706.603	28.78
706.787	29.82
706.971	30.78
707.155	30.85
707.339	30.93
707.522	30.88
707.706	31.04
707.89	31.24
708.074	32.07
708.257	32.32
708.441	32.06
708.625	31.43
708.808	31.11
708.992	30.1
709.176	29.38
709.359	29.51
709.543	30.21
709.727	30.09
709.91	30.05
710.094	29.62
710.277	28.64
710.461	28.72
710.644	28.57
710.828	28.86
711.011	29.95
711.195	30.63
711.378	30.95
711.562	30.1
711.745	30.76
711.928	30.95
712.112	31.35
712.295	32.55
712.478	32.96
712.662	33.88
712.845	33.81
713.028	32.75
713.212	32.79
713.395	32.76
713.578	33.27
713.761	33.12
713.945	33.14
714.128	31.9
714.311	31.88
714.494	31.69
714.677	30.9
714.86	31.74
715.043	32.75
715.227	32.57
715.41	32.06
715.593	31.99
715.776	32.09
715.959	31.7
716.142	32.36
716.325	32.33
716.508	32.59
716.691	33.19
716.874	33.02
717.057	32.06
717.239	32.71
717.422	32.3
717.605	32.19
717.788	31.27
717.971	31.57
718.154	31.71
718.337	31.3
718.519	31.08
718.702	29.92
718.885	29.5
719.068	29.09
719.25	28.49
719.433	29.09
719.616	30.07
719.798	30.87
719.981	31.47
720.164	31.04
720.346	30.92
720.529	30.5
720.712	31.7
720.894	31.75
721.077	33.3
721.259	32.76
721.442	31.75
721.624	31.21
721.807	31
721.989	30.83
722.172	31.78
722.354	31.61
722.537	32.24
722.719	31.26
722.901	31.57
723.084	31.23
723.266	32.48
723.448	33.75
723.631	33.57
723.813	32.54
723.995	32.95
724.178	33.11
724.36	33.15
724.542	31.41
724.724	33.75
724.907	33.69
725.089	32.82
725.271	32.73
725.453	31.73
725.635	32.22
725.817	32.86
725.999	31.48
726.181	31.39
726.364	31.22
726.546	31.92
726.728	31.09
726.91	31.07
727.092	32.51
727.274	31.62
727.456	31.39
727.638	30.07
727.819	29.91
728.001	30.48
728.183	30.66
728.365	31.61
728.547	32.73
728.729	32.52
728.911	32.52
729.093	31.68
729.274	32.05
729.456	33.63
729.638	33.87
729.82	33.73
730.001	34.21
730.183	33.14
730.365	32.17
730.546	30.71
730.728	30.5
730.91	30.02
731.091	30.35
731.273	29.95
731.455	29.6
731.636	30.83
731.818	31.52
731.999	30.14
732.181	31.28
732.362	30.86
732.544	31.45
732.725	30.81
732.907	31.5
733.088	31.03
733.27	31.23
733.451	31.38
733.633	32.25
733.814	31.96
733.995	32.53
734.177	32.03
734.358	32.81
734.539	32.65
734.721	32.01
734.902	30.55
735.083	30.82
735.264	32.15
735.446	31.14
735.627	29.93
735.808	30.04
735.989	29.43
736.17	30.33
736.351	29.55
736.533	30.37
736.714	32.87
736.895	34.69
737.076	33.72
737.257	33.29
737.438	34.98
737.619	34.19
737.8	34.69
737.981	36.72
738.162	34.98
738.343	35.08
738.524	34.56
738.705	34.01
738.886	33.17
739.067	33.81
739.247	33.39
739.428	32.01
739.609	32.47
739.79	30.57
739.971	29.46
740.151	30.65
740.332	31.3
740.513	30.74
740.694	28.69
740.874	28.65
741.055	28.23
741.236	28.08
741.417	28.97
741.597	28.47
741.778	28.62
741.958	27.81
742.139	26.42
742.32	25.31
742.5	26.02
742.681	25.69
742.861	26.53
743.042	26.29
743.222	26.5
743.403	24.41
743.583	24.66
743.764	27.12
743.944	27.03
744.124	26.11
744.305	28.14
744.485	28.39
744.666	29.95
744.846	28.98
745.026	30.34
745.207	28.66
745.387	30.1
745.567	29.78
745.747	28.9
745.928	30.53
746.108	31.14
746.288	30.34
746.468	30.31
746.648	28.5
746.829	30.02
747.009	29.97
747.189	31.19
747.369	30.7
747.549	30.26
747.729	28.5
747.909	27.82
748.089	30.17
748.269	30.18
748.449	31.13
748.629	33.49
748.809	32.41
748.989	31.28
749.169	30.47
749.349	32.25
749.529	33.64
749.709	35.77
749.889	35.09
750.068	34.44
750.248	34.19
750.428	32.83
750.608	32.51
750.788	33.02
750.967	34.26
751.147	33.96
751.327	32.82
751.507	32.47
751.686	33.25
751.866	34.92
752.046	34.23
752.225	35.27
752.405	35.24
752.585	35.21
752.764	35.39
752.944	34.98
753.123	36.15
753.303	37.42
753.482	36.48
753.662	35.96
753.841	35.48
754.021	35.81
754.2	34.31
754.38	35.17
754.559	36.27
754.739	36.28
754.918	35.71
755.097	35.48
755.277	33.28
755.456	33.52
755.635	32.61
755.815	33.15
755.994	33.34
756.173	33.23
756.352	33.03
756.532	32.29
756.711	30.86
756.89	31.68
757.069	31.75
757.248	33.64
757.427	35.32
757.607	35.52
757.786	34.76
757.965	34.64
758.144	34.38
758.323	33.36
758.502	33.41
758.681	33.67
758.86	33.44
759.039	33.52
759.218	32.73
759.397	33.03
759.576	32.41
759.755	31.4
759.934	31.18
760.113	32.61
760.291	33.12
760.47	32.92
760.649	33.9
760.828	33.88
761.007	34.68
761.186	36.06
761.364	35.57
761.543	35.18
761.722	35.93
761.901	35.91
762.079	36.63
762.258	36.96
762.437	36.22
762.615	35.19
762.794	34.07
762.972	32.51
763.151	30.58
763.33	30.11
763.508	30.76
763.687	30.48
763.865	30.13
764.044	28.32
764.222	28.2
764.401	28.15
764.579	29.38
764.758	29.6
764.936	30.56
765.114	31.23
765.293	31.32
765.471	30.5
765.65	30.85
765.828	31.28
766.006	33.24
766.184	33.14
766.363	34.29
766.541	33.24
766.719	33
766.898	33.4
767.076	33.35
767.254	34.13
767.432	35.34
767.61	35.97
767.788	37.55
767.967	37.04
768.145	36.53
768.323	33.99
768.501	34.74
768.679	36.49
768.857	34.83
769.035	33.78
769.213	32.76
769.391	31.53
769.569	30.6
769.747	27.28
769.925	26.44
770.103	27.83
770.281	31.03
770.459	31.13
770.636	30.95
770.814	32.53
770.992	34.81
771.17	36.13
771.348	36.49
771.525	37.9
771.703	39.85
771.881	39.83
772.059	38.56
772.236	36.22
772.414	33.04
772.592	32.99
772.769	33.13
772.947	32.1
773.125	30.68
773.302	31.24
773.48	32.38
773.657	31.67
773.835	31.22
774.013	30.1
774.19	31.59
774.368	33.94
774.545	34.31
774.723	34.08
774.9	35.24
775.077	35.6
775.255	36.99
775.432	36.53
775.61	34.4
775.787	35.7
775.964	36.18
776.142	38.18
776.319	35.74
776.496	36.22
776.674	36.19
776.851	34.44
777.028	34.23
777.205	31.93
777.382	31.18
777.56	33.03
777.737	31.7
777.914	31.79
778.091	30.17
778.268	32.38
778.445	32.41
778.622	30.9
778.8	28.72
778.977	28.04
779.154	28.51
779.331	28.46
779.508	27.53
779.685	26.6
779.862	27.55
780.038	26.04
780.215	27.67
780.392	22.88
780.569	24.92
780.746	28.44
780.923	29.98
781.1	29.51
781.277	27.43
781.453	27.12
781.63	26.84
781.807	25.28
781.984	25.74
782.16	24.12
782.337	27.51
782.514	26.8
782.691	28.24
782.867	28.96
783.044	28.41
783.221	28.06
783.397	31.24
783.574	33.27
783.75	34.41
783.927	36.92
784.103	38.76
784.28	37.74
784.456	37.33
784.633	34.09
784.809	30.58
784.986	30.71
785.162	30.37
785.339	24.8
785.515	25.89
785.692	23.45
785.868	19.64
786.044	20.77
786.221	21.16
786.397	21.85
786.573	24.66
786.749	23.17
786.926	26.96
787.102	27.33
787.278	30.58
787.454	29.28
787.631	27.84
787.807	28.75
787.983	26.73
788.159	28.8
788.335	29.95
788.511	30.44
788.687	30.32
788.863	30.12
789.039	27.99
789.216	28.47
789.392	28.66
789.568	32.11
789.744	32.44
789.919	35.84
790.095	34.56
790.271	34.86
790.447	34.49
790.623	37.03
790.799	33.37
790.975	41.03
791.151	40.37
791.327	41.09
791.502	41.26
791.678	41.56
791.854	35.34
792.03	36.71
792.205	35.4
792.381	32.68
792.557	35.89
792.733	37.66
792.908	34.83
793.084	34.47
793.259	36.89
793.435	39.37
793.611	40.4
793.786	42.96
793.962	40.52
794.137	39.39
794.313	42.27
794.488	43.66
794.664	41.86
794.839	41
795.015	42.76
795.19	37.99
795.366	36.13
795.541	35.7
795.716	36.31
795.892	37.56
796.067	35.79
796.242	33.25
796.418	29.77
796.593	32.59
796.768	32.17
796.944	29.94
797.119	29.2
797.294	25.72
797.469	24.3
797.644	26.09
797.82	25.2
797.995	27.69
798.17	29.36
798.345	29.07
798.52	28.84
798.695	31.1
798.87	29.87
799.045	34.43
799.22	35.41
799.395	36.85
799.57	34.22
799.745	35.09
799.92	39.84
800.095	38.37
800.27	35.71
800.445	34.18
800.62	30.53
800.795	34.46
800.97	34.52
801.145	38.68
801.319	36.54
801.494	36.41
801.669	40.23
801.844	37.07
802.018	33.89
802.193	36.24
802.368	34.73
802.543	34.49
802.717	30.16
802.892	30.85
803.067	26.34
803.241	32.23
803.416	29.39
803.59	23.14
803.765	24.92
803.94	33.86
804.114	34.11
804.289	34.54
804.463	34.34
804.638	40.64
804.812	41.72
804.986	44.65
805.161	39.6
805.335	42.48
805.51	42.75
805.684	37.58
805.858	34.25
806.033	28.02
806.207	28.59
806.381	34.64
806.556	31.2
806.73	25.64
806.904	23.93
807.078	21.05
807.253	22.93
807.427	22.06
807.601	28.29
807.775	20.61
807.949	24.63
808.123	26.41
808.298	25.46
808.472	24.34
808.646	26.72
808.82	29.59
808.994	33.47
809.168	30.74
809.342	32.89
809.516	32.72
809.69	42
809.864	43.69
810.038	44.83
810.212	42.88
810.385	44.74
810.559	45.92
810.733	41.67
810.907	40.31
811.081	38.78
811.255	39.92
811.428	37.96
811.602	37.23
811.776	38.42
811.95	39.05
812.123	33.42
812.297	29.73
812.471	27.3
812.644	32.97
812.818	33.73
812.992	34.52
813.165	35.29
813.339	31.98
813.512	29.39
813.686	29.83
813.86	29.71
814.033	33.25
814.207	34.56
814.38	33.99
814.554	32.09
814.727	27.29
814.9	30.61
815.074	31.15
815.247	33.92
815.421	33.33
815.594	30.72
815.767	29.5
815.941	29.64
816.114	32.95
816.287	33.82
816.46	30.71
816.634	45.51
816.807	45.43
816.98	47.84
817.153	50.75
817.327	46.95
817.5	49.6
817.673	46.76
817.846	48.81
818.019	48.54
818.192	47.87
818.365	50.65
818.538	47.78
818.711	43.85
818.884	40.62
819.057	35.21
819.23	32.85
819.403	30.37
819.576	33.65
819.749	32.17
819.922	31.68
820.095	34.3
820.268	31.96
820.441	27.9
820.614	30.75
820.786	31.2
820.959	32.55
821.132	33.52
821.305	34.14
821.477	33.88
821.65	36.05
821.823	34.76
821.996	34.22
822.168	34.51
822.341	35.16
822.514	35.78
822.686	35.39
822.859	35.31
823.031	35.15
823.204	35.1
823.376	35.46
823.549	33.71
823.722	34.08
823.894	33.04
824.067	33.63
824.239	33.11
824.411	31.56
824.584	31.95
824.756	31.3
824.929	30.54
825.101	30.57
825.273	29.79
825.446	31.18
825.618	31.02
825.79	33.02
825.963	32.16
826.135	30.98
826.307	32.43
826.479	32.13
826.652	31.19
826.824	31.9
826.996	32.41
827.168	32.83
827.34	31.86
827.512	30.26
827.684	28.72
827.856	28.41
828.029	31.11
828.201	29.97
828.373	28.37
828.545	28.87
828.717	28.19
828.889	27.75
829.061	28.29
829.232	27.48
829.404	29.04
829.576	28.31
829.748	25.88
829.92	25.19
830.092	26.21
830.264	26.94
830.436	28.89
830.607	31.09
830.779	29.95
830.951	26.81
831.123	28.07
831.294	30.48
831.466	30.42
831.638	37.22
831.809	36.07
831.981	34.27
832.153	32.11
832.324	28.47
832.496	31.87
832.667	31.06
832.839	35.29
833.011	39.49
833.182	38.23
833.354	35.32
833.525	36.11
833.697	31.83
833.868	30.4
834.039	30.4
834.211	29.91
834.382	28.39
834.554	29.19
834.725	27.41
834.896	23.81
835.068	21.96
835.239	25.01
835.41	22.65
835.581	25.8
835.753	28.51
835.924	30.84
836.095	32.24
836.266	33.55
836.438	33.65
836.609	30.6
836.78	32.78
836.951	32.85
837.122	30.04
837.293	29.78
837.464	31.67
837.635	28.63
837.806	29.9
837.977	33.9
838.148	30.18
838.319	28.49
838.49	39.5
838.661	38.04
838.832	33.9
839.003	35.53
839.174	36.79
839.345	29.76
839.516	26.98
839.687	24.81
839.857	10.97
840.028	11.47
840.199	11.74
840.37	5.87
840.54	4.91
840.711	6.56
840.882	7.03
841.053	-4.45
841.223	-3.14
841.394	-10.43
841.564	-7.87
841.735	5.35
841.906	17.1
842.076	16.84
842.247	15.65
842.417	16.78
842.588	25.31
842.758	27.79
842.929	33.23
843.099	35.04
843.27	39.68
843.44	45.21
843.611	41.61
843.781	30.42
843.951	21.46
844.122	18.98
844.292	12.62
844.462	6.52
844.633	4.17
844.803	7.81
844.973	5.53
845.144	11.03
845.314	-2.48
845.484	2.02
845.654	15.26
845.824	21.59
845.995	21.65
846.165	33.35
846.335	34.24
846.505	29.66
846.675	12.66
846.845	14.18
847.015	23.94
847.185	46.39
847.355	44.16
847.525	30.48
847.695	21.05
847.865	18.01
848.035	9.13
848.205	-5.42
848.375	-3.04
848.545	-0.36
848.715	2.41
848.884	5.18
849.054	6.27
849.224	10.16
849.394	25.72
849.564	46.8
849.733	51.97
849.903	52.79
850.073	70.53
850.243	74.1
850.412	98.64
850.582	123.38
850.752	107.12
850.921	102.47
851.091	89.81
851.26	81.58
851.43	79.22
851.599	97.3
851.769	110.55
851.939	101.75
852.108	110.59
852.278	113.03
852.447	83.9
852.616	90.32
852.786	78.63
852.955	88.42
853.125	86.77
853.294	90.09
853.463	91.2
853.633	101.37
853.802	110.85
853.971	100.15
854.141	103.76
854.31	95.28
854.479	80.51
854.648	89.41
854.818	89.09
854.987	91.58
855.156	90.11
855.325	65.52
855.494	31.57
855.663	12.3
855.832	38.41
856.001	49.79
856.171	64.41
856.34	80.06
856.509	79.75
856.678	72.33
856.847	79.23
857.016	56.29
857.185	82.93
857.353	78.69
857.522	97.1
857.691	77.76
857.86	54.16
858.029	69.75
858.198	80.98
858.367	94.06
858.535	67.73
858.704	57.28
858.873	90.02
859.042	62.2
859.21	90.61
859.379	97.39
859.548	51.29
859.717	72.32
859.885	61.88
860.054	62.06
860.222	53.51
860.391	103.62
860.56	165.48
860.728	76.17
860.897	47.73
861.065	29.44
861.234	51
861.402	51.35
861.571	33.74
861.739	15.5
861.908	4.37
862.076	17.59
862.244	14.96
862.413	1.4
862.581	10.96
862.749	15.61
862.918	7.96
863.086	-13.98
863.254	1.07
863.423	-14
863.591	25.52
863.759	36
863.927	24.36
864.096	45.78
864.264	55.49
864.432	71.81
864.6	86.67
864.768	91.59
864.936	103.47
865.104	115.29
865.272	92.1
865.44	100.67
865.608	97.58
865.776	132.9
865.944	122.84
866.112	109.03
866.28	68.14
866.448	79.4
866.616	71.85
866.784	49.42
866.952	62.96
867.12	84.56
867.288	62.28
867.455	49.12
867.623	33.31
867.791	26.72
867.959	51.86
868.127	66.57
868.294	54.28
868.462	43.62
868.63	109.84
868.797	86.78
868.965	93.07
869.133	99.31
869.3	111.41
869.468	137.3
869.636	122.4
869.803	87.39
869.971	98.8
870.138	106.03
870.306	110.01
870.473	89.5
870.641	96.11
870.808	103.36
870.975	114.19
871.143	88.52
871.31	60.93
871.478	101.04
871.645	122.98
871.812	111.57
871.98	61.79
872.147	63.84
872.314	58.98
872.482	65.86
872.649	83.9
872.816	83.93
872.983	103.18
873.15	90.76
873.318	87.84
873.485	83.39
873.652	67.84
873.819	53.69
873.986	56.12
874.153	76.68
874.32	57.56
874.487	20.47
874.654	-28.07
874.821	-61.37
874.988	-76.55
875.155	-44.89
875.322	3.62
875.489	39.46
875.656	117.91
875.823	154.9
875.99	133.51
876.157	145.43
876.324	166.9
876.49	169.94
876.657	195.42
876.824	208.79
876.991	175.62
877.157	208.65
877.324	233.91
877.491	202.71
877.658	169.89
877.824	191.88
877.991	140.61
878.157	107.72
878.324	81.83
878.491	27.23
878.657	4.91
878.824	4.85
878.99	-30.15
879.157	-4.96
879.323	-17.4
879.49	-48.39
879.656	-12.64
879.823	-9.72
879.989	8.83
880.156	-43.55
880.322	-40.1
880.488	43.6
880.655	23.42
880.821	39.79
880.987	31.96
881.154	17.1
881.32	12.69
881.486	17.41
881.652	22.57
881.819	14.67
881.985	29.44
882.151	34.39
882.317	31.43
882.483	36.93
882.649	34.79
882.816	36.3
882.982	38.73
883.148	34.8
883.314	34.47
883.48	34.96
883.646	37.07
883.812	34.35
883.978	35.76
884.144	36.96
884.31	37.79
884.476	39.46
884.642	37.76
884.807	39.24
884.973	42.42
885.139	43.32
885.305	42.39
885.471	41.18
885.637	38.69
885.802	37.32
885.968	39.66
886.134	40.3
886.3	42.91
886.465	44.95
886.631	45.36
886.797	43.09
886.962	44.31
887.128	46.25
887.293	49.26
887.459	57.98
887.625	55.89
887.79	50.81
887.956	52.37
888.121	48.71
888.287	45.89
888.452	41.66
888.618	52.25
888.783	52
