Data from 2937864_Reflection_2.txt Node
Date: Wed Jul 15 15:15:42 EDT 2015
User: robert
Spectrometer: USB4E03001
Autoset integration time: false
Trigger mode: 4
Integration Time (sec): 1.000000E-1
Scans to average: 10
Electric dark correction enabled: true
Nonlinearity correction enabled: false
Boxcar width: 5
Stray light correction enabled: false
XAxis mode: Wavelengths
Stop averaging: false
Number of Pixels in Spectrum: 3648
>>>>>Begin Spectral Data<<<<<
177.566	290.29
177.785	162.04
178.005	-138.35
178.225	34.26
178.445	-182.56
178.665	3.03
178.885	126.23
179.105	221.22
179.324	145.66
179.544	137.59
179.764	124.8
179.984	156.94
180.204	125.25
180.423	455.05
180.643	328.05
180.863	563.98
181.083	175.66
181.302	32.25
181.522	29.23
181.742	-9.19
181.961	-36.5
182.181	-32.05
182.401	20.17
182.621	19.64
182.84	13.73
183.06	41.44
183.279	59.19
183.499	73.42
183.719	90.76
183.938	218.21
184.158	113.79
184.377	131.63
184.597	123.71
184.816	131.37
185.036	193.72
185.256	196.79
185.475	136.48
185.695	93.91
185.914	104.8
186.134	88.58
186.353	83.57
186.572	123.91
186.792	193.94
187.011	-47.23
187.231	426.37
187.45	-52.59
187.67	35.27
187.889	43.91
188.108	65.78
188.328	40.28
188.547	76.75
188.766	83.43
188.986	60.91
189.205	41.19
189.424	47.23
189.644	74.72
189.863	70.82
190.082	43.2
190.302	3.47
190.521	27.25
190.74	9
190.959	23.1
191.178	13.71
191.398	16.27
191.617	-10.99
191.836	2.99
192.055	-136.62
192.274	-91.82
192.494	-2211.63
192.713	76.83
192.932	-64.72
193.151	54.56
193.37	-3.74
193.589	-5.43
193.808	77.06
194.027	110.74
194.246	-39.23
194.465	93.27
194.685	144.18
194.904	86.97
195.123	-56.51
195.342	18.55
195.561	-510.42
195.78	-110.92
195.999	-136.33
196.218	-348.11
196.436	-1327.19
196.655	-175.69
196.874	-316.92
197.093	-262.26
197.312	-32.45
197.531	13.4
197.75	-1.34
197.969	69.66
198.188	49.19
198.407	100.64
198.625	117.4
198.844	134.41
199.063	196.94
199.282	22505
199.501	302.43
199.719	108.07
199.938	196.92
200.157	-101.39
200.376	-112.07
200.594	14.98
200.813	-40.24
201.032	-0.9
201.251	-20.08
201.469	32.27
201.688	26.77
201.907	42.25
202.125	40.23
202.344	35.38
202.563	62.38
202.781	83.94
203	69.79
203.218	71.23
203.437	83.8
203.656	92.57
203.874	104.18
204.093	87.21
204.311	77.23
204.53	106.77
204.748	163.02
204.967	92.07
205.185	156.76
205.404	69.64
205.622	32.67
205.841	45.52
206.059	-0.32
206.278	-149.55
206.496	149.52
206.715	320.58
206.933	148.07
207.151	241.01
207.37	129.41
207.588	161.74
207.806	-326.03
208.025	5321.05
208.243	265.09
208.461	89.34
208.68	188.39
208.898	83.84
209.116	123.12
209.335	90.2
209.553	78.84
209.771	83.93
209.989	101.88
210.208	130.37
210.426	96.25
210.644	131.72
210.862	108.11
211.081	75.77
211.299	83.69
211.517	73.85
211.735	75.02
211.953	87.56
212.171	61.16
212.39	29.42
212.608	31.02
212.826	9.4
213.044	4.11
213.262	-89.92
213.48	-9.91
213.698	-242.39
213.916	-123.4
214.134	1.88
214.352	6.3
214.57	0.93
214.788	42.48
215.006	81.31
215.224	99.91
215.442	117.13
215.66	86.3
215.878	87.01
216.096	77.34
216.314	84.09
216.532	61.21
216.75	70.01
216.968	79.91
217.185	46.51
217.403	4.69
217.621	16.79
217.839	10.59
218.057	-6.93
218.275	-10.21
218.492	-1.71
218.71	-20.45
218.928	-38.45
219.146	-20.94
219.363	-28.69
219.581	-33.27
219.799	-30.93
220.017	-32.78
220.234	-64.57
220.452	-15.63
220.67	-25.65
220.887	-17.58
221.105	-3.73
221.323	-0.24
221.54	-9.53
221.758	-22.26
221.976	-59.33
222.193	-26.4
222.411	-24.14
222.629	3.09
222.846	-3.65
223.064	5.06
223.281	7.17
223.499	6.48
223.716	1.29
223.934	17.66
224.151	18.08
224.369	44.57
224.586	43.67
224.804	48.75
225.021	47.98
225.239	33.94
225.456	46.84
225.674	44.86
225.891	59.06
226.108	54.03
226.326	38.89
226.543	41.53
226.76	38.74
226.978	27.77
227.195	13.74
227.413	9.51
227.63	14.51
227.847	13.59
228.064	12.31
228.282	7.85
228.499	5.41
228.716	7.59
228.934	13.08
229.151	12.46
229.368	13.12
229.585	17.49
229.802	17.86
230.02	18.05
230.237	16.08
230.454	21.08
230.671	24.93
230.888	29.07
231.105	32.6
231.323	30.83
231.54	30.76
231.757	34.51
231.974	33.57
232.191	28.83
232.408	26.9
232.625	24.59
232.842	19.51
233.059	21.3
233.276	17.34
233.493	13.61
233.71	11.09
233.927	15.94
234.144	10.3
234.361	13.64
234.578	13.98
234.795	15.73
235.012	23.89
235.229	24.02
235.446	20.53
235.663	20.46
235.879	14.7
236.096	11.58
236.313	9.48
236.53	11
236.747	6.92
236.964	8.6
237.181	1.56
237.397	-1.42
237.614	-1.94
237.831	2.2
238.048	5.11
238.264	14.71
238.481	13.74
238.698	9.11
238.915	7.87
239.131	9.72
239.348	2.25
239.565	11.08
239.781	13.76
239.998	12.19
240.215	10.3
240.431	8.73
240.648	8.14
240.865	13.03
241.081	15.65
241.298	19.01
241.514	19.39
241.731	22.82
241.947	22.75
242.164	21.25
242.38	21.23
242.597	22.48
242.814	21.84
243.03	23.64
243.246	24.17
243.463	25.31
243.679	25.26
243.896	26.08
244.112	25.31
244.329	23.01
244.545	24.31
244.762	25.13
244.978	20.8
245.194	20.38
245.411	18.49
245.627	18.09
245.843	17.34
246.06	16.83
246.276	15.01
246.492	16.95
246.709	17.86
246.925	16.98
247.141	16.99
247.357	17.95
247.574	18
247.79	18.11
248.006	17.13
248.222	16.21
248.439	16.67
248.655	17.67
248.871	17.29
249.087	16.75
249.303	14.91
249.519	14.68
249.736	14.45
249.952	14.46
250.168	13.11
250.384	14.23
250.6	13.16
250.816	12.65
251.032	10.22
251.248	8
251.464	6.9
251.68	11.14
251.896	9.97
252.112	10.51
252.328	11.06
252.544	11.6
252.76	10.56
252.976	12.8
253.192	11.18
253.408	12.69
253.624	14.35
253.84	19.2
254.056	17.17
254.272	18.6
254.487	17.14
254.703	17.55
254.919	17.77
255.135	21.82
255.351	19.27
255.567	20.12
255.782	17.34
255.998	17.51
256.214	14.15
256.43	15.13
256.646	14.98
256.861	17.07
257.077	17.28
257.293	16.94
257.508	14.13
257.724	15.73
257.94	15.39
258.155	16.33
258.371	15.07
258.587	15.33
258.802	14.17
259.018	14.1
259.234	12.66
259.449	12.19
259.665	12.37
259.88	12.59
260.096	12.88
260.312	12.8
260.527	13.33
260.743	12.75
260.958	12.31
261.174	12.56
261.389	12.8
261.605	12.44
261.82	12.64
262.036	12.39
262.251	11.87
262.466	12.08
262.682	12.24
262.897	10.68
263.113	10.88
263.328	12.88
263.543	12.92
263.759	11.35
263.974	13.61
264.189	14.2
264.405	14.49
264.62	11.53
264.835	11.67
265.051	10.15
265.266	10.44
265.481	9.84
265.696	5.74
265.912	6.93
266.127	8.65
266.342	9.21
266.557	8.15
266.773	8.6
266.988	10.93
267.203	10.42
267.418	12.97
267.633	13.06
267.848	14.59
268.064	16.07
268.279	15.7
268.494	15.07
268.709	13.24
268.924	13.47
269.139	12.26
269.354	12.01
269.569	12.52
269.784	11.15
269.999	10.94
270.214	9.97
270.429	10.86
270.644	10.9
270.859	11.19
271.074	12.16
271.289	11.78
271.504	12.89
271.719	13.7
271.934	13.48
272.149	14.04
272.363	12.67
272.578	12.71
272.793	12.05
273.008	12.53
273.223	12.76
273.438	13.44
273.653	13.3
273.867	12.81
274.082	11.69
274.297	12.33
274.512	10.77
274.726	13.21
274.941	14.43
275.156	14.75
275.371	14.02
275.585	13.39
275.8	11.72
276.015	11.42
276.229	12.29
276.444	14.47
276.659	12.94
276.873	13.54
277.088	13.6
277.302	14.32
277.517	13.62
277.732	14.15
277.946	16.26
278.161	16.96
278.375	17.18
278.59	15.67
278.804	12.95
279.019	13.02
279.233	12.53
279.448	11.56
279.662	9.65
279.877	11.07
280.091	10.45
280.306	7.68
280.52	9.73
280.735	11.75
280.949	12.17
281.163	13.76
281.378	14.68
281.592	14.97
281.806	14.05
282.021	15.07
282.235	14.4
282.449	14.37
282.664	15.09
282.878	14.23
283.092	12.51
283.307	14.38
283.521	12.33
283.735	12.74
283.949	12.65
284.164	14.51
284.378	13.1
284.592	13.25
284.806	12.28
285.02	11.81
285.234	13.04
285.449	13.48
285.663	13.96
285.877	13.9
286.091	13.67
286.305	13.56
286.519	13.2
286.733	13.63
286.947	13.17
287.161	14.9
287.375	15.86
287.589	14.57
287.803	13.99
288.017	13.27
288.231	14.6
288.445	13.17
288.659	13.65
288.873	14.52
289.087	13.17
289.301	12.87
289.515	12.71
289.729	11.33
289.943	11.23
290.157	11.12
290.371	9.99
290.584	9.95
290.798	9.28
291.012	9.57
291.226	9.08
291.44	10.56
291.654	11.52
291.867	11.09
292.081	13.24
292.295	12.69
292.509	13.76
292.722	14.24
292.936	14.04
293.15	15.36
293.364	15.17
293.577	14.73
293.791	14.5
294.005	16.22
294.218	17.5
294.432	16.77
294.645	17.12
294.859	17.59
295.073	17.14
295.286	18.18
295.5	18.02
295.713	16.96
295.927	16.4
296.14	17.52
296.354	15.61
296.568	14.24
296.781	13.06
296.994	13.6
297.208	13.96
297.421	12.94
297.635	12.52
297.848	12.77
298.062	13.26
298.275	13.39
298.489	13.88
298.702	13.43
298.915	14
299.129	15.13
299.342	14.99
299.555	14.68
299.769	15.88
299.982	17.62
300.195	17.43
300.409	18.03
300.622	20.35
300.835	18.6
301.048	20.3
301.262	22.37
301.475	21.36
301.688	20.73
301.901	21.2
302.115	21.33
302.328	20.59
302.541	21.1
302.754	20.7
302.967	19.25
303.18	18.57
303.393	18.29
303.607	16.94
303.82	17.74
304.033	18.12
304.246	17.05
304.459	17.08
304.672	16.67
304.885	16.66
305.098	16.84
305.311	15.75
305.524	16.2
305.737	14.81
305.95	13.79
306.163	13.04
306.376	13.28
306.589	12.45
306.802	13.27
307.015	12.63
307.228	13.51
307.44	13.92
307.653	14.48
307.866	15.73
308.079	16.7
308.292	15.97
308.505	17.52
308.718	17.32
308.93	18.43
309.143	17.97
309.356	18.21
309.569	18.84
309.781	18.9
309.994	19.48
310.207	19.22
310.42	19.33
310.632	20.26
310.845	19.47
311.058	18.97
311.27	18.97
311.483	19.25
311.696	18.34
311.908	17.34
312.121	17.23
312.333	16.6
312.546	15.28
312.759	15.26
312.971	15.53
313.184	15.88
313.396	16.64
313.609	15.73
313.821	16.12
314.034	17.34
314.246	17.6
314.459	17.78
314.671	18.34
314.884	19.77
315.096	20.05
315.309	19.4
315.521	19.78
315.733	18.9
315.946	20.39
316.158	18.51
316.371	20.32
316.583	20.47
316.795	20.02
317.008	20.28
317.22	20.57
317.432	19.33
317.644	19.92
317.857	18.91
318.069	20.89
318.281	20.54
318.494	23.97
318.706	20.94
318.918	18.67
319.13	19.42
319.342	14.86
319.555	14.96
319.767	15.21
319.979	14.78
320.191	15.41
320.403	13.62
320.615	12.94
320.827	10.34
321.039	12.13
321.252	12.76
321.464	10.39
321.676	13.92
321.888	12.83
322.1	13.99
322.312	13
322.524	11.84
322.736	13.26
322.948	14.86
323.16	15.47
323.372	14.1
323.584	13.65
323.796	13.34
324.007	12.37
324.219	12.38
324.431	12.42
324.643	12.27
324.855	12.94
325.067	12.36
325.279	10.85
325.491	10.17
325.702	10.15
325.914	12.14
326.126	14.63
326.338	14.2
326.55	14.54
326.761	14.33
326.973	15.36
327.185	16.06
327.396	15.86
327.608	17.1
327.82	18.24
328.032	18.58
328.243	18.98
328.455	19.61
328.666	21.15
328.878	21.67
329.09	21.77
329.301	22.68
329.513	22.44
329.725	22.26
329.936	21.01
330.148	21.57
330.359	21.98
330.571	22.3
330.782	21.04
330.994	19.33
331.205	19.52
331.417	20.3
331.628	19.78
331.84	19.41
332.051	20.27
332.262	21.77
332.474	19.93
332.685	20.86
332.897	20.3
333.108	20.91
333.319	22
333.531	21.72
333.742	21.69
333.953	21.98
334.165	23.39
334.376	23.48
334.587	24.15
334.799	24.07
335.01	22.46
335.221	21.43
335.432	20.6
335.644	21.41
335.855	22.05
336.066	22.01
336.277	19.92
336.488	18
336.7	17.68
336.911	16.14
337.122	16.92
337.333	18.56
337.544	18.65
337.755	18.99
337.966	19.63
338.177	19.41
338.388	19.88
338.599	21.33
338.811	22.58
339.022	23.35
339.233	24.52
339.444	24.31
339.655	23.24
339.866	23.45
340.076	23.21
340.287	21.92
340.498	22.03
340.709	21.59
340.92	22.53
341.131	23.61
341.342	22.59
341.553	20.57
341.764	20.25
341.975	19.98
342.185	18.99
342.396	18.65
342.607	19.69
342.818	19.83
343.029	19.62
343.239	18.6
343.45	17.48
343.661	18.8
343.872	19.97
344.082	21.01
344.293	22.64
344.504	23.74
344.714	24.72
344.925	24.05
345.136	24.43
345.346	23.92
345.557	23.98
345.768	23.89
345.978	23.73
346.189	24.08
346.399	22.97
346.61	20.81
346.821	19.95
347.031	20.35
347.242	20.18
347.452	19.01
347.663	19.87
347.873	19.96
348.084	19.37
348.294	19.08
348.504	19.05
348.715	19.78
348.925	21.83
349.136	21.83
349.346	20.19
349.557	21.08
349.767	21.68
349.977	21.64
350.188	21.66
350.398	21.76
350.608	21.67
350.819	21.72
351.029	21.09
351.239	20.74
351.449	20.71
351.66	20.72
351.87	20.58
352.08	20.64
352.29	20.02
352.501	21.42
352.711	23.17
352.921	22.17
353.131	21.74
353.341	21.85
353.552	22.72
353.762	24.77
353.972	25.86
354.182	25.27
354.392	25.78
354.602	25.4
354.812	25.1
355.022	24.26
355.232	24.68
355.442	24.21
355.652	24.77
355.862	24.5
356.072	23.79
356.282	24
356.492	23.68
356.702	22.44
356.912	23.35
357.122	22.85
357.332	21.87
357.542	23.07
357.752	24.16
357.962	24.35
358.171	23.95
358.381	23.37
358.591	23.22
358.801	23.21
359.011	23.17
359.221	22.97
359.43	23.67
359.64	24.54
359.85	23.64
360.06	22.78
360.269	22.33
360.479	22.02
360.689	22.14
360.899	21.25
361.108	21.42
361.318	22.13
361.528	21.59
361.737	21.55
361.947	21.33
362.156	21.69
362.366	21.56
362.576	21.23
362.785	21.57
362.995	21.49
363.204	22.09
363.414	22.45
363.623	22.67
363.833	23.21
364.042	23.05
364.252	22.22
364.461	21.63
364.671	22.05
364.88	22.07
365.09	21.76
365.299	22.14
365.509	21.72
365.718	21.64
365.927	20.95
366.137	20.51
366.346	19.59
366.555	19.92
366.765	20.07
366.974	20.35
367.183	21.29
367.393	21.16
367.602	20.5
367.811	20.27
368.021	19.52
368.23	19.44
368.439	19.36
368.648	19.37
368.857	19.28
369.067	18.74
369.276	17.8
369.485	17.05
369.694	16.42
369.903	16.5
370.112	17.52
370.321	17.22
370.531	17.08
370.74	16.64
370.949	16.07
371.158	16.04
371.367	16.15
371.576	16.66
371.785	16.65
371.994	17.31
372.203	16.83
372.412	16.07
372.621	16.39
372.83	16.04
373.039	16.38
373.248	16.51
373.457	16.88
373.666	16.96
373.874	16.57
374.083	16.18
374.292	15.74
374.501	16.11
374.71	16.93
374.919	17.08
375.128	17.11
375.336	16.61
375.545	17.13
375.754	16.69
375.963	17.13
376.171	17.4
376.38	17.64
376.589	17.68
376.798	17.56
377.006	16.46
377.215	16.42
377.424	17.18
377.632	18.21
377.841	17.69
378.05	18.33
378.258	18.14
378.467	18.35
378.675	18.14
378.884	18.2
379.093	18.36
379.301	18.39
379.51	18.29
379.718	17.8
379.927	17.03
380.135	17.31
380.344	16.92
380.552	16.76
380.761	16.17
380.969	16.1
381.177	15.98
381.386	16.15
381.594	16.68
381.803	16.28
382.011	15.96
382.219	15.8
382.428	15.93
382.636	15.53
382.845	15.27
383.053	15.34
383.261	14.89
383.469	14.8
383.678	14.38
383.886	14.09
384.094	14.42
384.302	14.59
384.511	14.6
384.719	14.12
384.927	14.43
385.135	14.41
385.343	14.18
385.552	14.4
385.76	14.58
385.968	14.64
386.176	14.62
386.384	14.31
386.592	13.74
386.8	13.33
387.008	13.32
387.216	12.85
387.424	12.56
387.633	12.57
387.841	12.47
388.049	12.35
388.257	12.48
388.465	12.28
388.672	12.02
388.88	12.28
389.088	12.53
389.296	12.66
389.504	13.01
389.712	13.53
389.92	13.43
390.128	13.26
390.336	13.3
390.544	13.02
390.751	13.08
390.959	13.1
391.167	13.01
391.375	13
391.583	12.84
391.79	12.3
391.998	12.1
392.206	12.21
392.414	12.4
392.621	12.12
392.829	12.32
393.037	12.18
393.244	12.06
393.452	12.03
393.66	11.73
393.867	11.28
394.075	11.51
394.283	11.07
394.49	11.18
394.698	11.06
394.905	11.05
395.113	10.65
395.32	10.44
395.528	10.75
395.735	10.58
395.943	10.97
396.15	11.42
396.358	11.85
396.565	12.16
396.773	12.06
396.98	12.2
397.188	12.46
397.395	12.53
397.602	12.96
397.81	12.75
398.017	13.09
398.225	13.04
398.432	12.92
398.639	12.46
398.847	12.52
399.054	12.39
399.261	12.18
399.468	11.55
399.676	11.38
399.883	10.83
400.09	10.75
400.297	10.33
400.505	10.17
400.712	10.04
400.919	10.01
401.126	9.5
401.333	9.49
401.54	9.65
401.748	10.12
401.955	10.24
402.162	10.22
402.369	10.59
402.576	10.67
402.783	10.77
402.99	10.45
403.197	10.63
403.404	10.85
403.611	10.67
403.818	10.73
404.025	10.76
404.232	10.81
404.439	11.28
404.646	11.03
404.853	11.13
405.06	11.03
405.267	11.24
405.474	11.16
405.681	11.21
405.887	11.29
406.094	11.1
406.301	10.96
406.508	10.71
406.715	10.59
406.922	10.78
407.128	10.89
407.335	10.76
407.542	11.01
407.749	10.97
407.955	10.86
408.162	10.74
408.369	10.98
408.575	10.84
408.782	11.07
408.989	11.13
409.195	11
409.402	11.04
409.609	10.87
409.815	10.99
410.022	10.74
410.228	10.87
410.435	11.09
410.642	10.92
410.848	11.17
411.055	11.2
411.261	10.95
411.468	10.83
411.674	10.65
411.881	10.74
412.087	10.67
412.294	10.8
412.5	10.73
412.706	10.95
412.913	11.06
413.119	10.94
413.326	10.97
413.532	10.91
413.738	10.82
413.945	10.89
414.151	11.06
414.357	10.99
414.564	11.01
414.77	11.12
414.976	10.63
415.182	10.59
415.389	10.41
415.595	10.11
415.801	10.27
416.007	10.42
416.214	10.46
416.42	10.38
416.626	10.37
416.832	10.26
417.038	10.34
417.244	10.21
417.45	10.35
417.657	10.52
417.863	10.66
418.069	10.75
418.275	10.66
418.481	10.5
418.687	10.38
418.893	10.35
419.099	10.45
419.305	10.13
419.511	10.35
419.717	10.22
419.923	10.27
420.129	10.21
420.335	10.08
420.541	10.15
420.746	10.11
420.952	10.37
421.158	10.36
421.364	10.27
421.57	10.35
421.776	10.31
421.982	10.17
422.187	10.13
422.393	10.09
422.599	10.14
422.805	10.09
423.01	10.15
423.216	9.9
423.422	9.92
423.628	9.89
423.833	10
424.039	9.93
424.245	10.03
424.45	9.95
424.656	10.08
424.862	10.26
425.067	10.5
425.273	10.5
425.478	10.46
425.684	10.4
425.889	10.48
426.095	10.5
426.301	10.52
426.506	10.41
426.712	10.44
426.917	10.3
427.123	10.06
427.328	9.84
427.533	9.74
427.739	9.86
427.944	9.96
428.15	9.89
428.355	9.69
428.561	10.02
428.766	10.16
428.971	10.19
429.177	10.25
429.382	10.26
429.587	10.04
429.793	10.18
429.998	10.19
430.203	10.07
430.408	10.04
430.614	10.22
430.819	10.1
431.024	10.31
431.229	10.3
431.434	10.14
431.64	10.01
431.845	10.12
432.05	9.89
432.255	9.96
432.46	10.21
432.665	10.29
432.87	10.18
433.076	10.05
433.281	9.89
433.486	9.78
433.691	9.93
433.896	9.89
434.101	10.06
434.306	10.22
434.511	10.1
434.716	9.86
434.921	9.93
435.126	10.09
435.331	9.94
435.535	9.89
435.74	9.82
435.945	9.77
436.15	9.88
436.355	9.65
436.56	9.64
436.765	9.58
436.97	9.36
437.174	9.26
437.379	9.2
437.584	9.29
437.789	9.42
437.993	9.66
438.198	9.67
438.403	9.83
438.608	9.7
438.812	9.63
439.017	9.65
439.222	9.88
439.426	9.85
439.631	9.94
439.836	10.14
440.04	10.04
440.245	9.99
440.45	9.96
440.654	9.79
440.859	9.98
441.063	10.06
441.268	10.01
441.472	9.88
441.677	9.94
441.881	9.69
442.086	9.57
442.29	9.5
442.495	9.37
442.699	9.19
442.904	9.25
443.108	9.09
443.312	8.99
443.517	9.06
443.721	9.12
443.925	9.26
444.13	9.24
444.334	9.1
444.538	9.15
444.743	9.35
444.947	9.47
445.151	9.47
445.356	9.44
445.56	9.45
445.764	9.5
445.968	9.56
446.173	9.48
446.377	9.41
446.581	9.41
446.785	9.43
446.989	9.32
447.193	9.37
447.398	9.2
447.602	9.32
447.806	9.3
448.01	9.22
448.214	9.16
448.418	9.09
448.622	9.41
448.826	9.41
449.03	9.34
449.234	9.26
449.438	9.14
449.642	9.07
449.846	8.92
450.05	8.92
450.254	9
450.458	9.2
450.662	9.12
450.866	8.9
451.069	8.94
451.273	8.85
451.477	8.96
451.681	9.2
451.885	9.45
452.089	9.54
452.292	9.45
452.496	9.44
452.7	9.34
452.904	9.66
453.107	9.61
453.311	9.71
453.515	9.89
453.719	9.85
453.922	9.83
454.126	9.68
454.33	9.47
454.533	9.5
454.737	9.32
454.94	9.1
455.144	8.93
455.348	8.96
455.551	8.95
455.755	8.93
455.958	8.95
456.162	8.81
456.365	8.91
456.569	9.15
456.772	9.23
456.976	9.38
457.179	9.63
457.383	9.57
457.586	9.57
457.79	9.49
457.993	9.45
458.196	9.52
458.4	9.51
458.603	9.45
458.807	9.24
459.01	9.25
459.213	9.15
459.417	9.02
459.62	9.03
459.823	8.99
460.026	9.08
460.23	9.11
460.433	9.05
460.636	9.02
460.839	9.04
461.042	9.17
461.246	9.16
461.449	9.25
461.652	9.39
461.855	9.25
462.058	9.33
462.261	9.25
462.464	9.33
462.668	9.36
462.871	9.41
463.074	9.68
463.277	9.72
463.48	9.52
463.683	9.59
463.886	9.46
464.089	9.46
464.292	9.47
464.495	9.46
464.698	9.31
464.901	9.21
465.104	9.24
465.306	8.98
465.509	8.76
465.712	9.02
465.915	8.89
466.118	9.02
466.321	9.23
466.524	9.32
466.726	9.31
466.929	9.48
467.132	9.56
467.335	9.5
467.538	9.57
467.74	9.68
467.943	9.57
468.146	9.66
468.348	9.52
468.551	9.37
468.754	9.25
468.956	9.13
469.159	8.98
469.362	8.74
469.564	8.59
469.767	8.4
469.969	8.6
470.172	8.84
470.375	8.73
470.577	8.9
470.78	8.96
470.982	8.84
471.185	8.88
471.387	8.81
471.59	9.09
471.792	9.2
471.995	9.28
472.197	8.98
472.399	8.9
472.602	8.93
472.804	8.7
473.007	8.62
473.209	8.93
473.411	8.99
473.614	9.05
473.816	9.05
474.018	8.87
474.22	9.06
474.423	9.27
474.625	9.06
474.827	8.9
475.03	9.07
475.232	9.08
475.434	8.91
475.636	8.9
475.838	8.95
476.04	9.1
476.243	9.46
476.445	9.55
476.647	9.48
476.849	9.63
477.051	9.89
477.253	9.81
477.455	9.92
477.657	9.88
477.859	9.92
478.061	9.93
478.263	9.5
478.465	9.49
478.667	9.15
478.869	9.16
479.071	9.17
479.273	8.97
479.475	9.04
479.677	8.9
479.879	8.95
480.081	8.87
480.283	8.66
480.485	8.83
480.686	8.7
480.888	8.9
481.09	8.93
481.292	8.87
481.494	8.99
481.695	8.97
481.897	9.04
482.099	8.99
482.301	9.07
482.502	9.08
482.704	9.16
482.906	9.25
483.107	9.22
483.309	9.13
483.511	9.1
483.712	9.11
483.914	9.1
484.115	9.1
484.317	9.07
484.519	9.08
484.72	9.12
484.922	9.07
485.123	9.03
485.325	9.07
485.526	9.09
485.728	9.14
485.929	9.16
486.131	9.17
486.332	9.24
486.534	9.32
486.735	9.29
486.936	9.29
487.138	9.41
487.339	9.39
487.541	9.32
487.742	9.3
487.943	9.28
488.144	9.17
488.346	9.26
488.547	9.13
488.748	9.13
488.95	9.12
489.151	9.09
489.352	9
489.553	8.98
489.755	8.98
489.956	9.17
490.157	9.23
490.358	9.3
490.559	9.17
490.76	9.3
490.961	9.23
491.163	9.22
491.364	9.25
491.565	9.28
491.766	9.25
491.967	9.21
492.168	9.12
492.369	9.03
492.57	8.96
492.771	8.95
492.972	8.82
493.173	8.76
493.374	8.7
493.575	8.64
493.776	8.56
493.976	8.52
494.177	8.4
494.378	8.35
494.579	8.41
494.78	8.66
494.981	8.71
495.182	8.74
495.382	8.88
495.583	8.97
495.784	9.07
495.985	8.98
496.185	9.03
496.386	9.31
496.587	9.29
496.788	9.24
496.988	9.25
497.189	9.28
497.39	9.23
497.59	9.26
497.791	9.39
497.992	9.34
498.192	9.33
498.393	9.4
498.593	9.3
498.794	9.37
498.994	9.53
499.195	9.51
499.395	9.57
499.596	9.67
499.796	9.65
499.997	9.56
500.197	9.6
500.398	9.63
500.598	9.67
500.799	9.8
500.999	9.73
501.199	9.68
501.4	9.48
501.6	9.43
501.801	9.48
502.001	9.62
502.201	9.59
502.402	9.67
502.602	9.83
502.802	9.91
503.002	9.94
503.203	10
503.403	9.88
503.603	9.8
503.803	9.78
504.003	9.74
504.204	9.68
504.404	9.65
504.604	9.6
504.804	9.55
505.004	9.55
505.204	9.33
505.404	9.27
505.604	9.44
505.804	9.65
506.005	9.77
506.205	9.77
506.405	9.6
506.605	9.72
506.805	9.76
507.005	9.8
507.204	9.74
507.404	9.78
507.604	9.93
507.804	9.81
508.004	9.62
508.204	9.47
508.404	9.63
508.604	9.89
508.804	9.74
509.003	9.71
509.203	9.73
509.403	9.82
509.603	9.94
509.803	9.89
510.002	9.93
510.202	10.09
510.402	10.31
510.602	10.28
510.801	10.17
511.001	10.26
511.201	10.38
511.4	10.39
511.6	10.26
511.8	10.2
511.999	10.31
512.199	10.24
512.398	10.27
512.598	10.23
512.797	10.16
512.997	10.14
513.197	10.25
513.396	10.27
513.596	10.41
513.795	10.46
513.994	10.42
514.194	10.26
514.393	10.21
514.593	10.23
514.792	10.11
514.992	10.28
515.191	10.36
515.39	10.29
515.59	10.17
515.789	10.09
515.988	9.99
516.188	10.09
516.387	10.03
516.586	10.16
516.786	10.18
516.985	10.12
517.184	10.09
517.383	10.21
517.582	10.27
517.782	10.31
517.981	10.25
518.18	10.28
518.379	10.37
518.578	10.45
518.777	10.6
518.976	10.56
519.176	10.66
519.375	10.69
519.574	10.73
519.773	10.76
519.972	10.74
520.171	10.76
520.37	10.77
520.569	10.83
520.768	10.84
520.967	10.65
521.166	10.56
521.365	10.65
521.564	10.55
521.762	10.4
521.961	10.39
522.16	10.49
522.359	10.61
522.558	10.77
522.757	10.69
522.956	10.78
523.154	10.93
523.353	10.99
523.552	11.01
523.751	11.08
523.949	11.07
524.148	11.1
524.347	11.1
524.546	11.09
524.744	10.93
524.943	10.95
525.142	10.85
525.34	10.85
525.539	10.85
525.737	10.79
525.936	10.86
526.135	11.03
526.333	11.03
526.532	11.07
526.73	11.09
526.929	11.18
527.127	11.25
527.326	11.31
527.524	11.38
527.723	11.44
527.921	11.5
528.12	11.47
528.318	11.4
528.516	11.44
528.715	11.4
528.913	11.49
529.112	11.51
529.31	11.48
529.508	11.5
529.707	11.5
529.905	11.5
530.103	11.49
530.301	11.49
530.5	11.54
530.698	11.45
530.896	11.58
531.094	11.53
531.293	11.53
531.491	11.58
531.689	11.62
531.887	11.69
532.085	11.75
532.283	11.77
532.481	11.84
532.68	11.93
532.878	12.13
533.076	12.08
533.274	12.12
533.472	12.1
533.67	12.07
533.868	12.06
534.066	12.03
534.264	12.01
534.462	12
534.66	12
534.858	11.92
535.056	11.91
535.253	11.89
535.451	11.9
535.649	11.94
535.847	12.08
536.045	12.22
536.243	12.31
536.441	12.47
536.638	12.45
536.836	12.59
537.034	12.55
537.232	12.49
537.43	12.61
537.627	12.6
537.825	12.6
538.023	12.58
538.22	12.53
538.418	12.52
538.616	12.49
538.813	12.61
539.011	12.47
539.209	12.79
539.406	12.86
539.604	13.03
539.801	13.2
539.999	13.45
540.196	13.51
540.394	13.59
540.591	13.58
540.789	13.69
540.986	13.71
541.184	13.76
541.381	13.64
541.579	13.57
541.776	13.52
541.974	13.53
542.171	13.46
542.368	13.53
542.566	13.57
542.763	13.61
542.96	13.59
543.158	13.67
543.355	13.78
543.552	13.89
543.75	14.06
543.947	14.11
544.144	14.08
544.341	14.08
544.539	14.1
544.736	14.11
544.933	14.21
545.13	14.33
545.327	14.32
545.524	14.27
545.722	14.26
545.919	14.36
546.116	14.46
546.313	14.67
546.51	14.87
546.707	14.9
546.904	14.89
547.101	14.92
547.298	14.92
547.495	15.16
547.692	15.43
547.889	15.51
548.086	15.63
548.283	15.6
548.48	15.69
548.677	15.65
548.874	15.79
549.07	15.89
549.267	15.89
549.464	15.89
549.661	15.86
549.858	15.69
550.055	15.85
550.251	15.81
550.448	15.93
550.645	15.85
550.842	16.26
551.038	16.26
551.235	16.51
551.432	16.65
551.628	16.78
551.825	16.77
552.022	16.89
552.218	16.78
552.415	16.82
552.612	16.92
552.808	16.99
553.005	16.98
553.201	17.11
553.398	17.2
553.594	17.17
553.791	17.07
553.987	17.12
554.184	17.25
554.38	17.31
554.577	17.35
554.773	17.47
554.97	17.61
555.166	17.71
555.362	17.74
555.559	17.65
555.755	17.73
555.952	17.97
556.148	18.2
556.344	18.37
556.541	18.56
556.737	18.86
556.933	18.8
557.129	18.66
557.326	18.44
557.522	18.45
557.718	18.72
557.914	18.86
558.11	18.88
558.307	18.75
558.503	18.74
558.699	18.67
558.895	18.63
559.091	18.54
559.287	18.63
559.483	18.61
559.679	18.65
559.876	18.47
560.072	18.49
560.268	18.54
560.464	18.69
560.66	18.73
560.856	18.86
561.052	18.83
561.247	19.07
561.443	19.14
561.639	19.47
561.835	19.68
562.031	19.74
562.227	19.76
562.423	19.81
562.619	19.98
562.815	19.94
563.01	20.13
563.206	20.26
563.402	20.25
563.598	20.41
563.793	20.39
563.989	20.12
564.185	20.26
564.381	20.55
564.576	20.7
564.772	20.43
564.968	20.44
565.163	20.53
565.359	20.51
565.555	20.66
565.75	20.67
565.946	20.79
566.141	21.1
566.337	21.04
566.532	21.03
566.728	20.98
566.923	21.22
567.119	21.4
567.314	21.4
567.51	21.33
567.705	21.28
567.901	21.42
568.096	21.66
568.292	21.6
568.487	21.85
568.682	21.88
568.878	22.05
569.073	22.08
569.268	22.34
569.464	22.35
569.659	22.41
569.854	22.44
570.05	22.39
570.245	22.37
570.44	22.45
570.635	22.52
570.831	22.46
571.026	22.49
571.221	22.41
571.416	22.3
571.611	22.45
571.806	22.65
572.002	22.72
572.197	22.89
572.392	22.92
572.587	23.02
572.782	23.12
572.977	23.29
573.172	23.19
573.367	23.4
573.562	23.23
573.757	23.25
573.952	23.15
574.147	23.19
574.342	23.17
574.537	22.97
574.732	22.9
574.927	22.8
575.121	22.77
575.316	23.12
575.511	23.3
575.706	23.61
575.901	23.73
576.096	23.92
576.29	23.95
576.485	23.99
576.68	24
576.875	24.18
577.069	24.28
577.264	24.27
577.459	24.05
577.654	23.92
577.848	23.68
578.043	23.53
578.238	23.62
578.432	23.79
578.627	23.8
578.821	24.02
579.016	23.84
579.21	23.74
579.405	23.9
579.6	23.97
579.794	24.02
579.989	24.12
580.183	24.13
580.378	23.96
580.572	24.04
580.766	24.17
580.961	24.03
581.155	24.01
581.35	24.2
581.544	24.23
581.738	24.49
581.933	24.66
582.127	24.73
582.321	24.67
582.516	24.34
582.71	24.2
582.904	24.28
583.099	24.3
583.293	24.66
583.487	24.46
583.681	24.21
583.875	23.77
584.07	23.55
584.264	23.71
584.458	23.98
584.652	24.64
584.846	24.58
585.04	24.63
585.234	24.79
585.428	24.84
585.623	25.03
585.817	25.43
586.011	25.66
586.205	25.68
586.399	25.77
586.593	25.71
586.787	25.71
586.981	26
587.174	25.8
587.368	25.89
587.562	26.22
587.756	26.02
587.95	26.02
588.144	26.04
588.338	26.13
588.532	26.12
588.725	26.08
588.919	25.7
589.113	25.53
589.307	25.61
589.501	25.7
589.694	25.12
589.888	25.44
590.082	25.49
590.275	25.5
590.469	25.47
590.663	25.38
590.856	25.41
591.05	25.56
591.244	25.52
591.437	25.41
591.631	25.09
591.824	25.52
592.018	25.37
592.212	25.04
592.405	25.06
592.599	25.07
592.792	25.09
592.986	25.14
593.179	25.28
593.372	25.38
593.566	25.59
593.759	25.94
593.953	25.59
594.146	25.66
594.339	25.99
594.533	25.77
594.726	25.85
594.92	25.85
595.113	25.84
595.306	25.82
595.499	25.97
595.693	25.8
595.886	25.76
596.079	25.91
596.272	26.25
596.466	26
596.659	26.29
596.852	26.13
597.045	26.04
597.238	26.04
597.431	25.94
597.624	25.88
597.818	25.99
598.011	25.89
598.204	25.83
598.397	25.44
598.59	25.63
598.783	25.62
598.976	25.79
599.169	25.8
599.362	25.89
599.555	26.19
599.748	26.13
599.941	26.24
600.134	26.49
600.326	26.48
600.519	26.58
600.712	26.51
600.905	26.62
601.098	26.64
601.291	26.76
601.483	26.89
601.676	26.97
601.869	26.93
602.062	26.85
602.255	26.8
602.447	26.92
602.64	26.93
602.833	27.14
603.025	26.91
603.218	26.74
603.411	26.68
603.603	26.63
603.796	26.5
603.989	26.62
604.181	26.67
604.374	26.54
604.566	26.54
604.759	26.56
604.951	26.49
605.144	26.49
605.336	26.7
605.529	26.86
605.721	26.73
605.914	26.88
606.106	27
606.299	27.15
606.491	27.32
606.683	27.2
606.876	27.02
607.068	27.09
607.26	27.16
607.453	26.92
607.645	26.94
607.837	27.01
608.03	26.89
608.222	26.84
608.414	26.49
608.606	26.38
608.799	26.58
608.991	26.66
609.183	26.56
609.375	26.81
609.567	27.02
609.759	27.12
609.952	27.27
610.144	26.98
610.336	26.8
610.528	26.92
610.72	27.34
610.912	27.44
611.104	27.67
611.296	27.65
611.488	27.51
611.68	27.27
611.872	27.18
612.064	27.09
612.256	27.25
612.448	27.21
612.64	27.21
612.832	26.52
613.023	26.46
613.215	26.33
613.407	26.5
613.599	26.52
613.791	26.59
613.983	26.42
614.174	26.47
614.366	26.54
614.558	26.84
614.75	27.19
614.941	27.43
615.133	27.24
615.325	27.13
615.516	27.1
615.708	27.19
615.9	27.44
616.091	27.76
616.283	28.12
616.475	28.1
616.666	28.09
616.858	27.79
617.049	27.78
617.241	28.01
617.432	27.88
617.624	28.07
617.815	28.05
618.007	27.74
618.198	27.47
618.39	27.24
618.581	27.64
618.773	27.63
618.964	27.6
619.155	27.5
619.347	27.34
619.538	27.67
619.729	27.21
619.921	26.85
620.112	27.26
620.303	27.86
620.494	27.6
620.686	27.09
620.877	27
621.068	26.98
621.259	27
621.451	27.03
621.642	27.08
621.833	27
622.024	27.16
622.215	26.75
622.406	26.21
622.597	26.55
622.788	26.97
622.98	27.02
623.171	26.79
623.362	27.28
623.553	27.09
623.744	26.97
623.935	27.54
624.126	27.99
624.317	28.54
624.508	28.47
624.698	28.24
624.889	28.32
625.08	28.15
625.271	28.46
625.462	28.04
625.653	28.17
625.844	28.15
626.034	27.73
626.225	27.44
626.416	27.08
626.607	27.05
626.798	27.06
626.988	27
627.179	27.3
627.37	27.25
627.56	27.22
627.751	27.23
627.942	27.31
628.132	27.56
628.323	27.61
628.514	27.8
628.704	27.75
628.895	27.86
629.085	28.07
629.276	28.27
629.466	28.18
629.657	28.02
629.847	27.94
630.038	28.02
630.228	27.85
630.419	27.72
630.609	27.68
630.8	27.92
630.99	28.24
631.181	27.95
631.371	27.64
631.561	27.81
631.752	28.44
631.942	28.41
632.132	28.68
632.323	28.89
632.513	29.14
632.703	29.15
632.893	29
633.084	28.63
633.274	28.59
633.464	28.69
633.654	28.75
633.844	28.39
634.034	28.43
634.225	28.09
634.415	27.8
634.605	27.49
634.795	27.31
634.985	27.37
635.175	27.54
635.365	27.55
635.555	27.23
635.745	27.1
635.935	26.96
636.125	26.95
636.315	26.85
636.505	27.25
636.695	27.57
636.885	27.85
637.075	28
637.265	28.15
637.455	28.17
637.644	28.36
637.834	28.27
638.024	28.62
638.214	28.79
638.404	28.72
638.593	28.8
638.783	29.05
638.973	28.69
639.163	28.44
639.352	27.9
639.542	28.04
639.732	28.4
639.921	28.49
640.111	28.63
640.301	28.7
640.49	29.35
640.68	29.13
640.87	28.88
641.059	29.19
641.249	29.82
641.438	30
641.628	30
641.817	29.56
642.007	29.73
642.196	29.53
642.386	29.39
642.575	28.95
642.764	29.1
642.954	29.22
643.143	29.19
643.333	28.62
643.522	28.85
643.711	28.73
643.901	28.95
644.09	28.81
644.279	28.59
644.469	28.72
644.658	28.95
644.847	28.93
645.036	28.75
645.226	29.23
645.415	29.36
645.604	28.95
645.793	28.94
645.982	28.84
646.171	28.95
646.361	29.21
646.55	28.87
646.739	28.57
646.928	28.53
647.117	28.47
647.306	28.04
647.495	28.57
647.684	28.69
647.873	28.8
648.062	29
648.251	28.94
648.44	28.41
648.629	28.43
648.818	28.68
649.007	28.57
649.196	28.48
649.384	28.54
649.573	28.02
649.762	27.65
649.951	27.69
650.14	27.37
650.328	27.08
650.517	27.34
650.706	27.68
650.895	27.44
651.083	27.78
651.272	27.95
651.461	27.69
651.65	27.89
651.838	28.25
652.027	28.1
652.216	28.16
652.404	28.6
652.593	28.73
652.781	28.6
652.97	28.71
653.158	28.56
653.347	28.51
653.535	28.8
653.724	28.54
653.912	28.42
654.101	28.46
654.289	28.5
654.478	28.63
654.666	28.47
654.855	28.6
655.043	28.2
655.231	28.03
655.42	27.89
655.608	27.83
655.796	27.87
655.985	28.16
656.173	28.33
656.361	28.32
656.55	28.03
656.738	28.46
656.926	28.33
657.114	28.5
657.302	28.15
657.491	28.15
657.679	27.94
657.867	28.2
658.055	28.27
658.243	27.95
658.431	28.48
658.619	28.45
658.807	28.3
658.996	28.82
659.184	28.89
659.372	29.07
659.56	29.17
659.748	29.37
659.936	29.13
660.124	29.06
660.311	29.33
660.499	28.63
660.687	28.64
660.875	28.9
661.063	28.58
661.251	28.92
661.439	28.88
661.627	28.88
661.814	29.01
662.002	28.85
662.19	28.77
662.378	28.25
662.565	28.5
662.753	28.87
662.941	28.93
663.129	28.53
663.316	28.32
663.504	28.72
663.692	28.61
663.879	28.67
664.067	28.6
664.254	28.26
664.442	28.86
664.63	28.96
664.817	28.39
665.005	28.22
665.192	28.53
665.38	28.7
665.567	28.74
665.755	29.49
665.942	29.14
666.13	29.36
666.317	29.34
666.504	29.26
666.692	29.05
666.879	29.09
667.067	28.91
667.254	29.16
667.441	28.85
667.629	28.18
667.816	27.53
668.003	27.67
668.19	28.03
668.378	28.66
668.565	28.86
668.752	29.35
668.939	29.84
669.127	29.94
669.314	29.24
669.501	29.49
669.688	29.52
669.875	29.89
670.062	29.99
670.249	29.27
670.436	29.01
670.623	28.68
670.81	28.26
670.997	27.76
671.184	27.61
671.371	28.08
671.558	28.34
671.745	28.92
671.932	28.36
672.119	28.24
672.306	28.33
672.493	28.14
672.68	28.08
672.867	28.76
673.054	29.1
673.24	29.4
673.427	29.32
673.614	29.18
673.801	28.68
673.988	29.47
674.174	29.36
674.361	30.01
674.548	30.68
674.734	31.09
674.921	30.79
675.108	31.38
675.294	31.24
675.481	31.73
675.668	31.1
675.854	31.56
676.041	31.23
676.227	31.51
676.414	31.26
676.601	30.94
676.787	30.72
676.974	30.83
677.16	30.18
677.347	29.95
677.533	29.66
677.719	29.74
677.906	29.47
678.092	29.39
678.279	29.39
678.465	29.38
678.651	29.48
678.838	29.52
679.024	29.01
679.21	29.15
679.397	28.98
679.583	28.77
679.769	28.66
679.955	28.81
680.142	28.72
680.328	28.93
680.514	28.94
680.7	28.55
680.886	28.5
681.073	28.58
681.259	28.63
681.445	29.15
681.631	29.51
681.817	29.7
682.003	29.39
682.189	29.65
682.375	29.04
682.561	29.17
682.747	29.39
682.933	29.43
683.119	29.27
683.305	29.11
683.491	28.65
683.677	28.55
683.863	28.14
684.049	28.85
684.235	28.5
684.42	28.39
684.606	28.62
684.792	28.76
684.978	28.65
685.164	29
685.349	28.85
685.535	28.46
685.721	28.05
685.907	28.42
686.092	28.16
686.278	28.21
686.464	28.52
686.649	28.44
686.835	28.45
687.021	28.45
687.206	28.64
687.392	29.18
687.577	29.62
687.763	29.87
687.948	30.01
688.134	29.85
688.319	29.89
688.505	30.21
688.69	30.31
688.876	30.78
689.061	31.01
689.247	31.08
689.432	30.64
689.618	31.07
689.803	31.15
689.988	31.36
690.174	31.33
690.359	31.49
690.544	31.48
690.73	31.34
690.915	30.87
691.1	30.62
691.285	30.15
691.471	30.08
691.656	29.38
691.841	29.09
692.026	28.66
692.211	28.63
692.396	28.72
692.582	28.67
692.767	28.9
692.952	28.64
693.137	28.47
693.322	28.64
693.507	28.59
693.692	28.78
693.877	29.05
694.062	29.48
694.247	29.08
694.432	29.29
694.617	28.94
694.802	28.65
694.987	28.66
695.172	29.17
695.357	29.42
695.541	29.39
695.726	29.67
695.911	29.75
696.096	29.61
696.281	29.96
696.466	30.08
696.65	29.92
696.835	29.89
697.02	30
697.204	29.96
697.389	29.55
697.574	29.68
697.759	29.93
697.943	29.92
698.128	29.73
698.312	29.76
698.497	29.03
698.682	29.21
698.866	29.44
699.051	29.47
699.235	29.16
699.42	29.32
699.604	29.39
699.789	29.4
699.973	29.18
700.158	29.57
700.342	29.96
700.527	30.36
700.711	30.48
700.895	30.13
701.08	30.49
701.264	30.59
701.448	30.87
701.633	30.72
701.817	30.5
702.001	30.38
702.186	30.02
702.37	29.19
702.554	29.75
702.738	30.03
702.923	30.25
703.107	29.55
703.291	29.44
703.475	28.45
703.659	28.87
703.843	28.51
704.027	29.01
704.212	28.78
704.396	29.33
704.58	28.71
704.764	28.62
704.948	28.22
705.132	29.38
705.316	29.42
705.5	30.5
705.684	30.3
705.868	30.51
706.052	30.26
706.235	30.38
706.419	30
706.603	29.43
706.787	28.82
706.971	28.54
707.155	27.07
707.339	27.53
707.522	27.13
707.706	27.14
707.89	26.58
708.074	26.54
708.257	27.02
708.441	27.69
708.625	28.1
708.808	28.56
708.992	29.33
709.176	29.85
709.359	30.41
709.543	30.83
709.727	30.42
709.91	31.24
710.094	31.84
710.277	31.39
710.461	31.19
710.644	31.69
710.828	31.45
711.011	31.15
711.195	30.72
711.378	30.15
711.562	29.99
711.745	30.2
711.928	30.49
712.112	29.71
712.295	29.84
712.478	29.28
712.662	29.16
712.845	29.58
713.028	29.63
713.212	29.75
713.395	29.59
713.578	29.19
713.761	29.41
713.945	29.03
714.128	29.32
714.311	29.57
714.494	29.55
714.677	29.44
714.86	29.23
715.043	29.16
715.227	29.32
715.41	29.8
715.593	29.55
715.776	29.22
715.959	28.37
716.142	28.73
716.325	28.82
716.508	29.14
716.691	28.75
716.874	28.79
717.057	29.31
717.239	29.86
717.422	29.89
717.605	30.76
717.788	31.3
717.971	31.84
718.154	31.45
718.337	30.92
718.519	31.3
718.702	31.59
718.885	31.26
719.068	30.85
719.25	30.73
719.433	30.49
719.616	30.36
719.798	29.66
719.981	30.04
720.164	29.59
720.346	30.26
720.529	29.9
720.712	29.9
720.894	29.97
721.077	29.51
721.259	29.83
721.442	29.63
721.624	29.99
721.807	30.44
721.989	29.62
722.172	29.58
722.354	28.77
722.537	28.73
722.719	27.85
722.901	28.58
723.084	29.69
723.266	28.32
723.448	28.09
723.631	27.32
723.813	27.92
723.995	29.1
724.178	29.34
724.36	29.68
724.542	29.41
724.724	29.53
724.907	29.1
725.089	28.09
725.271	28.92
725.453	29.65
725.635	29.31
725.817	27.91
725.999	27.57
726.181	27.72
726.364	27.78
726.546	28.33
726.728	29.58
726.91	29.2
727.092	29.56
727.274	29.83
727.456	29.69
727.638	30.12
727.819	31.25
728.001	30.78
728.183	30.72
728.365	30.54
728.547	30.09
728.729	29.73
728.911	29.87
729.093	29.49
729.274	29.38
729.456	29.21
729.638	28.74
729.82	28.51
730.001	28.27
730.183	28.24
730.365	28.63
730.546	29.74
730.728	28.81
730.91	28.67
731.091	28.88
731.273	29.62
731.455	29.09
731.636	29.46
731.818	28.9
731.999	29.52
732.181	30.06
732.362	30.22
732.544	28.82
732.725	29.86
732.907	30.17
733.088	30.58
733.27	29.7
733.451	29.69
733.633	29.11
733.814	29.74
733.995	30.74
734.177	30.36
734.358	29.91
734.539	30.1
734.721	30.42
734.902	30.55
735.083	30.19
735.264	30.95
735.446	31.48
735.627	32.55
735.808	32.15
735.989	31.26
736.17	32.17
736.351	31.72
736.533	33.41
736.714	32.06
736.895	31
737.076	30.72
737.257	29.66
737.438	29.15
737.619	28.01
737.8	27.92
737.981	27.7
738.162	27.07
738.343	27.22
738.524	27.05
738.705	27.68
738.886	28.57
739.067	28.89
739.247	29.23
739.428	30.34
739.609	31.47
739.79	31.62
739.971	31.63
740.151	31.87
740.332	32.53
740.513	30.77
740.694	31.39
740.874	31.42
741.055	31.27
741.236	31.66
741.417	32.34
741.597	32.74
741.778	32.67
741.958	32.91
742.139	32.32
742.32	32.69
742.5	32.81
742.681	33.4
742.861	33.78
743.042	33.05
743.222	32.72
743.403	31.04
743.583	30.35
743.764	30.44
743.944	30.31
744.124	31.15
744.305	30.78
744.485	31.63
744.666	30.94
744.846	30.66
745.026	31.19
745.207	31
745.387	31.65
745.567	30.79
745.747	31.3
745.928	30.91
746.108	29.86
746.288	29.34
746.468	28.13
746.648	28.35
746.829	27.91
747.009	27.51
747.189	27.28
747.369	27.43
747.549	28
747.729	27.17
747.909	27.26
748.089	27.95
748.269	27.66
748.449	28.53
748.629	26.71
748.809	27.33
748.989	27.48
749.169	27.78
749.349	27.2
749.529	26.86
749.709	26.59
749.889	27.31
750.068	27.62
750.248	27.9
750.428	27.33
750.608	28.99
750.788	28.84
750.967	29.86
751.147	30.25
751.327	30.24
751.507	31.06
751.686	31.31
751.866	32.39
752.046	31.67
752.225	31.2
752.405	31.93
752.585	32.51
752.764	32.66
752.944	32.31
753.123	32.31
753.303	32.36
753.482	33
753.662	33.67
753.841	32.06
754.021	32.27
754.2	33.43
754.38	32.36
754.559	31.7
754.739	30.98
754.918	31.55
755.097	31.61
755.277	31.1
755.456	30.21
755.635	30.57
755.815	31.82
755.994	30.69
756.173	30.21
756.352	31.51
756.532	30.57
756.711	32.8
756.89	32.6
757.069	31.87
757.248	32.65
757.427	32.03
757.607	32.16
757.786	31.36
757.965	32.44
758.144	32.07
758.323	32.2
758.502	32.02
758.681	31.57
758.86	30.75
759.039	30.49
759.218	29.34
759.397	30.41
759.576	30.65
759.755	31.14
759.934	31.54
760.113	32.62
760.291	32.41
760.47	33.58
760.649	32.44
760.828	33.31
761.007	33.81
761.186	34.32
761.364	33.2
761.543	32.44
761.722	31.92
761.901	32.04
762.079	32.65
762.258	33.26
762.437	32.67
762.615	33.03
762.794	32.41
762.972	32.31
763.151	32.33
763.33	33.33
763.508	32.83
763.687	32.74
763.865	32.45
764.044	31.44
764.222	31.56
764.401	31.47
764.579	31.67
764.758	31.73
764.936	31.61
765.114	31.94
765.293	31.4
765.471	31.63
765.65	31.74
765.828	31.01
766.006	30.84
766.184	29.66
766.363	29.3
766.541	27.27
766.719	25.88
766.898	26
767.076	24.55
767.254	24.43
767.432	24.62
767.61	23.97
767.788	24.78
767.967	25.28
768.145	24.81
768.323	25.04
768.501	26.17
768.679	27.36
768.857	27.19
769.035	28.42
769.213	28.98
769.391	29.44
769.569	28.64
769.747	28.08
769.925	28.39
770.103	29.16
770.281	30.5
770.459	29.2
770.636	29.57
770.814	29.49
770.992	31.1
771.17	30.39
771.348	30.41
771.525	32.28
771.703	32.06
771.881	31.27
772.059	30.11
772.236	30.05
772.414	30.83
772.592	30.47
772.769	30.91
772.947	32.4
773.125	33.38
773.302	31.8
773.48	31.48
773.657	33.69
773.835	34.85
774.013	36.43
774.19	36.62
774.368	37.44
774.545	35.88
774.723	37.3
774.9	33.49
775.077	32.38
775.255	34.13
775.432	34.89
775.61	31.73
775.787	30.71
775.964	31.03
776.142	31.46
776.319	32.65
776.496	34.13
776.674	33.11
776.851	35.35
777.028	34.55
777.205	33.98
777.382	33.17
777.56	34.98
777.737	35.82
777.914	33.07
778.091	29.92
778.268	27.41
778.445	27.71
778.622	27.98
778.8	26.89
778.977	27.6
779.154	28.19
779.331	27.03
779.508	26.68
779.685	24.46
779.862	25.77
780.038	26.96
780.215	25.71
780.392	26.28
780.569	25.94
780.746	26.09
780.923	22.54
781.1	23.16
781.277	23.51
781.453	23.49
781.63	26.13
781.807	26.56
781.984	27.26
782.16	30.21
782.337	28.52
782.514	28.37
782.691	28.4
782.867	30.86
783.044	30.02
783.221	32.01
783.397	32.19
783.574	30.95
783.75	33.61
783.927	31.76
784.103	31.96
784.28	31.53
784.456	30.17
784.633	31.27
784.809	31.55
784.986	30.39
785.162	28.91
785.339	29.21
785.515	25.43
785.692	23.44
785.868	24.49
786.044	24.77
786.221	27.28
786.397	28.24
786.573	27.44
786.749	28.86
786.926	28.54
787.102	27.76
787.278	28.3
787.454	31.42
787.631	31.37
787.807	32.97
787.983	31.25
788.159	33.44
788.335	32.53
788.511	32.91
788.687	31.23
788.863	32.64
789.039	34.35
789.216	34.36
789.392	33.31
789.568	32.94
789.744	30.93
789.919	33.01
790.095	27.97
790.271	27.56
790.447	28.21
790.623	29.69
790.799	28.46
790.975	28.71
791.151	29.43
791.327	29.85
791.502	28.33
791.678	26.55
791.854	23.68
792.03	25.82
792.205	28.28
792.381	27.02
792.557	26.17
792.733	26.21
792.908	24.73
793.084	23.74
793.259	24.67
793.435	27.07
793.611	29.76
793.786	32.02
793.962	33.92
794.137	34.17
794.313	32.83
794.488	34.27
794.664	37.26
794.839	35.14
795.015	33.06
795.19	32.19
795.366	30.6
795.541	27.09
795.716	25.35
795.892	23.35
796.067	24.01
796.242	26.51
796.418	26.38
796.593	26.4
796.768	29.9
796.944	31.55
797.119	33.57
797.294	35.55
797.469	38.41
797.644	41.96
797.82	45.6
797.995	44.25
798.17	40.78
798.345	40.77
798.52	40.15
798.695	35.91
798.87	36.29
799.045	35.43
799.22	33.41
799.395	34.62
799.57	31.85
799.745	31.85
799.92	33.01
800.095	35.79
800.27	34.07
800.445	32.69
800.62	33.58
800.795	31.44
800.97	32.82
801.145	32.56
801.319	31.49
801.494	29.65
801.669	29.98
801.844	30.9
802.018	32.2
802.193	36.65
802.368	35.87
802.543	36.37
802.717	36.19
802.892	33.48
803.067	35.43
803.241	32.15
803.416	35.55
803.59	32.75
803.765	29.6
803.94	26.93
804.114	23.32
804.289	21.72
804.463	21.92
804.638	23.96
804.812	20.54
804.986	17.24
805.161	20.04
805.335	19.12
805.51	19.69
805.684	20.83
805.858	19.19
806.033	20.54
806.207	21.24
806.381	25.17
806.556	27.81
806.73	32.34
806.904	33.95
807.078	33.92
807.253	32.72
807.427	33.36
807.601	33.07
807.775	35.41
807.949	34.71
808.123	34.19
808.298	29.12
808.472	27.06
808.646	27.94
808.82	32.79
808.994	33.98
809.168	37.57
809.342	38.44
809.516	40.46
809.69	38.73
809.864	36.33
810.038	38.67
810.212	39.72
810.385	36.63
810.559	36.71
810.733	33.28
810.907	31.99
811.081	28.52
811.255	29.11
811.428	28.22
811.602	28.24
811.776	29.78
811.95	31.26
812.123	31.53
812.297	31.41
812.471	30.73
812.644	27.02
812.818	30.21
812.992	36.05
813.165	33.31
813.339	30.31
813.512	29.65
813.686	28.96
813.86	28.89
814.033	28.97
814.207	30.74
814.38	27.81
814.554	29.6
814.727	28.19
814.9	20.08
815.074	20.61
815.247	26.96
815.421	31.37
815.594	35.82
815.767	35.76
815.941	31.31
816.114	31.92
816.287	32.99
816.46	35.93
816.634	33.98
816.807	35.39
816.98	36.13
817.153	27.91
817.327	26.72
817.5	22.28
817.673	17.49
817.846	23.51
818.019	26.37
818.192	25.73
818.365	25.41
818.538	25.72
818.711	28.29
818.884	27.31
819.057	29.87
819.23	29.94
819.403	33.9
819.576	37.72
819.749	34.41
819.922	31.37
820.095	31.27
820.268	27.49
820.441	28.73
820.614	29.01
820.786	30.63
820.959	31.24
821.132	31.3
821.305	30.5
821.477	28.73
821.65	28.31
821.823	28.45
821.996	29.34
822.168	31.18
822.341	31.93
822.514	31.87
822.686	31.41
822.859	31.5
823.031	32.08
823.204	32.46
823.376	32.64
823.549	32.9
823.722	33.23
823.894	33.07
824.067	32.26
824.239	31.73
824.411	31.45
824.584	32.11
824.756	32.17
824.929	31.41
825.101	30.61
825.273	30.34
825.446	30.72
825.618	29.76
825.79	29.67
825.963	28.94
826.135	28.3
826.307	28.5
826.479	27.1
826.652	25.12
826.824	24.58
826.996	24.46
827.168	24.93
827.34	24.72
827.512	25.89
827.684	25.77
827.856	26.58
828.029	25.88
828.201	24.8
828.373	25.27
828.545	27.57
828.717	27.32
828.889	27.62
829.061	26.72
829.232	26.11
829.404	25.71
829.576	26.37
829.748	25.94
829.92	29.3
830.092	33.05
830.264	36
830.436	37.47
830.607	36.32
830.779	34.43
830.951	37.1
831.123	36.47
831.294	37.5
831.466	36.45
831.638	37.38
831.809	35.94
831.981	31.28
832.153	28.63
832.324	29.01
832.496	34.01
832.667	35.44
832.839	33.14
833.011	38.36
833.182	40.74
833.354	41.07
833.525	41.53
833.697	41.61
833.868	41.27
834.039	39.71
834.211	37.24
834.382	36.81
834.554	37.7
834.725	37.54
834.896	37.46
835.068	34.82
835.239	35.4
835.41	33.47
835.581	29.75
835.753	30.64
835.924	29.44
836.095	29.35
836.266	28.38
836.438	28.59
836.609	28.16
836.78	28.26
836.951	28.26
837.122	28.8
837.293	31.81
837.464	31.99
837.635	31.81
837.806	32.18
837.977	31.04
838.148	29.28
838.319	25.31
838.49	26.45
838.661	24.09
838.832	25.2
839.003	23.48
839.174	17.25
839.345	22.12
839.516	18.1
839.687	25.08
839.857	26.5
840.028	29.81
840.199	34.47
840.37	29.06
840.54	26.07
840.711	25.71
840.882	22.3
841.053	25.5
841.223	16.04
841.394	19.44
841.564	12.98
841.735	9.26
841.906	9.01
842.076	8.69
842.247	11.92
842.417	17.46
842.588	11.68
842.758	12.18
842.929	9.5
843.099	22.58
843.27	20.58
843.44	20.93
843.611	37.75
843.781	39.43
843.951	41.66
844.122	42.12
844.292	39.51
844.462	43.49
844.633	46.8
844.803	54.42
844.973	53.9
845.144	66.76
845.314	63.96
845.484	58.26
845.654	57.36
845.824	44.39
845.995	49.24
846.165	44.61
846.335	54.24
846.505	51.28
846.675	53.4
846.845	56.09
847.015	50.07
847.185	50.12
847.355	44.83
847.525	46.19
847.695	48.14
847.865	46.12
848.035	53.61
848.205	54.35
848.375	54.95
848.545	57.14
848.715	49.79
848.884	49.19
849.054	51.35
849.224	55.75
849.394	47.03
849.564	48.13
849.733	44.71
849.903	47.04
850.073	40.62
850.243	41.63
850.412	30.01
850.582	32.2
850.752	37.02
850.921	42.67
851.091	44.8
851.26	42.41
851.43	49.81
851.599	50.22
851.769	40.68
851.939	34.87
852.108	30.85
852.278	34.26
852.447	39.78
852.616	32.15
852.786	24.18
852.955	28.13
853.125	37.76
853.294	35.34
853.463	39.26
853.633	38.47
853.802	47.02
853.971	52.71
854.141	58.62
854.31	66.4
854.479	75.05
854.648	70.64
854.818	65.11
854.987	60.01
855.156	49.48
855.325	43.25
855.494	35.23
855.663	33.52
855.832	33.2
856.001	14.33
856.171	-10.58
856.34	-19.59
856.509	-13.67
856.678	-7.74
856.847	-7.09
857.016	14.29
857.185	30.22
857.353	45.92
857.522	50.12
857.691	63.45
857.86	65.89
858.029	72.7
858.198	88.81
858.367	79.32
858.535	80.06
858.704	71.04
858.873	70.79
859.042	78.34
859.21	40.41
859.379	5.16
859.548	3.34
859.717	6.67
859.885	3.08
860.054	-13.31
860.222	-26.22
860.391	-25.81
860.56	-4.93
860.728	-13.01
860.897	-33.72
861.065	-13.84
861.234	11.62
861.402	2.38
861.571	8.61
861.739	22.25
861.908	26.39
862.076	37.47
862.244	39.95
862.413	38.57
862.581	48.65
862.749	59.77
862.918	66.55
863.086	30.93
863.254	44.29
863.423	12.17
863.591	-19.87
863.759	-38.65
863.927	-42.97
864.096	-35.77
864.264	-84.48
864.432	-43.94
864.6	-33.08
864.768	-28.74
864.936	-16.9
865.104	-4.75
865.272	4.58
865.44	17.83
865.608	16.58
865.776	31.79
865.944	2.17
866.112	17.81
866.28	22.54
866.448	12.4
866.616	10
866.784	33.39
866.952	23.35
867.12	31.32
867.288	27.94
867.455	49.93
867.623	44.88
867.791	72.52
867.959	78.97
868.127	78.54
868.294	81.04
868.462	93.05
868.63	106.05
868.797	110.84
868.965	102.05
869.133	86.38
869.3	63.98
869.468	64.95
869.636	58.64
869.803	58.29
869.971	41.11
870.138	62.93
870.306	65.25
870.473	60.57
870.641	50.93
870.808	33.89
870.975	27.42
871.143	20.73
871.31	-21.2
871.478	-27.4
871.645	-32.68
871.812	18.6
871.98	-7.29
872.147	-9.21
872.314	1.84
872.482	3.95
872.649	2.72
872.816	11.98
872.983	11.64
873.15	23.31
873.318	31.33
873.485	41
873.652	16.26
873.819	20.39
873.986	9.13
874.153	5.45
874.32	6.02
874.487	6.01
874.654	22.35
874.821	36.05
874.988	53.87
875.155	61.63
875.322	72.9
875.489	89.07
875.656	87.86
875.823	111.21
875.99	112.93
876.157	95.55
876.324	100.77
876.49	89.28
876.657	103.46
876.824	89.18
876.991	84.58
877.157	69.66
877.324	53.75
877.491	43.57
877.658	37.88
877.824	42.92
877.991	48.55
878.157	52.53
878.324	52.67
878.491	49.42
878.657	55.24
878.824	55.67
878.99	60.28
879.157	65.76
879.323	89.41
879.49	82.41
879.656	65.89
879.823	58.85
879.989	42.91
880.156	42.84
880.322	35.32
880.488	19.02
880.655	19.82
880.821	25.99
880.987	29.36
881.154	24.45
881.32	34.13
881.486	27.11
881.652	33.61
881.819	34.8
881.985	40.9
882.151	33.9
882.317	33.39
882.483	31.71
882.649	30.73
882.816	30.31
882.982	29.12
883.148	29.85
883.314	33.83
883.48	31.85
883.646	33.62
883.812	33.28
883.978	34.95
884.144	35.89
884.31	36.21
884.476	36.21
884.642	36.87
884.807	38.97
884.973	41.53
885.139	40.28
885.305	40.81
885.471	40.94
885.637	36.29
885.802	39.86
885.968	34.84
886.134	35.25
886.3	36.3
886.465	35.47
886.631	33.81
886.797	29.58
886.962	29.42
887.128	31.28
887.293	32.66
887.459	35.78
887.625	31.9
887.79	45.5
887.956	39.2
888.121	36.02
888.287	34.71
888.452	36.16
888.618	30.59
888.783	32.73
