Data from 2937816_Reflection_2.txt Node
Date: Wed Jul 15 17:32:11 EDT 2015
User: robert
Spectrometer: USB4E03001
Autoset integration time: false
Trigger mode: 4
Integration Time (sec): 1.000000E-1
Scans to average: 10
Electric dark correction enabled: true
Nonlinearity correction enabled: false
Boxcar width: 5
Stray light correction enabled: false
XAxis mode: Wavelengths
Stop averaging: false
Number of Pixels in Spectrum: 3648
>>>>>Begin Spectral Data<<<<<
177.566	31.61
177.785	15.9
178.005	3.6
178.225	-345.03
178.445	288.7
178.665	147.19
178.885	-17.63
179.105	-41.2
179.324	-320.36
179.544	390.58
179.764	-1111.48
179.984	77.66
180.204	123.57
180.423	98.02
180.643	80.18
180.863	60.92
181.083	55.8
181.302	46.83
181.522	68.25
181.742	56.85
181.961	81.98
182.181	91.19
182.401	130.45
182.621	119.99
182.84	98.04
183.06	142.8
183.279	144.94
183.499	125.51
183.719	118.68
183.938	76.76
184.158	79.31
184.377	49.45
184.597	16.47
184.816	21.6
185.036	36.71
185.256	59.08
185.475	64.38
185.695	74.41
185.914	92.99
186.134	81.91
186.353	67.15
186.572	59.02
186.792	80.61
187.011	57.68
187.231	56.32
187.45	33.3
187.67	29.33
187.889	18.16
188.108	38.14
188.328	41.82
188.547	51.57
188.766	47.58
188.986	53.98
189.205	30.87
189.424	73.97
189.644	134.99
189.863	127.96
190.082	173.81
190.302	288.84
190.521	300.46
190.74	266.67
190.959	173.43
191.178	1467.55
191.398	-241.8
191.617	-2696.93
191.836	-254.5
192.055	-289.19
192.274	-168.19
192.494	-85.33
192.713	-201.84
192.932	-247.46
193.151	-55.63
193.37	-110.77
193.589	-6329.63
193.808	70.22
194.027	108.71
194.246	155.38
194.465	191.06
194.685	-63.75
194.904	23.42
195.123	55.86
195.342	102
195.561	-205.87
195.78	-162.96
195.999	-33.74
196.218	68.49
196.436	101.36
196.655	91.61
196.874	108.15
197.093	116.5
197.312	94.22
197.531	86.38
197.75	82.8
197.969	100.25
198.188	99.47
198.407	115.5
198.625	124.6
198.844	98.32
199.063	68.98
199.282	22.11
199.501	-143.78
199.719	-805.26
199.938	509.22
200.157	214.5
200.376	-337.64
200.594	-324.65
200.813	-158.84
201.032	-406.3
201.251	-770.86
201.469	470.33
201.688	677.06
201.907	157.03
202.125	37.84
202.344	-177.92
202.563	18.87
202.781	72.53
203	37.81
203.218	27.76
203.437	-35.24
203.656	309.74
203.874	393.01
204.093	139.31
204.311	178.42
204.53	401.03
204.748	822.19
204.967	138.85
205.185	152.03
205.404	147.16
205.622	158.9
205.841	122.8
206.059	296.38
206.278	152.74
206.496	156.6
206.715	173.24
206.933	157.3
207.151	111.27
207.37	190.43
207.588	140.06
207.806	124.35
208.025	158.89
208.243	185.17
208.461	199.7
208.68	217.14
208.898	542.92
209.116	-9.94
209.335	99.48
209.553	-2811.69
209.771	-29.04
209.989	129.29
210.208	83.99
210.426	93.99
210.644	62.03
210.862	-19.47
211.081	-43.92
211.299	-297.87
211.517	367.27
211.735	3243.97
211.953	1008.52
212.171	5043.41
212.39	214.03
212.608	154.03
212.826	90.63
213.044	57.88
213.262	39.85
213.48	48.09
213.698	34.82
213.916	77.65
214.134	48.94
214.352	6.62
214.57	-37.52
214.788	-43.11
215.006	22.47
215.224	-313.52
215.442	718.36
215.66	-435.89
215.878	-260.35
216.096	-300.3
216.314	-762.5
216.532	278.69
216.75	-1674.72
216.968	442.68
217.185	288.63
217.403	283.05
217.621	134.84
217.839	192.54
218.057	177.9
218.275	163.31
218.492	115.34
218.71	73.6
218.928	73.51
219.146	58.26
219.363	92.76
219.581	93.29
219.799	90.51
220.017	30.56
220.234	14.39
220.452	35.17
220.67	93.31
220.887	93.56
221.105	143.4
221.323	130.54
221.54	117.77
221.758	94.78
221.976	95.24
222.193	89.26
222.411	102.4
222.629	109.92
222.846	114.92
223.064	100.66
223.281	102.1
223.499	113.53
223.716	102.56
223.934	92.8
224.151	106.3
224.369	98.05
224.586	108.34
224.804	100.23
225.021	104.4
225.239	65.22
225.456	53.29
225.674	46.33
225.891	35.97
226.108	35.57
226.326	44.69
226.543	44.16
226.76	40.25
226.978	30.65
227.195	26.19
227.413	18.54
227.63	22.75
227.847	20.36
228.064	15.7
228.282	16
228.499	15.74
228.716	8.55
228.934	8.05
229.151	8.79
229.368	12.73
229.585	13.14
229.802	12.08
230.02	10.41
230.237	10.42
230.454	8.47
230.671	7.14
230.888	4.99
231.105	2
231.323	3.97
231.54	-2.91
231.757	-12.3
231.974	-18.65
232.191	-19.4
232.408	-23.75
232.625	-25.2
232.842	-21.03
233.059	-22.49
233.276	-15.55
233.493	-5.29
233.71	-7.98
233.927	-1.8
234.144	2.2
234.361	2.55
234.578	14.78
234.795	18.7
235.012	18.33
235.229	19.02
235.446	19.47
235.663	22.72
235.879	31.45
236.096	29.47
236.313	27.55
236.53	31.32
236.747	34.74
236.964	31.72
237.181	33.3
237.397	35.91
237.614	36.49
237.831	43.69
238.048	44.25
238.264	38.87
238.481	41.86
238.698	37.98
238.915	34.96
239.131	29.01
239.348	24.04
239.565	28.03
239.781	24.04
239.998	26.46
240.215	21.08
240.431	10.78
240.648	13.08
240.865	12.47
241.081	14.3
241.298	13.47
241.514	14
241.731	17.38
241.947	15.84
242.164	18.03
242.38	14.27
242.597	14.75
242.814	18.11
243.03	18.23
243.246	19.42
243.463	19.21
243.679	20.31
243.896	20.76
244.112	18.55
244.329	17.41
244.545	18.61
244.762	19.15
244.978	18.68
245.194	17.64
245.411	13.76
245.627	12.44
245.843	12.85
246.06	13.13
246.276	12.61
246.492	12.72
246.709	13.72
246.925	10.81
247.141	11.58
247.357	10.92
247.574	10.21
247.79	10.22
248.006	9.15
248.222	9.07
248.439	7.89
248.655	6.02
248.871	5.82
249.087	4.2
249.303	4.66
249.519	3.97
249.736	3.73
249.952	4.65
250.168	5.51
250.384	6.42
250.6	5.57
250.816	6.27
251.032	8.96
251.248	7.54
251.464	9.17
251.68	8.03
251.896	8.41
252.112	6.76
252.328	5.45
252.544	4.04
252.76	3.07
252.976	3.98
253.192	4.94
253.408	4.55
253.624	8.02
253.84	5.7
254.056	8.15
254.272	8.49
254.487	10.24
254.703	11.67
254.919	13.36
255.135	14.22
255.351	12.04
255.567	8.43
255.782	9.2
255.998	4.36
256.214	5.53
256.43	3.81
256.646	2.57
256.861	6.02
257.077	5.3
257.293	4.73
257.508	4.54
257.724	7.57
257.94	10.85
258.155	9.05
258.371	8.79
258.587	8.66
258.802	10.33
259.018	10.79
259.234	10.26
259.449	10.74
259.665	10.09
259.88	10.86
260.096	10.42
260.312	8.78
260.527	9.93
260.743	10.72
260.958	11.1
261.174	9.71
261.389	9.86
261.605	9.03
261.82	9.28
262.036	10.16
262.251	10.26
262.466	9.91
262.682	11.14
262.897	10.29
263.113	8.92
263.328	7.25
263.543	8.3
263.759	6.1
263.974	6.35
264.189	3.71
264.405	2.24
264.62	2.82
264.835	3.86
265.051	3.67
265.266	8.4
265.481	10.85
265.696	12.76
265.912	12.9
266.127	13.45
266.342	13.19
266.557	13.45
266.773	14.75
266.988	13.52
267.203	10.98
267.418	11
267.633	7.09
267.848	6.13
268.064	6.93
268.279	5.99
268.494	5.95
268.709	5.98
268.924	5.65
269.139	4.88
269.354	4.64
269.569	6.95
269.784	10.01
269.999	11.47
270.214	9.64
270.429	7.74
270.644	8.37
270.859	8.76
271.074	8.71
271.289	8.8
271.504	9.42
271.719	8.08
271.934	8.38
272.149	6.39
272.363	5.74
272.578	5.1
272.793	5.74
273.008	4.16
273.223	4.21
273.438	4.43
273.653	4.52
273.867	2.76
274.082	2.65
274.297	1.13
274.512	2.11
274.726	2.77
274.941	5.19
275.156	5.95
275.371	8.8
275.585	7.52
275.8	8.6
276.015	8.67
276.229	10.32
276.444	11.84
276.659	11.8
276.873	12.97
277.088	14.88
277.302	15.22
277.517	14.49
277.732	11.8
277.946	10.7
278.161	10.57
278.375	9.83
278.59	9.07
278.804	9.48
279.019	9.7
279.233	7.38
279.448	4.82
279.662	4.68
279.877	5.89
280.091	7.22
280.306	10.97
280.52	9.63
280.735	10.24
280.949	10.54
281.163	10.58
281.378	10.59
281.592	9.97
281.806	10.04
282.021	8.6
282.235	7.22
282.449	9.81
282.664	7.81
282.878	9.09
283.092	8.91
283.307	9.55
283.521	9.9
283.735	11.6
283.949	12.34
284.164	12.06
284.378	13.05
284.592	13.04
284.806	10.72
285.02	10.25
285.234	10.07
285.449	9.27
285.663	9.26
285.877	9.28
286.091	9.35
286.305	8.62
286.519	8.73
286.733	8.47
286.947	7.81
287.161	9.1
287.375	10.1
287.589	10.03
287.803	10.06
288.017	9.98
288.231	9.1
288.445	7.92
288.659	8.18
288.873	7.69
289.087	7.39
289.301	8.71
289.515	7.83
289.729	6.34
289.943	6.1
290.157	8.28
290.371	6.96
290.584	7.42
290.798	7.78
291.012	8.03
291.226	9.22
291.44	10.39
291.654	11.67
291.867	11.17
292.081	13.04
292.295	13.28
292.509	12.33
292.722	13.45
292.936	12.51
293.15	13.09
293.364	13.33
293.577	13.35
293.791	11.73
294.005	10.48
294.218	11.66
294.432	10.8
294.645	10.65
294.859	10.86
295.073	11.39
295.286	12.78
295.5	12.6
295.713	12.56
295.927	12.49
296.14	13.08
296.354	13.27
296.568	12.71
296.781	12.94
296.994	13.53
297.208	14.15
297.421	12.22
297.635	11.51
297.848	11.08
298.062	11.51
298.275	11.33
298.489	11.56
298.702	10.02
298.915	9.52
299.129	11.25
299.342	9.03
299.555	8.6
299.769	10.71
299.982	10.72
300.195	10.21
300.409	10.93
300.622	9.93
300.835	10.1
301.048	11.74
301.262	13.09
301.475	11.74
301.688	12.07
301.901	11.16
302.115	10.75
302.328	9.77
302.541	8.89
302.754	7.39
302.967	7.27
303.18	6.37
303.393	7.18
303.607	7.53
303.82	7.23
304.033	8.7
304.246	8.47
304.459	9.88
304.672	10.12
304.885	12.13
305.098	11.81
305.311	10.87
305.524	11.48
305.737	8.57
305.95	7.45
306.163	7.28
306.376	7.12
306.589	7.69
306.802	4.25
307.015	6.87
307.228	5.48
307.44	6.36
307.653	8.66
307.866	9.57
308.079	11.78
308.292	12.85
308.505	12.33
308.718	13.04
308.93	12.45
309.143	15.16
309.356	15.08
309.569	14.82
309.781	14.47
309.994	13.16
310.207	12.52
310.42	12.99
310.632	12.96
310.845	12.96
311.058	13.07
311.27	12.61
311.483	12.05
311.696	11.61
311.908	11.61
312.121	11.07
312.333	11.26
312.546	10.56
312.759	10
312.971	9.42
313.184	10.75
313.396	9.9
313.609	9.96
313.821	10
314.034	7.93
314.246	9.44
314.459	10.52
314.671	11.95
314.884	11.31
315.096	10.51
315.309	11.02
315.521	10.46
315.733	10.66
315.946	11.9
316.158	12.6
316.371	13.86
316.583	9.75
316.795	8.36
317.008	8.25
317.22	9.55
317.432	10.05
317.644	9.35
317.857	7.15
318.069	6.94
318.281	5.92
318.494	3.96
318.706	3.42
318.918	6.72
319.13	7.41
319.342	6.8
319.555	8.78
319.767	8.7
319.979	7.75
320.191	7.66
320.403	9.26
320.615	8.24
320.827	9.86
321.039	9.54
321.252	8.63
321.464	8.01
321.676	9.34
321.888	7.68
322.1	7.31
322.312	8.46
322.524	9.65
322.736	8.92
322.948	9.42
323.16	8.9
323.372	9.07
323.584	9.12
323.796	7.97
324.007	7.8
324.219	7.32
324.431	6.62
324.643	7.11
324.855	7.53
325.067	6.57
325.279	6.44
325.491	6.31
325.702	8
325.914	9.24
326.126	10.81
326.338	10.55
326.55	10.98
326.761	13.38
326.973	12.89
327.185	12.09
327.396	12.43
327.608	12.75
327.82	13.15
328.032	11.49
328.243	10.34
328.455	10.9
328.666	11.66
328.878	11.79
329.09	11.09
329.301	11.19
329.513	11.91
329.725	12.41
329.936	13.82
330.148	14.63
330.359	16.38
330.571	16.91
330.782	16.79
330.994	15.47
331.205	14.27
331.417	13.75
331.628	13.63
331.84	12.66
332.051	12.66
332.262	13.96
332.474	12.29
332.685	9.8
332.897	10.13
333.108	10.17
333.319	10.17
333.531	11.26
333.742	10.36
333.953	10.47
334.165	12.52
334.376	11.13
334.587	9.83
334.799	10.96
335.01	12.86
335.221	13.15
335.432	11.63
335.644	12.17
335.855	12.08
336.066	12.37
336.277	11.52
336.488	10.62
336.7	11.75
336.911	11.28
337.122	11.27
337.333	11.57
337.544	12.45
337.755	13.67
337.966	12.89
338.177	11.56
338.388	12.14
338.599	13.61
338.811	13.56
339.022	12.64
339.233	11.91
339.444	10.58
339.655	9.82
339.866	8.74
340.076	8.18
340.287	9.33
340.498	11.21
340.709	10.56
340.92	10.34
341.131	10.18
341.342	11.09
341.553	12.68
341.764	13.64
341.975	12.52
342.185	11.26
342.396	11.87
342.607	10.57
342.818	9.54
343.029	9.7
343.239	8.84
343.45	9.55
343.661	9.99
343.872	8.27
344.082	7.2
344.293	8.06
344.504	9.31
344.714	8.45
344.925	8.41
345.136	7.74
345.346	8.29
345.557	8.41
345.768	7.78
345.978	6.53
346.189	6.58
346.399	7.07
346.61	7.25
346.821	5.82
347.031	5.78
347.242	7.77
347.452	9.2
347.663	8.64
347.873	8.95
348.084	9.37
348.294	10.51
348.504	10.93
348.715	12.12
348.925	10.86
349.136	11.5
349.346	10.8
349.557	9.38
349.767	9.24
349.977	8.41
350.188	7.38
350.398	7.49
350.608	7.45
350.819	8.19
351.029	7.74
351.239	9.54
351.449	10.47
351.66	12.46
351.87	12.33
352.08	12.63
352.29	12.42
352.501	13.19
352.711	12.71
352.921	11.44
353.131	10.83
353.341	10.22
353.552	9.56
353.762	8.16
353.972	7.01
354.182	6.37
354.392	6.48
354.602	6.78
354.812	6.58
355.022	6.01
355.232	5.56
355.442	5.24
355.652	6.01
355.862	5.18
356.072	5.99
356.282	6.35
356.492	6.87
356.702	6.77
356.912	7.77
357.122	8.69
357.332	9.11
357.542	10.1
357.752	10.87
357.962	9.1
358.171	9.5
358.381	10.13
358.591	9.85
358.801	9.76
359.011	9.7
359.221	9.04
359.43	8.33
359.64	8.66
359.85	8.75
360.06	8.46
360.269	9.18
360.479	9.34
360.689	8.81
360.899	8.53
361.108	9.12
361.318	9.15
361.528	9.47
361.737	9.81
361.947	9.36
362.156	9.04
362.366	9.45
362.576	10.4
362.785	10.33
362.995	10.99
363.204	12.29
363.414	12.78
363.623	13.03
363.833	13.04
364.042	12.69
364.252	13.69
364.461	13.62
364.671	13.37
364.88	12.77
365.09	13.12
365.299	12.09
365.509	10.92
365.718	9.85
365.927	9.43
366.137	9.27
366.346	9.22
366.555	8.62
366.765	8.57
366.974	8.04
367.183	8.35
367.393	8.19
367.602	8.94
367.811	9.08
368.021	8.81
368.23	8.38
368.439	7.02
368.648	6.86
368.857	5.97
369.067	6.4
369.276	6.98
369.485	6.57
369.694	5.49
369.903	4.48
370.112	4.98
370.321	5.15
370.531	5.64
370.74	7.48
370.949	7.47
371.158	8.29
371.367	7.59
371.576	8.03
371.785	8.2
371.994	8.46
372.203	8.63
372.412	8.18
372.621	7.93
372.83	6.61
373.039	6.52
373.248	7.28
373.457	7.57
373.666	7.81
373.874	7.21
374.083	6.47
374.292	7.35
374.501	8.19
374.71	8.62
374.919	9.16
375.128	9.75
375.336	9.71
375.545	9.17
375.754	8.47
375.963	8.18
376.171	7.22
376.38	7.91
376.589	8.25
376.798	6.87
377.006	6.23
377.215	6.05
377.424	6.61
377.632	6.77
377.841	6.67
378.05	6.39
378.258	6.78
378.467	7.52
378.675	7.44
378.884	6.55
379.093	7.14
379.301	7.57
379.51	7.32
379.718	7.01
379.927	6.85
380.135	6.62
380.344	7.4
380.552	7.57
380.761	7.15
380.969	6.54
381.177	6.61
381.386	6.76
381.594	6.38
381.803	6.45
382.011	6.43
382.219	6.33
382.428	6.68
382.636	6.56
382.845	6.27
383.053	6.59
383.261	6.88
383.469	7.18
383.678	7.51
383.886	7.71
384.094	7.49
384.302	7.37
384.511	6.9
384.719	6.85
384.927	6.34
385.135	6.26
385.343	6.3
385.552	6.71
385.76	6.35
385.968	5.57
386.176	5.42
386.384	5.38
386.592	5.25
386.8	5.42
387.008	4.94
387.216	4.8
387.424	4.91
387.633	4.51
387.841	3.8
388.049	3.93
388.257	4.12
388.465	4.35
388.672	4.76
388.88	4.96
389.088	4.57
389.296	4.59
389.504	5.01
389.712	5.12
389.92	5.26
390.128	5.41
390.336	5.25
390.544	5.53
390.751	5.54
390.959	5.51
391.167	5.73
391.375	5.9
391.583	6.02
391.79	5.68
391.998	5.77
392.206	5.83
392.414	5.74
392.621	5.84
392.829	5.63
393.037	5.63
393.244	5.88
393.452	5.66
393.66	5.82
393.867	5.81
394.075	5.6
394.283	5.03
394.49	4.81
394.698	5.35
394.905	5.31
395.113	5.01
395.32	4.95
395.528	4.76
395.735	4.59
395.943	4.46
396.15	4.2
396.358	4.51
396.565	4.7
396.773	4.92
396.98	4.49
397.188	4.19
397.395	4.41
397.602	4.25
397.81	4.07
398.017	4.42
398.225	4.44
398.432	4.63
398.639	4.57
398.847	4.89
399.054	4.77
399.261	4.49
399.468	4.73
399.676	4.68
399.883	4.71
400.09	4.74
400.297	4.79
400.505	4.83
400.712	5.15
400.919	5.34
401.126	5.39
401.333	5.42
401.54	5.54
401.748	5.77
401.955	6.09
402.162	6.23
402.369	6.17
402.576	5.63
402.783	5.63
402.99	5.61
403.197	5.24
403.404	4.9
403.611	5.05
403.818	5.22
404.025	4.88
404.232	4.66
404.439	4.7
404.646	4.73
404.853	5.13
405.06	5.03
405.267	5
405.474	5.19
405.681	5.34
405.887	4.97
406.094	4.96
406.301	4.92
406.508	4.82
406.715	4.93
406.922	4.83
407.128	4.37
407.335	4.21
407.542	4.16
407.749	4.28
407.955	4.28
408.162	4.35
408.369	4.28
408.575	4.56
408.782	4.7
408.989	4.18
409.195	4.37
409.402	4.51
409.609	4.58
409.815	4.42
410.022	4.31
410.228	4.47
410.435	4.67
410.642	4.77
410.848	4.6
411.055	4.48
411.261	4.53
411.468	4.54
411.674	4.91
411.881	5
412.087	4.98
412.294	4.84
412.5	4.54
412.706	4.33
412.913	4.18
413.119	4.31
413.326	4.33
413.532	4.23
413.738	4
413.945	3.56
414.151	3.51
414.357	3.62
414.564	4.09
414.77	4.43
414.976	4.35
415.182	4.17
415.389	4.24
415.595	4.29
415.801	4.54
416.007	4.42
416.214	4.44
416.42	4.36
416.626	4.31
416.832	3.9
417.038	3.56
417.244	3.86
417.45	4.12
417.657	4.18
417.863	4.19
418.069	4.13
418.275	4.39
418.481	4.51
418.687	4.64
418.893	4.59
419.099	4.72
419.305	4.93
419.511	4.74
419.717	4.59
419.923	4.55
420.129	4.69
420.335	4.94
420.541	4.84
420.746	4.75
420.952	4.75
421.158	4.81
421.364	4.92
421.57	4.85
421.776	5.01
421.982	5.13
422.187	5.19
422.393	5.07
422.599	4.96
422.805	4.93
423.01	5.02
423.216	4.94
423.422	5.04
423.628	4.95
423.833	4.99
424.039	5
424.245	5.05
424.45	4.83
424.656	4.88
424.862	4.75
425.067	4.84
425.273	4.92
425.478	4.93
425.684	4.89
425.889	4.85
426.095	4.91
426.301	4.72
426.506	4.51
426.712	4.54
426.917	4.46
427.123	4.56
427.328	4.37
427.533	4.27
427.739	4.39
427.944	4.35
428.15	4.38
428.355	4.19
428.561	4.4
428.766	4.64
428.971	4.92
429.177	4.85
429.382	4.54
429.587	4.65
429.793	4.77
429.998	4.86
430.203	4.63
430.408	4.64
430.614	4.77
430.819	4.61
431.024	4.71
431.229	4.67
431.434	4.83
431.64	5.18
431.845	5.12
432.05	4.97
432.255	4.82
432.46	4.91
432.665	5.03
432.87	4.92
433.076	4.84
433.281	4.61
433.486	4.41
433.691	4.36
433.896	4.32
434.101	4.39
434.306	4.41
434.511	4.31
434.716	4.28
434.921	4.07
435.126	4.07
435.331	4.22
435.535	4.28
435.74	4.24
435.945	4.18
436.15	3.97
436.355	3.86
436.56	3.64
436.765	3.58
436.97	4.02
437.174	4.21
437.379	4.12
437.584	4.04
437.789	3.87
437.993	3.9
438.198	4.08
438.403	4.18
438.608	4.19
438.812	4.41
439.017	4.48
439.222	4.1
439.426	4.02
439.631	3.99
439.836	4.05
440.04	4.16
440.245	4.4
440.45	4.32
440.654	4.21
440.859	4.27
441.063	4.2
441.268	4.4
441.472	4.57
441.677	4.54
441.881	4.65
442.086	4.49
442.29	4.43
442.495	4.3
442.699	4.18
442.904	4.26
443.108	4.36
443.312	4.46
443.517	4.33
443.721	4.04
443.925	4.2
444.13	4.2
444.334	4.18
444.538	4.33
444.743	4.3
444.947	4.4
445.151	4.42
445.356	4.29
445.56	4.22
445.764	4.11
445.968	4.33
446.173	4.23
446.377	4.22
446.581	4.34
446.785	4.25
446.989	4.18
447.193	4.16
447.398	4.3
447.602	4.31
447.806	4.37
448.01	4.32
448.214	4.22
448.418	4.24
448.622	4.3
448.826	4.29
449.03	4.41
449.234	4.47
449.438	4.38
449.642	4.12
449.846	4.03
450.05	3.84
450.254	3.96
450.458	3.86
450.662	3.77
450.866	3.6
451.069	3.67
451.273	3.56
451.477	3.53
451.681	3.64
451.885	3.72
452.089	3.94
452.292	4.03
452.496	4.12
452.7	4.12
452.904	4.16
453.107	4.3
453.311	4.23
453.515	4.13
453.719	4.26
453.922	4.23
454.126	4.05
454.33	4.01
454.533	4.03
454.737	3.75
454.94	3.9
455.144	3.75
455.348	3.58
455.551	3.64
455.755	3.67
455.958	3.73
456.162	3.64
456.365	3.83
456.569	3.64
456.772	3.63
456.976	3.86
457.179	3.97
457.383	4.2
457.586	4.22
457.79	4.16
457.993	4.33
458.196	4.25
458.4	4.47
458.603	4.32
458.807	4.31
459.01	4.44
459.213	4.42
459.417	4.35
459.62	4.31
459.823	4.41
460.026	4.43
460.23	4.37
460.433	4.37
460.636	4.23
460.839	4.37
461.042	4.42
461.246	4.28
461.449	4.27
461.652	4.25
461.855	4.21
462.058	4.06
462.261	4.02
462.464	3.83
462.668	3.87
462.871	3.97
463.074	3.82
463.277	4.03
463.48	3.93
463.683	3.75
463.886	3.83
464.089	3.62
464.292	3.52
464.495	3.33
464.698	3.5
464.901	3.43
465.104	3.53
465.306	3.49
465.509	3.31
465.712	3.35
465.915	3.68
466.118	3.35
466.321	3.54
466.524	3.61
466.726	3.8
466.929	3.88
467.132	3.77
467.335	3.71
467.538	3.93
467.74	3.91
467.943	3.92
468.146	3.74
468.348	3.87
468.551	3.89
468.754	3.96
468.956	3.89
469.159	3.87
469.362	4.02
469.564	3.97
469.767	3.96
469.969	4.12
470.172	4.13
470.375	4.09
470.577	4.03
470.78	3.97
470.982	3.89
471.185	3.94
471.387	3.72
471.59	3.73
471.792	3.85
471.995	3.6
472.197	3.21
472.399	3.23
472.602	3.35
472.804	3.48
473.007	3.61
473.209	3.7
473.411	4
473.614	4.29
473.816	4.06
474.018	4.08
474.22	4.16
474.423	4.35
474.625	4.29
474.827	4.21
475.03	4.28
475.232	4.28
475.434	4.32
475.636	4.2
475.838	4.1
476.04	4.13
476.243	4.08
476.445	4.24
476.647	4.23
476.849	4.34
477.051	4.28
477.253	4.11
477.455	4.21
477.657	4.23
477.859	4.03
478.061	3.87
478.263	3.87
478.465	3.85
478.667	3.66
478.869	3.71
479.071	3.64
479.273	3.69
479.475	3.81
479.677	3.65
479.879	3.52
480.081	3.69
480.283	3.85
480.485	3.9
480.686	3.94
480.888	3.94
481.09	4.02
481.292	3.95
481.494	3.87
481.695	3.78
481.897	3.82
482.099	3.9
482.301	3.89
482.502	3.96
482.704	3.97
482.906	3.97
483.107	4.06
483.309	4.04
483.511	4.13
483.712	4.23
483.914	4.27
484.115	4.28
484.317	4.33
484.519	4.38
484.72	4.3
484.922	4.3
485.123	4.22
485.325	4.22
485.526	4.24
485.728	4.24
485.929	4.23
486.131	4.28
486.332	4.28
486.534	4.2
486.735	4.09
486.936	4.19
487.138	4.25
487.339	4.42
487.541	4.37
487.742	4.34
487.943	4.39
488.144	4.34
488.346	4.3
488.547	4.27
488.748	4.26
488.95	4.29
489.151	4.21
489.352	4.16
489.553	4.01
489.755	4.06
489.956	4.13
490.157	4.06
490.358	4.09
490.559	4.15
490.76	4.26
490.961	4.35
491.163	4.29
491.364	4.31
491.565	4.36
491.766	4.4
491.967	4.37
492.168	4.36
492.369	4.33
492.57	4.22
492.771	4.18
492.972	4.03
493.173	4
493.374	4.09
493.575	4.04
493.776	4.06
493.976	4.01
494.177	4.02
494.378	3.81
494.579	3.76
494.78	3.81
494.981	3.77
495.182	3.94
495.382	3.91
495.583	4.11
495.784	4.1
495.985	4.05
496.185	4.08
496.386	4.08
496.587	4.28
496.788	4.51
496.988	4.68
497.189	4.78
497.39	4.72
497.59	4.64
497.791	4.53
497.992	4.54
498.192	4.45
498.393	4.47
498.593	4.48
498.794	4.45
498.994	4.4
499.195	4.39
499.395	4.32
499.596	4.31
499.796	4.3
499.997	4.2
500.197	4.18
500.398	4.24
500.598	4.2
500.799	4.06
500.999	4.09
501.199	4.11
501.4	4.06
501.6	4.05
501.801	4.14
502.001	4.25
502.201	4.33
502.402	4.46
502.602	4.47
502.802	4.44
503.002	4.59
503.203	4.6
503.403	4.51
503.603	4.58
503.803	4.62
504.003	4.67
504.204	4.64
504.404	4.57
504.604	4.55
504.804	4.62
505.004	4.89
505.204	4.89
505.404	4.77
505.604	4.73
505.804	4.66
506.005	4.58
506.205	4.58
506.405	4.65
506.605	4.63
506.805	4.91
507.005	4.76
507.204	4.52
507.404	4.52
507.604	4.78
507.804	4.89
508.004	4.89
508.204	4.9
508.404	4.78
508.604	4.65
508.804	4.64
509.003	4.39
509.203	4.42
509.403	4.46
509.603	4.54
509.803	4.31
510.002	4.2
510.202	4.17
510.402	4.23
510.602	4.11
510.801	4.23
511.001	4.25
511.201	4.39
511.4	4.45
511.6	4.49
511.8	4.45
511.999	4.52
512.199	4.62
512.398	4.5
512.598	4.69
512.797	4.83
512.997	4.85
513.197	4.9
513.396	4.86
513.596	4.9
513.795	4.94
513.994	4.9
514.194	4.94
514.393	4.85
514.593	4.95
514.792	4.59
514.992	4.55
515.191	4.44
515.39	4.37
515.59	4.25
515.789	4.28
515.988	4.21
516.188	4.28
516.387	4.12
516.586	4.22
516.786	4.27
516.985	4.53
517.184	4.64
517.383	4.72
517.582	4.72
517.782	4.75
517.981	4.79
518.18	4.84
518.379	4.89
518.578	4.98
518.777	4.92
518.976	4.98
519.176	4.89
519.375	4.97
519.574	4.93
519.773	5.02
519.972	5.1
520.171	5.08
520.37	5.03
520.569	4.97
520.768	4.87
520.967	4.94
521.166	4.85
521.365	4.73
521.564	4.63
521.762	4.62
521.961	4.49
522.16	4.4
522.359	4.53
522.558	4.56
522.757	4.56
522.956	4.68
523.154	4.71
523.353	4.93
523.552	5.05
523.751	5.12
523.949	5.24
524.148	5.38
524.347	5.57
524.546	5.46
524.744	5.47
524.943	5.52
525.142	5.63
525.34	5.62
525.539	5.55
525.737	5.56
525.936	5.55
526.135	5.4
526.333	5.42
526.532	5.36
526.73	5.35
526.929	5.45
527.127	5.37
527.326	5.33
527.524	5.28
527.723	5.37
527.921	5.49
528.12	5.44
528.318	5.56
528.516	5.55
528.715	5.58
528.913	5.63
529.112	5.61
529.31	5.71
529.508	5.75
529.707	5.86
529.905	5.84
530.103	5.81
530.301	5.82
530.5	5.85
530.698	5.88
530.896	5.85
531.094	5.9
531.293	5.95
531.491	5.9
531.689	5.92
531.887	6
532.085	5.99
532.283	5.98
532.481	6.09
532.68	6.16
532.878	6.3
533.076	6.34
533.274	6.36
533.472	6.41
533.67	6.54
533.868	6.57
534.066	6.52
534.264	6.52
534.462	6.62
534.66	6.6
534.858	6.63
535.056	6.55
535.253	6.58
535.451	6.54
535.649	6.55
535.847	6.51
536.045	6.54
536.243	6.52
536.441	6.62
536.638	6.56
536.836	6.67
537.034	6.69
537.232	6.67
537.43	6.84
537.627	6.86
537.825	6.83
538.023	6.94
538.22	7.14
538.418	7.21
538.616	7.27
538.813	7.35
539.011	7.38
539.209	7.38
539.406	7.56
539.604	7.46
539.801	7.61
539.999	7.7
540.196	7.57
540.394	7.53
540.591	7.66
540.789	7.68
540.986	7.82
541.184	7.86
541.381	7.91
541.579	7.89
541.776	8.01
541.974	8.05
542.171	7.99
542.368	8.14
542.566	8.19
542.763	8.11
542.96	8.16
543.158	8.1
543.355	8.17
543.552	8.22
543.75	8.34
543.947	8.36
544.144	8.32
544.341	8.44
544.539	8.35
544.736	8.33
544.933	8.47
545.13	8.66
545.327	8.74
545.524	8.75
545.722	8.92
545.919	8.96
546.116	8.98
546.313	9.14
546.51	9.29
546.707	9.45
546.904	9.38
547.101	9.46
547.298	9.35
547.495	9.43
547.692	9.44
547.889	9.33
548.086	9.27
548.283	9.28
548.48	9.32
548.677	9.31
548.874	9.39
549.07	9.52
549.267	9.52
549.464	9.88
549.661	9.97
549.858	10.21
550.055	10.27
550.251	10.23
550.448	10.27
550.645	10.17
550.842	10.33
551.038	10.13
551.235	10.26
551.432	10.42
551.628	10.18
551.825	10.14
552.022	10.17
552.218	10.24
552.415	10.57
552.612	10.69
552.808	11
553.005	11
553.201	11.15
553.398	11.37
553.594	11.48
553.791	11.62
553.987	11.96
554.184	11.99
554.38	12.02
554.577	12.08
554.773	12.2
554.97	12.12
555.166	12.4
555.362	12.61
555.559	12.52
555.755	12.37
555.952	12.47
556.148	12.36
556.344	12.6
556.541	12.8
556.737	12.99
556.933	13.14
557.129	13.25
557.326	13.32
557.522	13.4
557.718	13.74
557.914	14.06
558.11	14.25
558.307	14.36
558.503	14.31
558.699	14.31
558.895	14.31
559.091	14.42
559.287	14.58
559.483	14.7
559.679	14.83
559.876	14.75
560.072	14.78
560.268	14.61
560.464	14.62
560.66	14.79
560.856	15.16
561.052	15.23
561.247	15.31
561.443	15.24
561.639	15.09
561.835	15.22
562.031	15.43
562.227	15.45
562.423	15.5
562.619	15.67
562.815	15.87
563.01	15.77
563.206	15.73
563.402	15.79
563.598	16
563.793	16.1
563.989	16.24
564.185	16.26
564.381	16.48
564.576	16.66
564.772	16.65
564.968	16.67
565.163	16.83
565.359	16.9
565.555	17.02
565.75	17.09
565.946	17.38
566.141	17.39
566.337	17.47
566.532	17.58
566.728	17.82
566.923	17.83
567.119	17.99
567.314	18.07
567.51	18.2
567.705	18.38
567.901	18.43
568.096	18.28
568.292	18.28
568.487	18.14
568.682	17.9
568.878	17.71
569.073	17.85
569.268	17.71
569.464	17.9
569.659	17.99
569.854	17.89
570.05	18.02
570.245	18.15
570.44	18.27
570.635	18.43
570.831	18.73
571.026	18.9
571.221	19.13
571.416	19.32
571.611	19.19
571.806	19.15
572.002	19.28
572.197	19.34
572.392	19.45
572.587	19.58
572.782	19.79
572.977	19.92
573.172	20.07
573.367	19.97
573.562	19.99
573.757	20.16
573.952	20.21
574.147	20.34
574.342	20.43
574.537	20.5
574.732	20.55
574.927	20.55
575.121	20.29
575.316	20.24
575.511	20.43
575.706	20.56
575.901	20.47
576.096	20.74
576.29	20.53
576.485	20.61
576.68	20.82
576.875	20.78
577.069	20.82
577.264	21.15
577.459	20.98
577.654	20.95
577.848	20.96
578.043	20.96
578.238	20.95
578.432	20.94
578.627	20.94
578.821	20.69
579.016	20.79
579.21	20.6
579.405	20.51
579.6	20.73
579.794	20.79
579.989	20.83
580.183	20.98
580.378	21.07
580.572	21.34
580.766	21.28
580.961	21.39
581.155	21.5
581.35	21.82
581.544	21.89
581.738	22.02
581.933	21.99
582.127	21.92
582.321	21.8
582.516	21.98
582.71	21.93
582.904	21.98
583.099	22.02
583.293	22.23
583.487	22.3
583.681	22.49
583.875	22.61
584.07	22.73
584.264	22.95
584.458	23.21
584.652	22.77
584.846	22.76
585.04	23.02
585.234	23.22
585.428	22.97
585.623	22.95
585.817	22.71
586.011	22.86
586.205	22.86
586.399	22.66
586.593	22.72
586.787	22.87
586.981	22.96
587.174	22.68
587.368	22.42
587.562	22.63
587.756	22.59
587.95	22.98
588.144	22.75
588.338	22.77
588.532	23.16
588.725	23.07
588.919	23.21
589.113	23.47
589.307	23.77
589.501	24.06
589.694	24.01
589.888	24.27
590.082	24.19
590.275	24.09
590.469	24.21
590.663	23.7
590.856	24
591.05	24.03
591.244	23.75
591.437	23.84
591.631	23.83
591.824	23.75
592.018	23.64
592.212	23.61
592.405	23.98
592.599	24.14
592.792	24.55
592.986	24.23
593.179	24.23
593.372	24.35
593.566	24.36
593.759	24.5
593.953	24.55
594.146	24.1
594.339	24.24
594.533	24.32
594.726	24.19
594.92	24.14
595.113	24.31
595.306	24.37
595.499	24.52
595.693	24.27
595.886	24.19
596.079	24.16
596.272	24.47
596.466	24.46
596.659	24.44
596.852	24.5
597.045	24.61
597.238	24.6
597.431	24.55
597.624	24.39
597.818	24.53
598.011	24.52
598.204	24.71
598.397	24.64
598.59	24.62
598.783	24.68
598.976	24.86
599.169	24.8
599.362	24.87
599.555	24.9
599.748	24.91
599.941	24.74
600.134	24.68
600.326	24.54
600.519	24.82
600.712	24.55
600.905	24.16
601.098	23.7
601.291	23.71
601.483	23.7
601.676	23.73
601.869	23.82
602.062	24.15
602.255	23.99
602.447	24.34
602.64	24.29
602.833	24.51
603.025	24.61
603.218	24.85
603.411	24.74
603.603	24.59
603.796	24.61
603.989	24.69
604.181	24.65
604.374	24.77
604.566	24.52
604.759	24.57
604.951	24.58
605.144	24.83
605.336	24.64
605.529	24.66
605.721	24.91
605.914	24.88
606.106	24.97
606.299	24.95
606.491	25.05
606.683	25.12
606.876	24.86
607.068	25.02
607.26	25.01
607.453	25.34
607.645	25.38
607.837	25.52
608.03	25.58
608.222	25.61
608.414	25.7
608.606	25.49
608.799	25.53
608.991	25.79
609.183	25.88
609.375	25.66
609.567	25.39
609.759	25.45
609.952	25.25
610.144	25.39
610.336	25.3
610.528	25.09
610.72	25.29
610.912	24.95
611.104	24.8
611.296	24.58
611.488	24.91
611.68	25.04
611.872	24.94
612.064	24.66
612.256	24.61
612.448	24.9
612.64	24.91
612.832	24.6
613.023	24.98
613.215	25.13
613.407	25.34
613.599	25.18
613.791	25.13
613.983	25.3
614.174	25.66
614.366	25.38
614.558	25.05
614.75	25.14
614.941	25.47
615.133	25.32
615.325	25.31
615.516	24.9
615.708	24.57
615.9	24.63
616.091	24.71
616.283	24.73
616.475	24.82
616.666	24.65
616.858	24.86
617.049	24.98
617.241	25.16
617.432	24.96
617.624	25.07
617.815	25.05
618.007	25.12
618.198	25.18
618.39	25.22
618.581	25.2
618.773	25.31
618.964	25.09
619.155	24.88
619.347	24.64
619.538	24.77
619.729	24.73
619.921	24.99
620.112	24.99
620.303	24.99
620.494	24.82
620.686	25.28
620.877	25.39
621.068	25.13
621.259	24.9
621.451	24.82
621.642	24.93
621.833	25.19
622.024	25.41
622.215	25.44
622.406	24.9
622.597	25.07
622.788	24.62
622.98	24.46
623.171	24.8
623.362	24.86
623.553	25.33
623.744	25.31
623.935	25.5
624.126	25.08
624.317	25.11
624.508	25.59
624.698	25.52
624.889	25.97
625.08	26.09
625.271	25.94
625.462	26.38
625.653	26.24
625.844	26.07
626.034	25.94
626.225	26.13
626.416	26.21
626.607	26.13
626.798	26.21
626.988	25.89
627.179	26.1
627.37	26.03
627.56	25.97
627.751	26.09
627.942	26.31
628.132	26.08
628.323	25.99
628.514	25.76
628.704	25.77
628.895	25.63
629.085	25.71
629.276	25.61
629.466	25.94
629.657	25.87
629.847	25.68
630.038	25.41
630.228	25.37
630.419	25.59
630.609	25.74
630.8	25.84
630.99	25.98
631.181	26.23
631.371	26.02
631.561	26
631.752	26.15
631.942	26.55
632.132	26.93
632.323	27.31
632.513	27.07
632.703	26.93
632.893	26.88
633.084	26.72
633.274	26.61
633.464	26.76
633.654	27.01
633.844	27.01
634.034	26.52
634.225	26.68
634.415	26.74
634.605	26.64
634.795	26.74
634.985	26.54
635.175	26.67
635.365	26.82
635.555	26.93
635.745	26.67
635.935	26.71
636.125	26.53
636.315	26.08
636.505	25.76
636.695	25.81
636.885	25.83
637.075	25.99
637.265	25.87
637.455	25.68
637.644	25.77
637.834	25.81
638.024	25.8
638.214	26.28
638.404	26.48
638.593	26.62
638.783	27.02
638.973	27.21
639.163	27.38
639.352	27.82
639.542	27.78
639.732	27.62
639.921	27.59
640.111	27.11
640.301	26.77
640.49	26.9
640.68	26.65
640.87	26.02
641.059	26.05
641.249	25.87
641.438	25.69
641.628	25.67
641.817	25.72
642.007	25.66
642.196	25.91
642.386	26
642.575	25.86
642.764	26.57
642.954	26.88
643.143	26.53
643.333	26.46
643.522	26.91
643.711	27.42
643.901	27.26
644.09	27.19
644.279	27.3
644.469	27.64
644.658	27.25
644.847	26.96
645.036	27.23
645.226	27.81
645.415	27.9
645.604	27.45
645.793	27.21
645.982	26.97
646.171	27.23
646.361	27.2
646.55	27.05
646.739	27.36
646.928	27.06
647.117	26.57
647.306	25.76
647.495	25.8
647.684	25.83
647.873	25.86
648.062	26.03
648.251	25.79
648.44	25.81
648.629	25.79
648.818	26.04
649.007	26.41
649.196	26.83
649.384	27.23
649.573	27.28
649.762	27.54
649.951	27.59
650.14	27.95
650.328	28.49
650.517	28.33
650.706	28.37
650.895	28.07
651.083	27.82
651.272	27.83
651.461	28.03
651.65	27.71
651.838	26.99
652.027	26.7
652.216	26.24
652.404	25.77
652.593	26.01
652.781	25.86
652.97	26.28
653.158	25.99
653.347	25.92
653.535	25.75
653.724	26.11
653.912	26.32
654.101	26.38
654.289	26.88
654.478	26.63
654.666	26.46
654.855	26.88
655.043	26.44
655.231	26.7
655.42	26.69
655.608	27.03
655.796	26.26
655.985	26.2
656.173	26.17
656.361	25.62
656.55	25.92
656.738	26.31
656.926	25.99
657.114	26.48
657.302	26.46
657.491	26.78
657.679	26.4
657.867	27.13
658.055	27.45
658.243	27.42
658.431	27.3
658.619	27.24
658.807	26.9
658.996	26.96
659.184	26.81
659.372	26.68
659.56	26.46
659.748	26.48
659.936	26.2
660.124	25.94
660.311	26
660.499	26.44
660.687	26.55
660.875	26.68
661.063	26.45
661.251	26.25
661.439	26.53
661.627	26.64
661.814	26.34
662.002	26.87
662.19	27.02
662.378	26.37
662.565	26.12
662.753	26.11
662.941	26.1
663.129	26.12
663.316	26.22
663.504	26.12
663.692	25.99
663.879	26.68
664.067	26.66
664.254	26.61
664.442	27.62
664.63	27.54
664.817	27.48
665.005	26.99
665.192	27
665.38	26.88
665.567	27.42
665.755	27.35
665.942	27.08
666.13	26.63
666.317	26.9
666.504	26.55
666.692	27.2
666.879	26.98
667.067	27.54
667.254	27.86
667.441	28.46
667.629	27.7
667.816	27.8
668.003	27.92
668.19	28.12
668.378	27.94
668.565	27.81
668.752	27.4
668.939	28.04
669.127	27.57
669.314	27.46
669.501	27.02
669.688	27.08
669.875	27.11
670.062	27.19
670.249	26.95
670.436	27.09
670.623	27.02
670.81	26.73
670.997	26.29
671.184	26.43
671.371	26.67
671.558	26.29
671.745	26.43
671.932	26.9
672.119	26.38
672.306	26.3
672.493	26.02
672.68	26.19
672.867	26.96
673.054	26.86
673.24	27.07
673.427	26.57
673.614	26.28
673.801	26.13
673.988	26
674.174	26.27
674.361	26.71
674.548	27.1
674.734	27.13
674.921	26.09
675.108	26.23
675.294	25.96
675.481	26.26
675.668	26.95
675.854	27.36
676.041	26.76
676.227	26.83
676.414	25.99
676.601	25.46
676.787	25.67
676.974	26.21
677.16	25.8
677.347	26.07
677.533	25.87
677.719	26.05
677.906	25.97
678.092	26.68
678.279	26.38
678.465	27.01
678.651	27.69
678.838	27.97
679.024	27.63
679.21	28.26
679.397	27.98
679.583	28.62
679.769	28.22
679.955	28.05
680.142	27.55
680.328	27.76
680.514	27.54
680.7	27.38
680.886	26.87
681.073	27.08
681.259	26.72
681.445	26.92
681.631	26.62
681.817	27.05
682.003	26.96
682.189	26.76
682.375	26.76
682.561	27.17
682.747	27.14
682.933	26.88
683.119	26.62
683.305	27.01
683.491	27.3
683.677	26.8
683.863	26.85
684.049	27.28
684.235	27.67
684.42	27.39
684.606	27.13
684.792	27.38
684.978	27.48
685.164	28.08
685.349	27.65
685.535	27.6
685.721	27.65
685.907	27.23
686.092	27.26
686.278	27.58
686.464	27.54
686.649	27.61
686.835	26.93
687.021	27.29
687.206	26.73
687.392	26.97
687.577	26.43
687.763	26.73
687.948	27.09
688.134	27.62
688.319	27.19
688.505	27.68
688.69	27.61
688.876	27.78
689.061	27.76
689.247	28.25
689.432	27.87
689.618	27.93
689.803	28.15
689.988	28.06
690.174	27.4
690.359	28.17
690.544	28.18
690.73	28.52
690.915	28.65
691.1	29.1
691.285	28.77
691.471	28.4
691.656	28.86
691.841	28.56
692.026	28.5
692.211	28.54
692.396	27.63
692.582	27.26
692.767	27.19
692.952	27.25
693.137	26.86
693.322	26.74
693.507	27.34
693.692	26.68
693.877	27.35
694.062	28.02
694.247	27.91
694.432	28.16
694.617	28.75
694.802	28.3
694.987	28.3
695.172	28.2
695.357	28.93
695.541	28.31
695.726	28.06
695.911	27.59
696.096	26.83
696.281	26.65
696.466	25.6
696.65	25.02
696.835	25.6
697.02	26.11
697.204	26.2
697.389	26.5
697.574	26.98
697.759	28.17
697.943	27.89
698.128	28.14
698.312	28.26
698.497	28.63
698.682	28.2
698.866	28.1
699.051	27.93
699.235	27.83
699.42	27.46
699.604	27.49
699.789	27.15
699.973	27.25
700.158	26.69
700.342	26.57
700.527	27.34
700.711	28.24
700.895	28.3
701.08	27.88
701.264	27.83
701.448	27.39
701.633	27.33
701.817	26.5
702.001	26.2
702.186	26.11
702.37	25.91
702.554	24.6
702.738	23.84
702.923	23.79
703.107	24.47
703.291	23.76
703.475	23.96
703.659	24.42
703.843	25
704.027	24.96
704.212	24.86
704.396	24.61
704.58	25.56
704.764	25.77
704.948	25.06
705.132	24.74
705.316	25.86
705.5	25.86
705.684	25.73
705.868	25.75
706.052	25.99
706.235	26.6
706.419	26.58
706.603	26.24
706.787	26.82
706.971	26.42
707.155	25.57
707.339	25.84
707.522	25.85
707.706	25.6
707.89	24.98
708.074	25.64
708.257	25.55
708.441	25.76
708.625	26.13
708.808	25.67
708.992	26.26
709.176	27.14
709.359	26.77
709.543	27.46
709.727	27.52
709.91	28.03
710.094	27.31
710.277	27.15
710.461	27.95
710.644	27.75
710.828	27.34
711.011	27.1
711.195	26.51
711.378	26.7
711.562	26.57
711.745	26.72
711.928	26.83
712.112	26.55
712.295	26.22
712.478	26.81
712.662	27.24
712.845	27.74
713.028	27.6
713.212	28.52
713.395	27.9
713.578	27.39
713.761	26.96
713.945	26.61
714.128	27.16
714.311	27.84
714.494	26.46
714.677	25.97
714.86	25.86
715.043	26.86
715.227	26.7
715.41	27.24
715.593	27.87
715.776	27.97
715.959	28.49
716.142	28.66
716.325	28.18
716.508	28.14
716.691	28.44
716.874	29
717.057	28.78
717.239	29.42
717.422	29.58
717.605	29.43
717.788	29.44
717.971	29.67
718.154	29.49
718.337	30.5
718.519	30.36
718.702	29.69
718.885	28.5
719.068	27.27
719.25	26.67
719.433	26.66
719.616	25.03
719.798	25.37
719.981	23.56
720.164	23.65
720.346	23.95
720.529	25.49
720.712	25.49
720.894	25.57
721.077	26.13
721.259	25.71
721.442	25.5
721.624	27.46
721.807	28.61
721.989	29.38
722.172	30.13
722.354	29.5
722.537	28.25
722.719	28.46
722.901	29.73
723.084	29.83
723.266	29.41
723.448	29.83
723.631	29.24
723.813	27.63
723.995	27.98
724.178	26.51
724.36	26.48
724.542	27.07
724.724	27.69
724.907	25.85
725.089	25.41
725.271	25.47
725.453	24.18
725.635	23.93
725.817	24.35
725.999	24.6
726.181	25.3
726.364	25.34
726.546	25.63
726.728	25.92
726.91	26.97
727.092	27.88
727.274	28.88
727.456	29.64
727.638	29.88
727.819	30.37
728.001	29.82
728.183	30.13
728.365	29.53
728.547	29.07
728.729	28.56
728.911	29.14
729.093	29
729.274	28.19
729.456	27.25
729.638	27.47
729.82	26.34
730.001	26.24
730.183	26.34
730.365	27.31
730.546	26.71
730.728	25.6
730.91	25.13
731.091	25.76
731.273	25.72
731.455	26.3
731.636	26.49
731.818	26.77
731.999	27.15
732.181	27.84
732.362	28.31
732.544	29.4
732.725	29.75
732.907	29.67
733.088	28.49
733.27	28.02
733.451	28.57
733.633	27.71
733.814	28.24
733.995	28.94
734.177	27.47
734.358	26.61
734.539	25.51
734.721	26.41
734.902	26.78
735.083	26.66
735.264	26.64
735.446	25.72
735.627	25.96
735.808	25.42
735.989	25.09
736.17	24.7
736.351	24.86
736.533	25.84
736.714	25.28
736.895	24.54
737.076	24.93
737.257	26.06
737.438	26.06
737.619	26.04
737.8	26.94
737.981	27.83
738.162	27.99
738.343	27
738.524	25.91
738.705	26.22
738.886	25.62
739.067	25.86
739.247	25.1
739.428	25.49
739.609	26.78
739.79	25.38
739.971	25.48
740.151	27.27
740.332	27.79
740.513	28.46
740.694	29.06
740.874	30.59
741.055	30.44
741.236	31.94
741.417	32.29
741.597	31.48
741.778	32.23
741.958	29.88
742.139	28.51
742.32	28.4
742.5	28.5
742.681	27.38
742.861	27.13
743.042	28.37
743.222	25.42
743.403	24.29
743.583	23.74
743.764	24.49
743.944	25.55
744.124	25.39
744.305	25.33
744.485	26.93
744.666	26.6
744.846	26.09
745.026	25.31
745.207	26.08
745.387	26.69
745.567	26.98
745.747	26.4
745.928	27.1
746.108	28.75
746.288	29.33
746.468	26.9
746.648	27.95
746.829	27.8
747.009	27.48
747.189	28.18
747.369	28.29
747.549	28.03
747.729	26.05
747.909	26.08
748.089	24.63
748.269	23.73
748.449	26.15
748.629	25.62
748.809	25.54
748.989	25.73
749.169	23.91
749.349	24.53
749.529	23.8
749.709	24.83
749.889	25.34
750.068	24.31
750.248	25.08
750.428	23.63
750.608	24.25
750.788	24.45
750.967	24.66
751.147	26.68
751.327	27.21
751.507	27.58
751.686	27.79
751.866	25.67
752.046	26.15
752.225	26.66
752.405	27.08
752.585	26.53
752.764	27.56
752.944	26.42
753.123	27.05
753.303	26.31
753.482	24.93
753.662	25.18
753.841	26.34
754.021	27.93
754.2	26.96
754.38	25.45
754.559	25.29
754.739	21.93
754.918	22.68
755.097	21.03
755.277	19.87
755.456	21.99
755.635	23.22
755.815	23.16
755.994	22.57
756.173	21.93
756.352	22.74
756.532	23.08
756.711	25.55
756.89	26.92
757.069	27.17
757.248	27.68
757.427	27.51
757.607	26.42
757.786	27.11
757.965	26.43
758.144	26.98
758.323	28.31
758.502	28.77
758.681	29.56
758.86	29.04
759.039	28.52
759.218	28.18
759.397	27.71
759.576	27.5
759.755	27.48
759.934	28.09
760.113	28.24
760.291	26.71
760.47	25.64
760.649	25.93
760.828	25.21
761.007	26
761.186	26.57
761.364	26.85
761.543	26.63
761.722	26.52
761.901	25.48
762.079	24.66
762.258	25.66
762.437	26.69
762.615	26.13
762.794	27
762.972	27.35
763.151	28.45
763.33	28.8
763.508	29.19
763.687	29.12
763.865	30.13
764.044	30.96
764.222	31.4
764.401	30.83
764.579	29.73
764.758	29.26
764.936	29.26
765.114	29.39
765.293	29.12
765.471	29.58
765.65	29.06
765.828	28.75
766.006	30.74
766.184	30.06
766.363	31.47
766.541	32.91
766.719	32.4
766.898	32.33
767.076	33.07
767.254	32.85
767.432	31.42
767.61	31.12
767.788	30
767.967	26.15
768.145	26.96
768.323	24.34
768.501	24.85
768.679	25.42
768.857	25.17
769.035	22.93
769.213	23.35
769.391	25.29
769.569	26.3
769.747	28.4
769.925	26.96
770.103	25.97
770.281	25.94
770.459	25.95
770.636	25.43
770.814	26.12
770.992	27.1
771.17	26.75
771.348	24.51
771.525	24.15
771.703	20.78
771.881	22.13
772.059	23.05
772.236	24.4
772.414	24.77
772.592	26.64
772.769	26.19
772.947	24.04
773.125	25.31
773.302	26.84
773.48	25.95
773.657	27.44
773.835	28.42
774.013	27.75
774.19	27.85
774.368	26.98
774.545	26.38
774.723	27.11
774.9	29.37
775.077	27.31
775.255	26.54
775.432	28.2
775.61	28.05
775.787	27.36
775.964	27.9
776.142	29.02
776.319	28.54
776.496	26.35
776.674	25.48
776.851	22.94
777.028	24.27
777.205	25.28
777.382	26.1
777.56	23.76
777.737	25.91
777.914	22.2
778.091	18.75
778.268	18.62
778.445	23.19
778.622	22.37
778.8	23.57
778.977	25.29
779.154	21.33
779.331	20.12
779.508	23.12
779.685	22.12
779.862	24.45
780.038	26.6
780.215	26.3
780.392	22.04
780.569	21.01
780.746	21.41
780.923	21.5
781.1	26.77
781.277	26.95
781.453	28.8
781.63	30.01
781.807	29.86
781.984	31.3
782.16	32.02
782.337	35.54
782.514	35.49
782.691	36.42
782.867	34.33
783.044	29.83
783.221	31.07
783.397	28.53
783.574	26.29
783.75	26.85
783.927	24.57
784.103	26.19
784.28	23.73
784.456	26.88
784.633	23.43
784.809	23.59
784.986	26.08
785.162	23.46
785.339	23.66
785.515	26.4
785.692	27.55
785.868	25.77
786.044	24.44
786.221	25.18
786.397	22.29
786.573	24.75
786.749	22.74
786.926	22.43
787.102	24.16
787.278	26.68
787.454	26.48
787.631	27.35
787.807	29.67
787.983	30.24
788.159	30.34
788.335	32.07
788.511	30.05
788.687	34.08
788.863	33.26
789.039	33.85
789.216	31.83
789.392	32.31
789.568	28.11
789.744	30.04
789.919	28.44
790.095	28.65
790.271	28.39
790.447	28.5
790.623	26.2
790.799	27.89
790.975	25.54
791.151	26.66
791.327	25.08
791.502	28.61
791.678	27.02
791.854	27.4
792.03	25.5
792.205	24.76
792.381	22.67
792.557	20.1
792.733	19.87
792.908	20.65
793.084	20.44
793.259	21.19
793.435	21.48
793.611	22.78
793.786	26.15
793.962	27.98
794.137	31.06
794.313	35.91
794.488	38.21
794.664	39.11
794.839	39.6
795.015	38.2
795.19	39.42
795.366	38.01
795.541	35.84
795.716	33.3
795.892	34.16
796.067	32.29
796.242	30.39
796.418	31.5
796.593	32.12
796.768	31.03
796.944	32.36
797.119	31.39
797.294	31.18
797.469	31.58
797.644	34.35
797.82	35.44
797.995	34.34
798.17	32.98
798.345	33.48
798.52	31.04
798.695	31.2
798.87	28.85
799.045	29.57
799.22	30.74
799.395	30.58
799.57	27.77
799.745	28.48
799.92	27.05
800.095	29.46
800.27	28.05
800.445	30.01
800.62	26.78
800.795	29.37
800.97	27.35
801.145	23.33
801.319	23.62
801.494	23.54
801.669	15.99
801.844	16.29
802.018	19.53
802.193	15.45
802.368	13.02
802.543	18.3
802.717	18.19
802.892	17.84
803.067	21.39
803.241	20.35
803.416	22.34
803.59	25.05
803.765	27.46
803.94	26.09
804.114	27.19
804.289	26.6
804.463	24.43
804.638	23.48
804.812	28.13
804.986	26.07
805.161	25.93
805.335	24.04
805.51	22.28
805.684	19.82
805.858	15.95
806.033	17.13
806.207	17.74
806.381	18.86
806.556	18.71
806.73	12.58
806.904	16.64
807.078	19.71
807.253	21.55
807.427	23.05
807.601	23.26
807.775	26.3
807.949	27.08
808.123	25.56
808.298	29.62
808.472	30.21
808.646	31.34
808.82	28.24
808.994	23.95
809.168	17.87
809.342	18.53
809.516	19.73
809.69	16.03
809.864	13.15
810.038	15.76
810.212	16.35
810.385	22.06
810.559	23.25
810.733	25.38
810.907	25.2
811.081	29.89
811.255	30.9
811.428	31.27
811.602	32.83
811.776	35.59
811.95	33.74
812.123	26.79
812.297	18.33
812.471	20
812.644	19.04
812.818	19.03
812.992	20.19
813.165	13.34
813.339	18.44
813.512	18.98
813.686	18.55
813.86	20.91
814.033	21.91
814.207	25.47
814.38	24.16
814.554	18.32
814.727	25.02
814.9	24.74
815.074	33.51
815.247	32.72
815.421	33.43
815.594	37
815.767	35.08
815.941	34.83
816.114	37.16
816.287	40.4
816.46	47.27
816.634	48.53
816.807	48.9
816.98	51.51
817.153	45.95
817.327	48.5
817.5	45.64
817.673	45.17
817.846	50.4
818.019	46.18
818.192	43.83
818.365	41.28
818.538	32.48
818.711	29.98
818.884	25.59
819.057	26.98
819.23	28.87
819.403	31.67
819.576	34.53
819.749	33.63
819.922	32.15
820.095	34.6
820.268	34.76
820.441	36.75
820.614	38.35
820.786	38.85
820.959	36.22
821.132	32.72
821.305	32.33
821.477	31.13
821.65	28.29
821.823	29.28
821.996	27.99
822.168	27.76
822.341	28.1
822.514	28.29
822.686	28.68
822.859	29.69
823.031	30.87
823.204	29.67
823.376	29.49
823.549	29.85
823.722	30.11
823.894	30.57
824.067	30.51
824.239	30.8
824.411	30.2
824.584	30.53
824.756	30.67
824.929	29.18
825.101	29.22
825.273	28.92
825.446	29.83
825.618	29.73
825.79	30.28
825.963	31.31
826.135	29.44
826.307	30.43
826.479	29.68
826.652	28.3
826.824	29.53
826.996	30.4
827.168	31.06
827.34	30.48
827.512	30.89
827.684	30.35
827.856	29.24
828.029	30.62
828.201	28.68
828.373	27.89
828.545	27.82
828.717	26.14
828.889	26.4
829.061	28.32
829.232	27.13
829.404	27.34
829.576	27.63
829.748	26.09
829.92	25.68
830.092	28.77
830.264	28.04
830.436	31.6
830.607	34.59
830.779	38.6
830.951	32.07
831.123	33.33
831.294	32.94
831.466	32.18
831.638	33.39
831.809	36.65
831.981	30.16
832.153	31.58
832.324	31.66
832.496	27.52
832.667	22.33
832.839	26.25
833.011	23.15
833.182	22.43
833.354	19.62
833.525	17.72
833.697	17.73
833.868	23.49
834.039	22.58
834.211	22.08
834.382	25.39
834.554	23.18
834.725	23.72
834.896	23.42
835.068	25.07
835.239	30.09
835.41	34.01
835.581	33.4
835.753	35.37
835.924	35.04
836.095	35.33
836.266	34.67
836.438	38.31
836.609	38.62
836.78	42.84
836.951	39.87
837.122	35.69
837.293	34.4
837.464	29.74
837.635	22.89
837.806	26.56
837.977	27.89
838.148	23.84
838.319	20.21
838.49	26.29
838.661	26.91
838.832	29.21
839.003	25.25
839.174	31.87
839.345	40.21
839.516	34.85
839.687	40.95
839.857	32.27
840.028	39.23
840.199	42.51
840.37	37.41
840.54	35.94
840.711	32.6
840.882	36.48
841.053	34.58
841.223	32.35
841.394	42.37
841.564	36.76
841.735	41.28
841.906	38.05
842.076	32.68
842.247	28.99
842.417	25.13
842.588	28.58
842.758	31.95
842.929	26.84
843.099	26.8
843.27	17.49
843.44	15.93
843.611	12.01
843.781	14.58
843.951	14.19
844.122	9.95
844.292	9.22
844.462	9
844.633	5.08
844.803	2.88
844.973	6.49
845.144	13.58
845.314	29.43
845.484	27.29
845.654	20.95
845.824	26.43
845.995	38.13
846.165	52.15
846.335	49.74
846.505	47.09
846.675	44.64
846.845	38.63
847.015	52.19
847.185	47.71
847.355	66.91
847.525	69.09
847.695	69.99
847.865	58.76
848.035	55.11
848.205	49.9
848.375	50.55
848.545	58.09
848.715	66.22
848.884	66.08
849.054	69.22
849.224	57.1
849.394	62.3
849.564	52.88
849.733	56.26
849.903	66.45
850.073	66.57
850.243	73.23
850.412	76.15
850.582	73.29
850.752	75.78
850.921	57.69
851.091	49.57
851.26	50.95
851.43	54.72
851.599	66.91
851.769	40.25
851.939	31.83
852.108	31.57
852.278	22.61
852.447	25.15
852.616	18.67
852.786	28.34
852.955	40.89
853.125	34.67
853.294	43.82
853.463	36.48
853.633	49.74
853.802	60.73
853.971	39.99
854.141	70.32
854.31	46.25
854.479	43.41
854.648	50.47
854.818	56.7
854.987	46.76
855.156	46.56
855.325	55
855.494	55.7
855.663	52.53
855.832	55.09
856.001	38.87
856.171	58.03
856.34	60.26
856.509	61.61
856.678	46.75
856.847	64.29
857.016	58.19
857.185	45.07
857.353	37.93
857.522	44.65
857.691	53.89
857.86	53.94
858.029	62.55
858.198	68.57
858.367	69.1
858.535	76.11
858.704	64.61
858.873	75.19
859.042	64.03
859.21	67.32
859.379	62.1
859.548	59.12
859.717	57.34
859.885	50.21
860.054	39.08
860.222	27.61
860.391	20.84
860.56	32.99
860.728	25.78
860.897	30.99
861.065	13.47
861.234	7.76
861.402	19.08
861.571	3.23
861.739	38.32
861.908	77.39
862.076	77.2
862.244	72
862.413	65.99
862.581	52.77
862.749	57.94
862.918	54.66
863.086	59.53
863.254	63.17
863.423	69.76
863.591	35.61
863.759	19.27
863.927	13.15
864.096	28.15
864.264	25.14
864.432	41.62
864.6	46.06
864.768	45.57
864.936	54.94
865.104	45.21
865.272	37.95
865.44	43.27
865.608	45.87
865.776	63.07
865.944	43.71
866.112	38.36
866.28	20.78
866.448	8.12
866.616	5.85
866.784	7.56
866.952	30.45
867.12	75.54
867.288	51.42
867.455	63.13
867.623	37.53
867.791	78.98
867.959	81.54
868.127	73.11
868.294	84.93
868.462	78.31
868.63	74.19
868.797	49.38
868.965	59.1
869.133	79.43
869.3	73.21
869.468	73.81
869.636	47.91
869.803	54.77
869.971	56.73
870.138	59.83
870.306	59.1
870.473	41.68
870.641	33.58
870.808	16.65
870.975	8.37
871.143	15.6
871.31	16.18
871.478	25.9
871.645	34.66
871.812	34.42
871.98	19.56
872.147	7.56
872.314	25.96
872.482	27.65
872.649	30.46
872.816	34.83
872.983	19.05
873.15	30.71
873.318	30.52
873.485	20.19
873.652	14.15
873.819	11.3
873.986	12.02
874.153	15.55
874.32	32.83
874.487	32.32
874.654	42.02
874.821	37.12
874.988	-5.75
875.155	3.31
875.322	7.76
875.489	23.82
875.656	24.05
875.823	26.19
875.99	22.85
876.157	28.66
876.324	22.92
876.49	30.96
876.657	57.54
876.824	78.26
876.991	119.01
877.157	118.42
877.324	81.28
877.491	81.89
877.658	111.11
877.824	92.83
877.991	81.77
878.157	114.82
878.324	96.2
878.491	61.31
878.657	78.62
878.824	64.07
878.99	52.7
879.157	60.78
879.323	55.05
879.49	46.48
879.656	46.37
879.823	46.12
879.989	34.82
880.156	32.74
880.322	39.76
880.488	25.26
880.655	26.05
880.821	34.8
880.987	32.32
881.154	30.51
881.32	33.44
881.486	33.58
881.652	40.88
881.819	39.19
881.985	44.61
882.151	41.79
882.317	45.07
882.483	46.54
882.649	44.93
882.816	48.75
882.982	52.18
883.148	46.93
883.314	47.99
883.48	45.77
883.646	44.33
883.812	44.25
883.978	43.77
884.144	40.77
884.31	40.78
884.476	39.86
884.642	35.35
884.807	35.92
884.973	37.84
885.139	36.53
885.305	36.34
885.471	42.02
885.637	41.41
885.802	41.75
885.968	43.95
886.134	39.77
886.3	40.37
886.465	44.9
886.631	37.11
886.797	41.78
886.962	40.18
887.128	39.48
887.293	24.74
887.459	25.45
887.625	23.41
887.79	26.86
887.956	38.66
888.121	36.66
888.287	31.21
888.452	43.15
888.618	36.35
888.783	36.94
