Data from 2937810_Reflection_3.txt Node
Date: Wed Jul 15 17:49:10 EDT 2015
User: robert
Spectrometer: USB4E03001
Autoset integration time: false
Trigger mode: 4
Integration Time (sec): 1.000000E-1
Scans to average: 10
Electric dark correction enabled: true
Nonlinearity correction enabled: false
Boxcar width: 5
Stray light correction enabled: false
XAxis mode: Wavelengths
Stop averaging: false
Number of Pixels in Spectrum: 3648
>>>>>Begin Spectral Data<<<<<
177.566	85.83
177.785	176.1
178.005	46.7
178.225	-352.67
178.445	306.36
178.665	416.45
178.885	1395.33
179.105	126.58
179.324	119.8
179.544	70.52
179.764	49.07
179.984	43.78
180.204	0.8
180.423	-10.14
180.643	-61.81
180.863	-26.74
181.083	1.73
181.302	0.62
181.522	66.2
181.742	71.97
181.961	-11810
182.181	-109.58
182.401	-118.28
182.621	-680.28
182.84	-186.86
183.06	-109.02
183.279	-58.95
183.499	-98.48
183.719	-79.42
183.938	-93.51
184.158	-151.93
184.377	-201.3
184.597	-572.92
184.816	1415.91
185.036	820.75
185.256	154.19
185.475	142.81
185.695	187.21
185.914	188.81
186.134	134.68
186.353	157.62
186.572	139.15
186.792	95.3
187.011	115.68
187.231	102.54
187.45	68.31
187.67	129.21
187.889	419.71
188.108	214.5
188.328	183.23
188.547	217.82
188.766	170.5
188.986	176.89
189.205	222.6
189.424	216.89
189.644	219.6
189.863	288.39
190.082	272.26
190.302	146.93
190.521	89.65
190.74	42.95
190.959	10.56
191.178	-153.71
191.398	-271.15
191.617	24.32
191.836	61.43
192.055	36.65
192.274	34.09
192.494	-4.14
192.713	31.62
192.932	105.24
193.151	139.5
193.37	109.77
193.589	104.49
193.808	82.07
194.027	75.15
194.246	50.75
194.465	52.98
194.685	68.69
194.904	54.5
195.123	48.37
195.342	17.11
195.561	39.41
195.78	-135.09
195.999	-25.4
196.218	64.85
196.436	51.72
196.655	17.31
196.874	-35.5
197.093	-204.79
197.312	-751.05
197.531	-742.82
197.75	197.61
197.969	202.8
198.188	143.3
198.407	148.36
198.625	124.98
198.844	109.08
199.063	121.33
199.282	112.87
199.501	90.13
199.719	76.69
199.938	86.89
200.157	98.11
200.376	114.02
200.594	150
200.813	238
201.032	212.1
201.251	-398.01
201.469	-201.55
201.688	-195.07
201.907	-196.2
202.125	-284.05
202.344	-1576.67
202.563	-983.2
202.781	-666.45
203	-1324.72
203.218	-1578.65
203.437	9230.88
203.656	343.72
203.874	322.6
204.093	268.73
204.311	211.56
204.53	165.5
204.748	142.81
204.967	116.66
205.185	121.43
205.404	111.97
205.622	93.21
205.841	118.51
206.059	216.77
206.278	1025.54
206.496	2274.63
206.715	377.65
206.933	356.23
207.151	2100
207.37	-119.01
207.588	-374.27
207.806	167.59
208.025	94.15
208.243	114.92
208.461	186.96
208.68	109.99
208.898	188.42
209.116	324.85
209.335	-177.7
209.553	-33.06
209.771	-216.2
209.989	608.2
210.208	-4.95
210.426	-130.94
210.644	4156.36
210.862	1067.03
211.081	348.33
211.299	272.31
211.517	-1102.79
211.735	14775
211.953	527.57
212.171	402.75
212.39	1273.37
212.608	1067.59
212.826	1299.13
213.044	-344.14
213.262	-899.53
213.48	-5641.44
213.698	-2026.82
213.916	522.92
214.134	306.48
214.352	612.84
214.57	-8154.08
214.788	-3124.19
215.006	7098.97
215.224	3048.12
215.442	505.22
215.66	585.18
215.878	640.55
216.096	-413.02
216.314	-72.62
216.532	-85.85
216.75	-12.03
216.968	-104.19
217.185	-33.88
217.403	-16.76
217.621	0.1
217.839	46.77
218.057	2.76
218.275	-68.99
218.492	-654.17
218.71	1127.94
218.928	507.77
219.146	359.57
219.363	467.06
219.581	285.88
219.799	959.35
220.017	3191.84
220.234	-4191.83
220.452	-6118.32
220.67	2978.93
220.887	-645.77
221.105	-344.54
221.323	-112.37
221.54	-178.37
221.758	-183.52
221.976	-1299.39
222.193	324.97
222.411	159.75
222.629	195.92
222.846	143.21
223.064	145
223.281	129.83
223.499	126.12
223.716	105.68
223.934	99.01
224.151	115.95
224.369	133.45
224.586	136.03
224.804	202.78
225.021	207.56
225.239	199.73
225.456	237.05
225.674	288.9
225.891	223.21
226.108	274.2
226.326	245.1
226.543	3636.92
226.76	-203.33
226.978	-42.14
227.195	-77.67
227.413	-30.04
227.63	-10.93
227.847	-3.47
228.064	9.31
228.282	8.4
228.499	8.69
228.716	-0.28
228.934	-7.21
229.151	-4.72
229.368	-17.71
229.585	-17.66
229.802	-20.69
230.02	-23.73
230.237	-22.43
230.454	-29.18
230.671	-30.97
230.888	-46.08
231.105	-41.42
231.323	-52.41
231.54	-49.16
231.757	-37.89
231.974	-37.1
232.191	-45.28
232.408	-36.8
232.625	-37.63
232.842	-32.56
233.059	-59.97
233.276	-64.51
233.493	-78.39
233.71	-48.94
233.927	-68.96
234.144	-55.87
234.361	-70.37
234.578	-54.72
234.795	-61.13
235.012	-60.81
235.229	-69.45
235.446	-36.48
235.663	-37.29
235.879	-26.98
236.096	-20.71
236.313	-31.16
236.53	-37.19
236.747	-26.56
236.964	-31.33
237.181	-42.19
237.397	-45.35
237.614	-46.39
237.831	-48.21
238.048	-49.48
238.264	-83.86
238.481	-84.81
238.698	-41.62
238.915	-40.79
239.131	-47.53
239.348	-36.61
239.565	-24.2
239.781	-26.86
239.998	-28.41
240.215	-30.19
240.431	-24.05
240.648	-15.26
240.865	-12.97
241.081	-15.86
241.298	-11.31
241.514	-6.14
241.731	-7.09
241.947	-9.71
242.164	-7.51
242.38	-7.29
242.597	-7.01
242.814	-4.01
243.03	-3.81
243.246	-1.44
243.463	0.43
243.679	2.23
243.896	4.76
244.112	3.11
244.329	5.83
244.545	5.39
244.762	7.19
244.978	7.29
245.194	7.84
245.411	6.67
245.627	4.94
245.843	0.11
246.06	-2.08
246.276	-4.6
246.492	-4.69
246.709	-5.06
246.925	-4.88
247.141	-2.93
247.357	-4.43
247.574	-3.11
247.79	-1.68
248.006	-1.96
248.222	-0.59
248.439	-0.25
248.655	-1.92
248.871	-1.12
249.087	-2.25
249.303	-1.06
249.519	-5.93
249.736	-6.16
249.952	-12.45
250.168	-14.04
250.384	-15.91
250.6	-16.24
250.816	-17.32
251.032	-13.04
251.248	-10.15
251.464	-6.87
251.68	-8.49
251.896	-4.76
252.112	-2.91
252.328	-2.47
252.544	-7.69
252.76	-8.51
252.976	-6.94
253.192	-6.31
253.408	-5.38
253.624	-6.37
253.84	-7.31
254.056	-8.28
254.272	-5.71
254.487	-6.3
254.703	-3.21
254.919	1.9
255.135	5.62
255.351	2.9
255.567	-0.26
255.782	1.6
255.998	5.06
256.214	6.87
256.43	8.84
256.646	4.87
256.861	2.81
257.077	1.87
257.293	1.39
257.508	-2.13
257.724	-4.91
257.94	-3.88
258.155	-7.66
258.371	-13.55
258.587	-10.64
258.802	-13.1
259.018	-12.69
259.234	-10.88
259.449	-10.98
259.665	-11.16
259.88	-8.56
260.096	-6.29
260.312	-5.97
260.527	-4.87
260.743	-3.23
260.958	-5.26
261.174	-4.12
261.389	-3.27
261.605	-4.53
261.82	-3.88
262.036	-1.1
262.251	-4.21
262.466	-5.88
262.682	-5.53
262.897	-6.3
263.113	-6.27
263.328	-4.39
263.543	-0.56
263.759	-2.18
263.974	1.4
264.189	1.14
264.405	-1.51
264.62	-1.65
264.835	-1.56
265.051	-1.8
265.266	-0.04
265.481	-1.98
265.696	0.18
265.912	-4.25
266.127	-1.81
266.342	-2.38
266.557	-2.26
266.773	-4.92
266.988	-0.4
267.203	-2.04
267.418	-2.98
267.633	-4.48
267.848	-4.73
268.064	-7.86
268.279	-5.83
268.494	-5.12
268.709	-5.08
268.924	-4.33
269.139	-1.31
269.354	-2.38
269.569	-2.05
269.784	-2.15
269.999	-4.49
270.214	-6.36
270.429	-4.79
270.644	-5.95
270.859	-4.63
271.074	-3.57
271.289	-4.45
271.504	-6.35
271.719	-6.31
271.934	-3.74
272.149	-3.61
272.363	-0.38
272.578	1.04
272.793	-0.01
273.008	-0.02
273.223	-3.3
273.438	-5.42
273.653	-3.48
273.867	-1.39
274.082	-3.06
274.297	-2.39
274.512	-4.45
274.726	-4.98
274.941	-3.66
275.156	-3.6
275.371	-3.54
275.585	-0.92
275.8	1.28
276.015	-1.66
276.229	-3.91
276.444	-1.74
276.659	-2.72
276.873	1.4
277.088	-2.1
277.302	-2.59
277.517	-0.16
277.732	-2.03
277.946	-2.26
278.161	-4.17
278.375	-2.52
278.59	-4.3
278.804	-6.71
279.019	-7.65
279.233	-9.96
279.448	-5.95
279.662	-3.77
279.877	-4.6
280.091	-4.03
280.306	-4.13
280.52	-1.34
280.735	-3.84
280.949	-3.17
281.163	-2.32
281.378	-4.18
281.592	-5.9
281.806	-6.91
282.021	-7.08
282.235	-9.3
282.449	-6.98
282.664	-7.18
282.878	-6.34
283.092	-3.54
283.307	-1.4
283.521	-0.31
283.735	2.34
283.949	5.45
284.164	6.61
284.378	5.56
284.592	6.28
284.806	4.46
285.02	3.95
285.234	-0.56
285.449	-1.39
285.663	-5.79
285.877	-5.4
286.091	-5.93
286.305	-4.77
286.519	-5.9
286.733	-7.3
286.947	-8.57
287.161	-7.81
287.375	-4.8
287.589	0.24
287.803	1.46
288.017	4.79
288.231	3.61
288.445	1.41
288.659	-1.01
288.873	-1.12
289.087	0.43
289.301	2.14
289.515	1.7
289.729	-1
289.943	-4.89
290.157	-4.82
290.371	-5.93
290.584	-5.04
290.798	-2.54
291.012	-1.73
291.226	-2.54
291.44	-3.54
291.654	-3.82
291.867	-4.25
292.081	-6.08
292.295	-3.48
292.509	-3.26
292.722	-2.22
292.936	-4.81
293.15	-6.21
293.364	-5.56
293.577	-6.03
293.791	-5.61
294.005	-8.34
294.218	-7.7
294.432	-5.72
294.645	-4.21
294.859	-4.37
295.073	-1.43
295.286	0.02
295.5	0.48
295.713	-0.62
295.927	-0.31
296.14	0.29
296.354	0.89
296.568	0.22
296.781	-0.08
296.994	1.05
297.208	0.25
297.421	-0.58
297.635	-1.67
297.848	-3.46
298.062	-3.82
298.275	-2.58
298.489	-3.01
298.702	-0.74
298.915	0.5
299.129	2
299.342	-3.04
299.555	-4.48
299.769	-4.71
299.982	-2.28
300.195	-1.64
300.409	-2.46
300.622	-6
300.835	-6.98
301.048	-11.01
301.262	-11.2
301.475	-11.39
301.688	-11.03
301.901	-9.84
302.115	-11.22
302.328	-15
302.541	-14.92
302.754	-18.81
302.967	-10.95
303.18	-10.61
303.393	-8.26
303.607	-6.01
303.82	-5.7
304.033	-2.06
304.246	-0.53
304.459	1.07
304.672	1.35
304.885	4.82
305.098	8.72
305.311	5.55
305.524	7.5
305.737	6.9
305.95	5.41
306.163	4.69
306.376	4.11
306.589	4.89
306.802	5.76
307.015	6.57
307.228	2.77
307.44	1.9
307.653	0.83
307.866	-0.1
308.079	-0.77
308.292	-3.17
308.505	-3.05
308.718	-2.56
308.93	-2.49
309.143	-3.76
309.356	-0.45
309.569	-0.4
309.781	1.85
309.994	2.24
310.207	0.62
310.42	2.63
310.632	3.25
310.845	3.38
311.058	4.05
311.27	2.09
311.483	0.76
311.696	0.71
311.908	1.63
312.121	0
312.333	-0.75
312.546	0.87
312.759	0.12
312.971	0.54
313.184	-0.47
313.396	-4.94
313.609	-5.8
313.821	-5.11
314.034	-8.8
314.246	-9.29
314.459	-8.03
314.671	-8.98
314.884	-8.22
315.096	-8.44
315.309	-8.86
315.521	-6.55
315.733	-4.82
315.946	-4.11
316.158	-2.13
316.371	-2.9
316.583	-0.9
316.795	0.04
317.008	2.97
317.22	2.46
317.432	3.2
317.644	4.98
317.857	2.32
318.069	3.64
318.281	6.68
318.494	4.48
318.706	5.26
318.918	2.45
319.13	2.51
319.342	0.74
319.555	1.61
319.767	1.74
319.979	4.77
320.191	6.46
320.403	8.54
320.615	7.25
320.827	9.54
321.039	8.31
321.252	9.45
321.464	8.08
321.676	11.83
321.888	8.79
322.1	8.44
322.312	4.66
322.524	3.61
322.736	2.91
322.948	4.07
323.16	5.12
323.372	7.89
323.584	5.83
323.796	5.74
324.007	5.82
324.219	8.75
324.431	9.35
324.643	10.62
324.855	13.93
325.067	14.78
325.279	14.64
325.491	14.04
325.702	13.23
325.914	16.96
326.126	18.27
326.338	18.26
326.55	17.25
326.761	16.62
326.973	17.31
327.185	15.35
327.396	13.92
327.608	14.58
327.82	13.67
328.032	13.56
328.243	13.93
328.455	14.83
328.666	16.04
328.878	20.3
329.09	23.68
329.301	24.52
329.513	28.09
329.725	30.61
329.936	31.26
330.148	32.51
330.359	34.78
330.571	34.91
330.782	35.68
330.994	36.4
331.205	36.94
331.417	37.48
331.628	37.72
331.84	38.84
332.051	39.51
332.262	41.6
332.474	44.27
332.685	46.77
332.897	46.5
333.108	47.37
333.319	49.32
333.531	49.94
333.742	52.09
333.953	52.36
334.165	50.77
334.376	52.31
334.587	51.8
334.799	52.62
335.01	54.36
335.221	55.52
335.432	55.32
335.644	51.6
335.855	51.21
336.066	49.12
336.277	50.32
336.488	50.88
336.7	49.79
336.911	50.22
337.122	49.6
337.333	49.7
337.544	49.9
337.755	52.26
337.966	54.78
338.177	56.73
338.388	57.64
338.599	57.34
338.811	58.55
339.022	57.64
339.233	58.69
339.444	61.18
339.655	61.05
339.866	60.38
340.076	58.16
340.287	59.02
340.498	58.59
340.709	58.97
340.92	61.01
341.131	61.7
341.342	63.86
341.553	62.74
341.764	62.59
341.975	62.75
342.185	64.01
342.396	65.96
342.607	64.91
342.818	64.86
343.029	66.14
343.239	68.37
343.45	67.01
343.661	67.89
343.872	68.5
344.082	69.24
344.293	68.36
344.504	68.8
344.714	67.45
344.925	68.95
345.136	70.23
345.346	70.32
345.557	68.38
345.768	68.5
345.978	68.94
346.189	67.96
346.399	67.78
346.61	68.89
346.821	69.24
347.031	70.59
347.242	70.11
347.452	67.93
347.663	67.68
347.873	66.34
348.084	66.88
348.294	66.02
348.504	67.31
348.715	66.76
348.925	66.93
349.136	68.97
349.346	68.62
349.557	68.22
349.767	68.64
349.977	70.19
350.188	71.01
350.398	70.31
350.608	69.37
350.819	70.69
351.029	69.72
351.239	70.43
351.449	68.38
351.66	68.72
351.87	69.83
352.08	70.38
352.29	67.91
352.501	68.27
352.711	69.07
352.921	71.78
353.131	72.41
353.341	73.11
353.552	71.36
353.762	70.98
353.972	69.35
354.182	69.36
354.392	70.88
354.602	73.82
354.812	76.06
355.022	76.32
355.232	74.54
355.442	73.84
355.652	74
355.862	74.84
356.072	75.27
356.282	76.65
356.492	75.59
356.702	74.09
356.912	71.99
357.122	69.2
357.332	68.59
357.542	69.61
357.752	69.63
357.962	69.74
358.171	70.04
358.381	68.85
358.591	68.72
358.801	69.16
359.011	69.69
359.221	69.43
359.43	71.06
359.64	72.57
359.85	72.54
360.06	73.2
360.269	73.72
360.479	73.2
360.689	73.72
360.899	74.09
361.108	73.99
361.318	73.67
361.528	74
361.737	72.93
361.947	72.27
362.156	71.73
362.366	71.1
362.576	70.22
362.785	70.97
362.995	71.52
363.204	71.1
363.414	71.49
363.623	71.46
363.833	72.2
364.042	73.09
364.252	73.17
364.461	74.23
364.671	74.89
364.88	75.51
365.09	74.83
365.299	73.7
365.509	73.51
365.718	72.13
365.927	72.27
366.137	71.3
366.346	71.5
366.555	70.69
366.765	69.41
366.974	67.94
367.183	65.51
367.393	65.81
367.602	66.36
367.811	66.51
368.021	66.88
368.23	66.05
368.439	65.78
368.648	64.61
368.857	65.49
369.067	65.07
369.276	64.87
369.485	67.64
369.694	66.09
369.903	65.09
370.112	63.89
370.321	63.28
370.531	63.07
370.74	63.91
370.949	63.77
371.158	62.18
371.367	63.7
371.576	65.13
371.785	63.06
371.994	63.07
372.203	64.24
372.412	64.36
372.621	64.8
372.83	64.77
373.039	62.73
373.248	62.37
373.457	62.33
373.666	61.4
373.874	59.96
374.083	60.99
374.292	61.21
374.501	59.84
374.71	59.19
374.919	58.94
375.128	58.66
375.336	58.82
375.545	59.41
375.754	59.96
375.963	58.69
376.171	58.73
376.38	58.51
376.589	58.43
376.798	59.25
377.006	59.46
377.215	59.94
377.424	59.87
377.632	60.27
377.841	59.8
378.05	59.01
378.258	59.05
378.467	58.95
378.675	58.52
378.884	58.34
379.093	58.3
379.301	58.04
379.51	57.66
379.718	57.39
379.927	57.26
380.135	56.89
380.344	57.4
380.552	57.08
380.761	56.44
380.969	55.26
381.177	55.18
381.386	54.4
381.594	54.63
381.803	52.98
382.011	52.42
382.219	51.59
382.428	51.04
382.636	50.95
382.845	51.04
383.053	50.52
383.261	50.48
383.469	49.89
383.678	49.98
383.886	50.12
384.094	50.3
384.302	50.58
384.511	50.48
384.719	50.43
384.927	49.51
385.135	49.13
385.343	49.03
385.552	49.14
385.76	48.94
385.968	48.24
386.176	47.38
386.384	47.03
386.592	46.62
386.8	45.99
387.008	46.35
387.216	46.87
387.424	46.55
387.633	46.19
387.841	46.17
388.049	45.74
388.257	45.62
388.465	45.62
388.672	45.69
388.88	45.35
389.088	46.14
389.296	45.61
389.504	45.26
389.712	44.84
389.92	45.26
390.128	45.28
390.336	45.05
390.544	44.64
390.751	44.14
390.959	43.93
391.167	44.16
391.375	43.41
391.583	43.73
391.79	43.49
391.998	43.63
392.206	43.48
392.414	43.1
392.621	43.24
392.829	43.38
393.037	43.48
393.244	43.44
393.452	43.27
393.66	43.28
393.867	42.44
394.075	42.3
394.283	41.99
394.49	41.22
394.698	41.11
394.905	40.82
395.113	40.9
395.32	40.53
395.528	40.52
395.735	40.52
395.943	40.5
396.15	40.82
396.358	40.53
396.565	41.01
396.773	41.24
396.98	41.53
397.188	41.73
397.395	41.17
397.602	41.35
397.81	41.36
398.017	41.25
398.225	41.38
398.432	41.45
398.639	41.73
398.847	41.84
399.054	41.98
399.261	41.68
399.468	41.64
399.676	42.25
399.883	42.14
400.09	42.13
400.297	42.54
400.505	42.47
400.712	42.08
400.919	42.12
401.126	41.91
401.333	41.88
401.54	41.95
401.748	42.06
401.955	41.84
402.162	42.22
402.369	42.15
402.576	41.83
402.783	41.94
402.99	42.36
403.197	42.38
403.404	42.17
403.611	42.33
403.818	42.33
404.025	42.29
404.232	42.19
404.439	42.11
404.646	42.04
404.853	42.03
405.06	41.93
405.267	41.98
405.474	41.79
405.681	41.85
405.887	41.66
406.094	41.94
406.301	42.16
406.508	42.16
406.715	42.01
406.922	42.27
407.128	42.35
407.335	42.52
407.542	42.22
407.749	42.17
407.955	42.34
408.162	42.49
408.369	42
408.575	41.81
408.782	42.02
408.989	41.86
409.195	41.72
409.402	41.52
409.609	41.46
409.815	41.72
410.022	41.61
410.228	41.35
410.435	41.44
410.642	42.06
410.848	41.77
411.055	41.58
411.261	41.85
411.468	41.67
411.674	41.51
411.881	41.41
412.087	41.17
412.294	41.32
412.5	41.38
412.706	41.34
412.913	40.9
413.119	40.96
413.326	40.57
413.532	40.55
413.738	40.8
413.945	41.08
414.151	40.76
414.357	40.37
414.564	40.34
414.77	40.24
414.976	40.01
415.182	39.93
415.389	40.01
415.595	40.15
415.801	40.2
416.007	39.88
416.214	39.55
416.42	39.77
416.626	39.86
416.832	39.82
417.038	39.92
417.244	40.1
417.45	40.06
417.657	40.02
417.863	40.17
418.069	40.08
418.275	40.36
418.481	40.43
418.687	40.41
418.893	40.45
419.099	40.45
419.305	40.45
419.511	40.33
419.717	40.1
419.923	40.06
420.129	39.9
420.335	39.89
420.541	39.79
420.746	39.81
420.952	39.72
421.158	39.79
421.364	39.63
421.57	39.56
421.776	39.54
421.982	39.76
422.187	39.61
422.393	39.58
422.599	39.48
422.805	39.31
423.01	39.23
423.216	39.36
423.422	39.28
423.628	39.36
423.833	39.38
424.039	39.2
424.245	39.12
424.45	39.25
424.656	39.22
424.862	39.25
425.067	39.2
425.273	39.08
425.478	38.91
425.684	38.85
425.889	38.75
426.095	38.59
426.301	38.81
426.506	38.7
426.712	38.5
426.917	38.43
427.123	38.44
427.328	38.46
427.533	38.48
427.739	38.37
427.944	38.12
428.15	38.1
428.355	38.06
428.561	37.76
428.766	37.69
428.971	37.77
429.177	37.74
429.382	37.7
429.587	37.69
429.793	37.75
429.998	37.82
430.203	38.15
430.408	38.2
430.614	38.4
430.819	38.2
431.024	38.42
431.229	38.41
431.434	38.36
431.64	38.18
431.845	38.37
432.05	38.2
432.255	38.01
432.46	37.89
432.665	37.92
432.87	37.84
433.076	38.02
433.281	37.91
433.486	38.03
433.691	38.2
433.896	38.22
434.101	38.25
434.306	38.42
434.511	38.55
434.716	38.6
434.921	38.39
435.126	38.33
435.331	38.19
435.535	38.12
435.74	37.86
435.945	37.86
436.15	37.57
436.355	37.44
436.56	37.2
436.765	37.26
436.97	37.32
437.174	37.47
437.379	37.62
437.584	37.8
437.789	37.79
437.993	38.18
438.198	38.07
438.403	38.29
438.608	38.27
438.812	38.52
439.017	38.49
439.222	38.31
439.426	38.28
439.631	38.23
439.836	38.33
440.04	38.48
440.245	38.2
440.45	38.15
440.654	38.25
440.859	38.22
441.063	38.21
441.268	38.36
441.472	38.52
441.677	38.57
441.881	38.44
442.086	38.37
442.29	38.15
442.495	38.22
442.699	38.33
442.904	38.17
443.108	38.18
443.312	38.08
443.517	37.83
443.721	37.91
443.925	38.05
444.13	38.23
444.334	38.18
444.538	38.13
444.743	38.23
444.947	38.15
445.151	38.15
445.356	38
445.56	37.92
445.764	37.93
445.968	37.75
446.173	37.69
446.377	37.49
446.581	37.47
446.785	37.61
446.989	37.55
447.193	37.63
447.398	37.69
447.602	37.72
447.806	37.7
448.01	37.57
448.214	37.42
448.418	37.33
448.622	37.43
448.826	37.36
449.03	37.21
449.234	37.01
449.438	36.95
449.642	36.87
449.846	36.82
450.05	36.81
450.254	36.74
450.458	36.83
450.662	36.72
450.866	36.66
451.069	36.65
451.273	36.8
451.477	36.86
451.681	36.92
451.885	37
452.089	37.16
452.292	37.31
452.496	37.21
452.7	37.3
452.904	37.32
453.107	37.41
453.311	37.47
453.515	37.32
453.719	37.04
453.922	36.9
454.126	36.82
454.33	36.67
454.533	36.48
454.737	36.64
454.94	36.56
455.144	36.24
455.348	35.92
455.551	35.83
455.755	35.92
455.958	36.35
456.162	36.29
456.365	36.16
456.569	36.05
456.772	35.95
456.976	36.06
457.179	36.05
457.383	36.28
457.586	36.35
457.79	36.41
457.993	36.54
458.196	36.33
458.4	36.38
458.603	36.43
458.807	36.65
459.01	36.78
459.213	36.8
459.417	36.88
459.62	36.88
459.823	37.11
460.026	37.12
460.23	37.03
460.433	37.28
460.636	37.32
460.839	37.35
461.042	37.43
461.246	37.45
461.449	37.45
461.652	37.41
461.855	37.47
462.058	37.26
462.261	37.23
462.464	37.23
462.668	37.08
462.871	37.33
463.074	37.48
463.277	37.35
463.48	37.49
463.683	37.47
463.886	37.6
464.089	37.5
464.292	37.63
464.495	37.64
464.698	37.82
464.901	37.89
465.104	37.67
465.306	37.48
465.509	37.68
465.712	37.52
465.915	37.56
466.118	37.4
466.321	37.7
466.524	37.72
466.726	37.87
466.929	37.68
467.132	37.74
467.335	38.03
467.538	38.04
467.74	37.77
467.943	37.92
468.146	37.88
468.348	37.94
468.551	38.07
468.754	38.22
468.956	38.11
469.159	38.13
469.362	38.04
469.564	37.69
469.767	37.75
469.969	38.05
470.172	37.7
470.375	37.69
470.577	37.8
470.78	37.73
470.982	37.68
471.185	37.78
471.387	38.02
471.59	38.11
471.792	38.23
471.995	38.43
472.197	38.25
472.399	38.48
472.602	38.6
472.804	38.62
473.007	38.5
473.209	38.59
473.411	38.67
473.614	38.5
473.816	38.48
474.018	38.43
474.22	38.35
474.423	38.47
474.625	38.48
474.827	38.44
475.03	38.43
475.232	38.21
475.434	37.99
475.636	38.01
475.838	38.11
476.04	38.15
476.243	38.08
476.445	38.25
476.647	38.27
476.849	38.29
477.051	38.29
477.253	38.46
477.455	38.52
477.657	38.7
477.859	38.71
478.061	38.75
478.263	38.58
478.465	38.71
478.667	38.47
478.869	38.41
479.071	38.45
479.273	38.61
479.475	38.33
479.677	38.47
479.879	38.3
480.081	38.19
480.283	38.12
480.485	38.32
480.686	37.99
480.888	38.24
481.09	38.31
481.292	38.12
481.494	37.92
481.695	38.07
481.897	37.99
482.099	38
482.301	38.06
482.502	38.11
482.704	38.1
482.906	38.22
483.107	38.11
483.309	38.07
483.511	38.23
483.712	38.18
483.914	38.16
484.115	38.25
484.317	38.3
484.519	38.34
484.72	38.29
484.922	38.28
485.123	38.38
485.325	38.38
485.526	38.43
485.728	38.36
485.929	38.45
486.131	38.43
486.332	38.35
486.534	38.31
486.735	38.25
486.936	38.26
487.138	38.21
487.339	38.09
487.541	38.03
487.742	37.96
487.943	37.98
488.144	37.93
488.346	37.96
488.547	37.98
488.748	37.97
488.95	37.89
489.151	37.9
489.352	37.92
489.553	37.94
489.755	38.09
489.956	38.15
490.157	38.2
490.358	38.22
490.559	38.18
490.76	38.23
490.961	38.27
491.163	38.31
491.364	38.35
491.565	38.34
491.766	38.43
491.967	38.36
492.168	38.33
492.369	38.33
492.57	38.41
492.771	38.54
492.972	38.41
493.173	38.4
493.374	38.42
493.575	38.46
493.776	38.49
493.976	38.47
494.177	38.53
494.378	38.56
494.579	38.64
494.78	38.66
494.981	38.47
495.182	38.6
495.382	38.64
495.583	38.66
495.784	38.7
495.985	38.63
496.185	38.71
496.386	38.56
496.587	38.57
496.788	38.39
496.988	38.3
497.189	38.39
497.39	38.5
497.59	38.5
497.791	38.55
497.992	38.51
498.192	38.57
498.393	38.43
498.593	38.62
498.794	38.84
498.994	39.08
499.195	39.24
499.395	39.3
499.596	39.2
499.796	39.33
499.997	39.34
500.197	39.3
500.398	39.4
500.598	39.42
500.799	39.27
500.999	39.24
501.199	39.26
501.4	39.15
501.6	39.18
501.801	39.48
502.001	39.36
502.201	39.38
502.402	39.42
502.602	39.45
502.802	39.75
503.002	40.07
503.203	40.05
503.403	39.92
503.603	40.06
503.803	40.14
504.003	40.33
504.204	40.31
504.404	40.48
504.604	40.5
504.804	40.72
505.004	40.74
505.204	40.73
505.404	41.02
505.604	41.17
505.804	41.24
506.005	41.47
506.205	41.53
506.405	41.77
506.605	41.82
506.805	42.07
507.005	42.07
507.204	42.04
507.404	42.1
507.604	42
507.804	41.98
508.004	42.17
508.204	42.24
508.404	42.15
508.604	42.25
508.804	42.3
509.003	42.31
509.203	42.36
509.403	42.41
509.603	42.7
509.803	42.66
510.002	42.85
510.202	42.95
510.402	42.99
510.602	43.02
510.801	42.95
511.001	43.19
511.201	43.21
511.4	43.41
511.6	43.57
511.8	43.44
511.999	43.65
512.199	43.68
512.398	43.79
512.598	43.76
512.797	43.79
512.997	44
513.197	43.96
513.396	44.12
513.596	44.18
513.795	44.35
513.994	44.46
514.194	44.41
514.393	44.35
514.593	44.43
514.792	44.71
514.992	44.9
515.191	45.09
515.39	45.29
515.59	45.37
515.789	45.5
515.988	45.56
516.188	45.72
516.387	46
516.586	46.23
516.786	46.23
516.985	46.23
517.184	46.33
517.383	46.37
517.582	46.25
517.782	46.5
517.981	46.42
518.18	46.53
518.379	46.66
518.578	46.75
518.777	46.98
518.976	47.23
519.176	47.39
519.375	47.59
519.574	47.61
519.773	47.83
519.972	47.79
520.171	48.03
520.37	48.04
520.569	48.13
520.768	48.26
520.967	48.31
521.166	48.14
521.365	48.09
521.564	48.08
521.762	48.23
521.961	48.38
522.16	48.34
522.359	48.29
522.558	48.34
522.757	48.39
522.956	48.32
523.154	48.5
523.353	48.59
523.552	48.82
523.751	48.99
523.949	49.03
524.148	49.1
524.347	49.41
524.546	49.55
524.744	49.69
524.943	49.76
525.142	49.93
525.34	50.02
525.539	50.1
525.737	50.16
525.936	50.19
526.135	50.32
526.333	50.34
526.532	50.43
526.73	50.58
526.929	50.68
527.127	50.83
527.326	50.91
527.524	51.03
527.723	51.12
527.921	51.17
528.12	51.18
528.318	51.21
528.516	51.37
528.715	51.41
528.913	51.43
529.112	51.5
529.31	51.57
529.508	51.62
529.707	51.59
529.905	51.61
530.103	51.6
530.301	51.65
530.5	51.64
530.698	51.61
530.896	51.63
531.094	51.67
531.293	51.57
531.491	51.38
531.689	51.48
531.887	51.44
532.085	51.58
532.283	51.78
532.481	51.97
532.68	52.11
532.878	52.23
533.076	52.28
533.274	52.38
533.472	52.44
533.67	52.65
533.868	52.56
534.066	52.68
534.264	52.71
534.462	52.79
534.66	52.75
534.858	52.87
535.056	52.71
535.253	52.81
535.451	52.88
535.649	53.13
535.847	53.08
536.045	53.18
536.243	53.17
536.441	53.25
536.638	53.17
536.836	53.3
537.034	53.19
537.232	53.39
537.43	53.31
537.627	53.28
537.825	53.15
538.023	53.18
538.22	53.25
538.418	53.35
538.616	53.33
538.813	53.41
539.011	53.36
539.209	53.47
539.406	53.39
539.604	53.46
539.801	53.59
539.999	53.82
540.196	54.01
540.394	53.94
540.591	54
540.789	54.02
540.986	54.06
541.184	54.17
541.381	54.25
541.579	54.31
541.776	54.37
541.974	54.41
542.171	54.3
542.368	54.26
542.566	54.3
542.763	54.28
542.96	54.41
543.158	54.31
543.355	54.06
543.552	54.01
543.75	54.12
543.947	54.11
544.144	54
544.341	54
544.539	53.96
544.736	53.86
544.933	53.95
545.13	53.73
545.327	53.93
545.524	54.16
545.722	54.17
545.919	54.14
546.116	54.12
546.313	54.17
546.51	54.27
546.707	54.26
546.904	54.37
547.101	54.31
547.298	54.37
547.495	54.36
547.692	54.33
547.889	54.43
548.086	54.29
548.283	54.24
548.48	54.31
548.677	54.17
548.874	54.34
549.07	54.35
549.267	54.42
549.464	54.69
549.661	54.7
549.858	54.78
550.055	54.7
550.251	54.86
550.448	55.04
550.645	54.74
550.842	54.77
551.038	54.62
551.235	54.77
551.432	54.6
551.628	54.43
551.825	54.29
552.022	54.34
552.218	54.38
552.415	54.29
552.612	54.33
552.808	54.52
553.005	54.64
553.201	54.62
553.398	54.69
553.594	54.9
553.791	54.9
553.987	54.97
554.184	54.95
554.38	54.96
554.577	55.13
554.773	55.38
554.97	55.5
555.166	55.61
555.362	55.72
555.559	55.52
555.755	55.45
555.952	55.33
556.148	55.51
556.344	55.45
556.541	55.29
556.737	55.27
556.933	54.99
557.129	55
557.326	54.89
557.522	54.97
557.718	54.99
557.914	55.08
558.11	55.25
558.307	55.08
558.503	55.25
558.699	55.31
558.895	55.26
559.091	55.02
559.287	55.02
559.483	55.22
559.679	55.14
559.876	55.24
560.072	54.91
560.268	54.94
560.464	55
560.66	54.97
560.856	55.06
561.052	54.88
561.247	55.02
561.443	55.01
561.639	55.02
561.835	55.17
562.031	55.19
562.227	55.56
562.423	55.83
562.619	55.87
562.815	55.85
563.01	55.77
563.206	55.95
563.402	56.19
563.598	56.26
563.793	55.91
563.989	55.74
564.185	55.52
564.381	55.42
564.576	55.21
564.772	55.11
564.968	55.19
565.163	55.28
565.359	55.25
565.555	55.09
565.75	54.95
565.946	55.14
566.141	55.35
566.337	55.68
566.532	55.59
566.728	55.61
566.923	55.76
567.119	55.54
567.314	55.6
567.51	55.68
567.705	55.7
567.901	55.81
568.096	55.68
568.292	55.57
568.487	55.26
568.682	55.35
568.878	55.4
569.073	55.38
569.268	55.76
569.464	55.41
569.659	55.42
569.854	55.44
570.05	55.5
570.245	55.65
570.44	55.86
570.635	55.81
570.831	55.94
571.026	55.77
571.221	55.88
571.416	55.72
571.611	56.11
571.806	55.95
572.002	55.96
572.197	55.95
572.392	55.87
572.587	55.75
572.782	55.78
572.977	55.62
573.172	55.57
573.367	55.41
573.562	55.38
573.757	55.39
573.952	55.47
574.147	55.33
574.342	55.28
574.537	55.57
574.732	55.67
574.927	55.69
575.121	55.63
575.316	55.8
575.511	55.83
575.706	55.93
575.901	55.75
576.096	55.66
576.29	55.76
576.485	55.58
576.68	55.23
576.875	55.2
577.069	55.29
577.264	55.45
577.459	55.54
577.654	55.29
577.848	55.23
578.043	55.31
578.238	55.77
578.432	55.73
578.627	55.99
578.821	56.07
579.016	55.85
579.21	55.89
579.405	55.91
579.6	55.89
579.794	56
579.989	55.82
580.183	55.84
580.378	55.58
580.572	55.93
580.766	56.01
580.961	56.22
581.155	56.4
581.35	56.66
581.544	56.53
581.738	56.59
581.933	56.66
582.127	57.02
582.321	57.23
582.516	56.8
582.71	56.72
582.904	56.47
583.099	56.24
583.293	56.16
583.487	56.02
583.681	56.38
583.875	56.33
584.07	56.54
584.264	56.41
584.458	56.13
584.652	56.58
584.846	56.6
585.04	56.98
585.234	57.18
585.428	57.23
585.623	57.29
585.817	56.98
586.011	57.11
586.205	57.11
586.399	56.98
586.593	56.96
586.787	57.29
586.981	57.16
587.174	56.9
587.368	57.03
587.562	57.23
587.756	57.24
587.95	57.06
588.144	56.75
588.338	56.72
588.532	56.98
588.725	57.27
588.919	56.87
589.113	57.24
589.307	57.23
589.501	57.03
589.694	56.67
589.888	56.84
590.082	56.98
590.275	57.01
590.469	57.12
590.663	57.12
590.856	56.93
591.05	57.09
591.244	56.99
591.437	57.01
591.631	57.08
591.824	57.03
592.018	56.91
592.212	57.15
592.405	57.51
592.599	57.48
592.792	57.48
592.986	57.82
593.179	57.63
593.372	57.45
593.566	57.55
593.759	57.3
593.953	57.27
594.146	57.22
594.339	57.07
594.533	57.09
594.726	57.32
594.92	57.18
595.113	56.82
595.306	57.02
595.499	57.2
595.693	57.27
595.886	57.65
596.079	58.09
596.272	58.12
596.466	58.32
596.659	58.38
596.852	58.27
597.045	58.3
597.238	58.5
597.431	58.62
597.624	58.49
597.818	58.73
598.011	58.56
598.204	58.43
598.397	58.36
598.59	58.36
598.783	58.38
598.976	58.19
599.169	58.36
599.362	58.12
599.555	57.98
599.748	58.04
599.941	57.54
600.134	57.95
600.326	58.21
600.519	58.28
600.712	58.38
600.905	58.1
601.098	58.34
601.291	58.38
601.483	58.75
601.676	59.1
601.869	58.96
602.062	59.22
602.255	59.2
602.447	59
602.64	58.91
602.833	58.87
603.025	59.05
603.218	59.04
603.411	58.99
603.603	59.01
603.796	58.95
603.989	59.07
604.181	59.2
604.374	58.92
604.566	58.99
604.759	59.14
604.951	59.22
605.144	59.27
605.336	59.26
605.529	59.37
605.721	59.51
605.914	59.44
606.106	59.64
606.299	59.54
606.491	59.79
606.683	59.73
606.876	59.79
607.068	59.72
607.26	59.65
607.453	59.41
607.645	59.24
607.837	58.93
608.03	59.16
608.222	58.82
608.414	58.66
608.606	58.83
608.799	58.89
608.991	58.9
609.183	59.06
609.375	58.95
609.567	59.17
609.759	59.31
609.952	59.56
610.144	59.27
610.336	59.21
610.528	59.32
610.72	58.85
610.912	59.01
611.104	58.86
611.296	58.67
611.488	58.56
611.68	58.23
611.872	58.02
612.064	57.62
612.256	57.48
612.448	57.77
612.64	57.95
612.832	57.9
613.023	57.55
613.215	57.43
613.407	57.5
613.599	57.6
613.791	58.09
613.983	58.27
614.174	58.33
614.366	58.41
614.558	58.34
614.75	58.36
614.941	58.78
615.133	59.03
615.325	59.27
615.516	59.08
615.708	59.73
615.9	59.84
616.091	59.84
616.283	59.81
616.475	60.05
616.666	59.94
616.858	59.54
617.049	59.58
617.241	59.87
617.432	59.9
617.624	59.9
617.815	59.42
618.007	59.23
618.198	59.11
618.39	59.16
618.581	59.4
618.773	59.79
618.964	60.09
619.155	59.9
619.347	59.38
619.538	59.32
619.729	58.9
619.921	58.91
620.112	59.18
620.303	59.34
620.494	59.46
620.686	59.39
620.877	59.23
621.068	59.15
621.259	59.55
621.451	59.68
621.642	59.96
621.833	60.66
622.024	60.97
622.215	60.4
622.406	60.28
622.597	60.45
622.788	60.17
622.98	60.43
623.171	60.2
623.362	59.91
623.553	59.74
623.744	59.79
623.935	59.6
624.126	59.16
624.317	59.83
624.508	59.82
624.698	59.73
624.889	60.02
625.08	60
625.271	60.27
625.462	60.66
625.653	61.05
625.844	60.46
626.034	60.49
626.225	60.69
626.416	60.21
626.607	60.15
626.798	59.89
626.988	59.98
627.179	59.58
627.37	59.65
627.56	59.27
627.751	59.22
627.942	59.71
628.132	59.88
628.323	59.79
628.514	60.07
628.704	60.1
628.895	60.63
629.085	60.04
629.276	60.19
629.466	60.32
629.657	60.47
629.847	60.29
630.038	60.25
630.228	60.09
630.419	60.04
630.609	60.09
630.8	60.44
630.99	59.98
631.181	60.32
631.371	60.41
631.561	60.09
631.752	60.06
631.942	60.1
632.132	60.28
632.323	60.2
632.513	60.14
632.703	59.72
632.893	59.44
633.084	59.69
633.274	59.56
633.464	59.36
633.654	59.26
633.844	59.11
634.034	59.09
634.225	58.69
634.415	58.58
634.605	58.42
634.795	58.58
634.985	58.65
635.175	58.52
635.365	58.42
635.555	58.6
635.745	58.6
635.935	58.87
636.125	58.72
636.315	58.72
636.505	58.45
636.695	58.91
636.885	58.8
637.075	58.49
637.265	58.35
637.455	58.64
637.644	58.48
637.834	58.54
638.024	58.05
638.214	58.14
638.404	58.23
638.593	58.37
638.783	58.21
638.973	58.35
639.163	58.73
639.352	58.85
639.542	58.73
639.732	58.87
639.921	58.82
640.111	58.56
640.301	58.19
640.49	58.28
640.68	58.7
640.87	58.65
641.059	58.45
641.249	58.03
641.438	58.26
641.628	57.74
641.817	57.35
642.007	58.09
642.196	58.55
642.386	58.95
642.575	59.07
642.764	59.16
642.954	59.12
643.143	59.52
643.333	59.92
643.522	59.39
643.711	60.18
643.901	60.41
644.09	59.99
644.279	59.71
644.469	59.62
644.658	59.5
644.847	59.58
645.036	59.79
645.226	59.46
645.415	59.33
645.604	60.08
645.793	59.73
645.982	59.98
646.171	60.04
646.361	60.5
646.55	60.95
646.739	60.63
646.928	60.37
647.117	60.01
647.306	59.92
647.495	60.42
647.684	59.84
647.873	60.26
648.062	59.96
648.251	59.56
648.44	59.58
648.629	59.24
648.818	59.56
649.007	59.92
649.196	60.01
649.384	60.02
649.573	59.57
649.762	59.62
649.951	59.75
650.14	60.04
650.328	60.21
650.517	60.4
650.706	60.34
650.895	60.02
651.083	59.76
651.272	60.37
651.461	60.48
651.65	60.57
651.838	60.66
652.027	59.97
652.216	59.35
652.404	59.38
652.593	58.98
652.781	59.31
652.97	59.4
653.158	59.65
653.347	59.46
653.535	59.49
653.724	59.38
653.912	59.61
654.101	59.65
654.289	60.06
654.478	59.81
654.666	60.33
654.855	60.11
655.043	60.7
655.231	60.48
655.42	60.01
655.608	60.21
655.796	60.19
655.985	60.27
656.173	60.41
656.361	59.98
656.55	60.08
656.738	59.59
656.926	59.46
657.114	58.96
657.302	59
657.491	58.83
657.679	58.94
657.867	59.08
658.055	58.79
658.243	59.13
658.431	59.4
658.619	59.76
658.807	59.93
658.996	60.1
659.184	59.83
659.372	59.79
659.56	60.05
659.748	59.89
659.936	60.03
660.124	60.01
660.311	60.25
660.499	60.3
660.687	60
660.875	59.77
661.063	59.69
661.251	60
661.439	59.9
661.627	59.45
661.814	59.43
662.002	58.93
662.19	58.92
662.378	58.21
662.565	58.04
662.753	58.05
662.941	58.23
663.129	58.34
663.316	58.3
663.504	57.82
663.692	58.23
663.879	57.91
664.067	58.44
664.254	58.09
664.442	58.17
664.63	58.83
664.817	58.6
665.005	58.39
665.192	58.18
665.38	58.33
665.567	58.47
665.755	58.28
665.942	59.18
666.13	59.11
666.317	60.04
666.504	59.98
666.692	59.06
666.879	59.39
667.067	59.82
667.254	59.47
667.441	59.27
667.629	59.78
667.816	59.88
668.003	58.89
668.19	59.09
668.378	58.56
668.565	58.7
668.752	59.28
668.939	59.38
669.127	59.11
669.314	60.06
669.501	60.02
669.688	60.1
669.875	60.2
670.062	60.52
670.249	60.15
670.436	59.9
670.623	59.99
670.81	59.89
670.997	59.88
671.184	59.67
671.371	58.82
671.558	59.3
671.745	59.09
671.932	59.26
672.119	58.98
672.306	59.01
672.493	59.82
672.68	59.24
672.867	58.92
673.054	59.01
673.24	59.71
673.427	60.09
673.614	59.46
673.801	59.49
673.988	59.12
674.174	59.17
674.361	59.03
674.548	58.4
674.734	59.02
674.921	59.25
675.108	59.03
675.294	58.55
675.481	58.97
675.668	59.21
675.854	59.52
676.041	59.98
676.227	60.06
676.414	60.56
676.601	61.03
676.787	61.03
676.974	61.37
677.16	61.49
677.347	61.53
677.533	60.76
677.719	60.28
677.906	60.54
678.092	60.28
678.279	59.89
678.465	59.35
678.651	58.96
678.838	58.67
679.024	58.44
679.21	58.43
679.397	58.55
679.583	58.71
679.769	59.37
679.955	58.8
680.142	58.7
680.328	59.31
680.514	59.72
680.7	59.88
680.886	60.06
681.073	59.77
681.259	59.85
681.445	59.95
681.631	60
681.817	60.02
682.003	59.59
682.189	59.83
682.375	59.54
682.561	59.65
682.747	59.28
682.933	58.79
683.119	59.09
683.305	58.18
683.491	57.87
683.677	57.68
683.863	57.59
684.049	58.2
684.235	57.93
684.42	58.4
684.606	58.04
684.792	58.81
684.978	59.35
685.164	59.72
685.349	60.86
685.535	60.71
685.721	60.76
685.907	60.9
686.092	60.99
686.278	60.78
686.464	59.29
686.649	58.82
686.835	58.39
687.021	58.35
687.206	57.46
687.392	57.37
687.577	57.61
687.763	57.78
687.948	56.94
688.134	56.6
688.319	56.8
688.505	57.8
688.69	57.95
688.876	57.06
689.061	57.39
689.247	57.48
689.432	57.06
689.618	57.29
689.803	57.71
689.988	57.85
690.174	57.24
690.359	57.05
690.544	57.39
690.73	58.42
690.915	59.64
691.1	59.31
691.285	60.27
691.471	60.81
691.656	60.77
691.841	60.7
692.026	61.15
692.211	61.84
692.396	62.57
692.582	62.05
692.767	62.41
692.952	62.5
693.137	62.35
693.322	61.92
693.507	61.72
693.692	61.61
693.877	61.11
694.062	61.25
694.247	61.87
694.432	61.09
694.617	60.93
694.802	59.93
694.987	59.34
695.172	59.66
695.357	59.7
695.541	60.2
695.726	59.63
695.911	59.21
696.096	58.65
696.281	58.39
696.466	59.15
696.65	59.47
696.835	59.34
697.02	59.28
697.204	59.25
697.389	59.19
697.574	58.24
697.759	58.75
697.943	58.81
698.128	59.36
698.312	59.51
698.497	59.15
698.682	59.41
698.866	59.6
699.051	59.76
699.235	59.54
699.42	59.5
699.604	59.95
699.789	59.33
699.973	59.42
700.158	58.36
700.342	58.26
700.527	58.49
700.711	58.34
700.895	58.08
701.08	57.89
701.264	57.76
701.448	57.99
701.633	58.19
701.817	58.26
702.001	58.46
702.186	59.73
702.37	59.47
702.554	58.73
702.738	58.24
702.923	57.01
703.107	57.77
703.291	57.21
703.475	56.74
703.659	56.16
703.843	56.62
704.027	56.7
704.212	56.42
704.396	56.94
704.58	56.64
704.764	56.58
704.948	57.9
705.132	57.27
705.316	58.05
705.5	57.92
705.684	58.03
705.868	57.81
706.052	57.97
706.235	58.44
706.419	57.98
706.603	59.68
706.787	59.67
706.971	58.59
707.155	58.46
707.339	57.81
707.522	57.9
707.706	57.95
707.89	58.8
708.074	58.11
708.257	57.14
708.441	57.31
708.625	56.77
708.808	57.55
708.992	57.71
709.176	58.11
709.359	58.67
709.543	58.82
709.727	58.8
709.91	58.27
710.094	59.31
710.277	59.23
710.461	59.09
710.644	59.18
710.828	58.06
711.011	57.59
711.195	57.31
711.378	57.01
711.562	56.12
711.745	55.97
711.928	55.42
712.112	54.11
712.295	54.98
712.478	55.21
712.662	54.79
712.845	55.6
713.028	57.31
713.212	56.14
713.395	56.7
713.578	57.98
713.761	57.9
713.945	58.38
714.128	59.11
714.311	58.2
714.494	57.96
714.677	57.2
714.86	56.91
715.043	55.79
715.227	56.27
715.41	55.89
715.593	55.4
715.776	55.31
715.959	55.92
716.142	55.25
716.325	55.41
716.508	54.15
716.691	54.6
716.874	54.16
717.057	54.62
717.239	55.31
717.422	55.3
717.605	54.83
717.788	55.47
717.971	54.26
718.154	55.63
718.337	55.94
718.519	57.31
718.702	57.72
718.885	58.13
719.068	57.68
719.25	57.38
719.433	57.76
719.616	58.13
719.798	56.81
719.981	57.46
720.164	57.1
720.346	56.78
720.529	55.76
720.712	55.84
720.894	55.99
721.077	56.2
721.259	55.92
721.442	55.79
721.624	54.89
721.807	56.28
721.989	55.82
722.172	55.26
722.354	55.74
722.537	56.67
722.719	56.55
722.901	57.25
723.084	56.76
723.266	56.54
723.448	56.57
723.631	57.75
723.813	57.24
723.995	56.32
724.178	55.91
724.36	56.03
724.542	56.58
724.724	56.77
724.907	55.12
725.089	55.68
725.271	55.23
725.453	54.54
725.635	54.89
725.817	54.94
725.999	56.46
726.181	56.66
726.364	55.93
726.546	56.15
726.728	55.06
726.91	55.87
727.092	55.32
727.274	56.04
727.456	55.5
727.638	54.13
727.819	54.64
728.001	54.33
728.183	55.29
728.365	56.37
728.547	56.06
728.729	56.33
728.911	56.94
729.093	57.27
729.274	57.36
729.456	57.89
729.638	57.79
729.82	57.5
730.001	57.7
730.183	57.04
730.365	57.67
730.546	56.26
730.728	56.13
730.91	55.54
731.091	56
731.273	55.62
731.455	56.17
731.636	56.8
731.818	56.67
731.999	57.08
732.181	56.58
732.362	56.01
732.544	56.66
732.725	57.37
732.907	56.93
733.088	57.75
733.27	58.04
733.451	57.95
733.633	59.02
733.814	58.48
733.995	58.37
734.177	58.08
734.358	57.04
734.539	57.03
734.721	56.67
734.902	57.1
735.083	55.98
735.264	56.26
735.446	57
735.627	56.71
735.808	58.31
735.989	58.87
736.17	59.3
736.351	59.52
736.533	59.66
736.714	59.93
736.895	61.99
737.076	61
737.257	61.25
737.438	62.11
737.619	62.25
737.8	60.66
737.981	58.64
738.162	59.08
738.343	59.14
738.524	58.79
738.705	57.69
738.886	55.39
739.067	57.26
739.247	57.18
739.428	56.08
739.609	55.26
739.79	57.19
739.971	57.24
740.151	57.49
740.332	57.14
740.513	57.75
740.694	58.03
740.874	58.08
741.055	56.63
741.236	56.93
741.417	57.95
741.597	57.54
741.778	55.68
741.958	56.95
742.139	55.75
742.32	55.63
742.5	57.12
742.681	58.39
742.861	59.61
743.042	60.52
743.222	60.11
743.403	57.23
743.583	57.38
743.764	57.24
743.944	55.88
744.124	56.63
744.305	57.13
744.485	54.81
744.666	54.88
744.846	53.37
745.026	52.37
745.207	52.3
745.387	52.83
745.567	52.37
745.747	50.81
745.928	51.64
746.108	53.28
746.288	54.02
746.468	54.05
746.648	54.45
746.829	52.81
747.009	53.24
747.189	54.11
747.369	56.19
747.549	55.78
747.729	57.54
747.909	58.02
748.089	56.39
748.269	56.43
748.449	56.1
748.629	56.52
748.809	59.31
748.989	59.85
749.169	58.93
749.349	56.63
749.529	58.93
749.709	58.65
749.889	58.93
750.068	59.97
750.248	58.18
750.428	58.77
750.608	57.82
750.788	58.11
750.967	57.68
751.147	57.11
751.327	57.84
751.507	55.36
751.686	55.38
751.866	54.32
752.046	53.13
752.225	54.43
752.405	55.51
752.585	54.37
752.764	53.19
752.944	52.01
753.123	52.74
753.303	53.04
753.482	54.1
753.662	54.46
753.841	54.92
754.021	55.6
754.2	55.37
754.38	54.05
754.559	54.12
754.739	55.13
754.918	55.96
755.097	54.71
755.277	54.01
755.456	52.54
755.635	51.2
755.815	50.39
755.994	51.27
756.173	50.43
756.352	51.65
756.532	52.45
756.711	51.97
756.89	52.7
757.069	53.76
757.248	52.85
757.427	55.02
757.607	56.38
757.786	57.07
757.965	55.58
758.144	57.6
758.323	57.52
758.502	56.26
758.681	55.49
758.86	55.76
759.039	56.82
759.218	58.16
759.397	57.99
759.576	58.7
759.755	58.63
759.934	59.33
760.113	55.73
760.291	54.73
760.47	54.49
760.649	54.9
760.828	54.98
761.007	54.06
761.186	53.5
761.364	53.54
761.543	52.63
761.722	53.31
761.901	52.94
762.079	55.9
762.258	57.33
762.437	59.59
762.615	60.74
762.794	60.14
762.972	59.17
763.151	59.4
763.33	59.25
763.508	59.25
763.687	59.02
763.865	58.5
764.044	58.14
764.222	57.25
764.401	55.69
764.579	54.41
764.758	53.86
764.936	54.43
765.114	54.33
765.293	53.99
765.471	53.77
765.65	53.47
765.828	54.28
766.006	53.92
766.184	53.51
766.363	55.22
766.541	56.13
766.719	57.39
766.898	58.19
767.076	58.44
767.254	58.42
767.432	58.11
767.61	58.87
767.788	57.17
767.967	57.84
768.145	58
768.323	55.94
768.501	54.67
768.679	53.5
768.857	52.17
769.035	51.67
769.213	53.44
769.391	52.39
769.569	52.89
769.747	53.66
769.925	51.88
770.103	55.08
770.281	56.21
770.459	55.96
770.636	56.97
770.814	56.15
770.992	58.41
771.17	56.93
771.348	57.2
771.525	58.04
771.703	58.97
771.881	61.32
772.059	57.89
772.236	55.82
772.414	55.83
772.592	55.76
772.769	56.46
772.947	53.63
773.125	53.11
773.302	52.88
773.48	50.6
773.657	50.16
773.835	48.52
774.013	50.03
774.19	52.78
774.368	53.87
774.545	49.25
774.723	51.38
774.9	52.15
775.077	53.08
775.255	55.93
775.432	54.38
775.61	53.5
775.787	54.18
775.964	52.6
776.142	50.37
776.319	49.57
776.496	51.59
776.674	49.27
776.851	49.89
777.028	49.96
777.205	50.31
777.382	48.96
777.56	48.66
777.737	48.56
777.914	47.63
778.091	49.65
778.268	49.94
778.445	50.77
778.622	47.61
778.8	46.78
778.977	44.69
779.154	43.83
779.331	44.06
779.508	47.43
779.685	45.15
779.862	43.78
780.038	41.06
780.215	40.85
780.392	39.1
780.569	40.95
780.746	40.64
780.923	43.67
781.1	45.74
781.277	43.94
781.453	40.56
781.63	44.17
781.807	46.17
781.984	49.29
782.16	47.28
782.337	50.15
782.514	54.94
782.691	54.41
782.867	52.45
783.044	51.14
783.221	55.53
783.397	54.98
783.574	52.62
783.75	54.57
783.927	55.32
784.103	61.04
784.28	59.59
784.456	59.22
784.633	58.07
784.809	60.22
784.986	59.01
785.162	57.03
785.339	57.76
785.515	58.31
785.692	55.67
785.868	50.24
786.044	44.77
786.221	47.09
786.397	45.52
786.573	47.16
786.749	43.63
786.926	43.28
787.102	45.34
787.278	47.12
787.454	45.83
787.631	46.45
787.807	49.35
787.983	51.36
788.159	49.48
788.335	48.76
788.511	49.63
788.687	51.84
788.863	51.18
789.039	46.91
789.216	45.68
789.392	46.49
789.568	44.48
789.744	45.12
789.919	43.18
790.095	42.77
790.271	43.25
790.447	42.69
790.623	42.03
790.799	43.48
790.975	47.48
791.151	47.21
791.327	49.12
791.502	46.92
791.678	45.72
791.854	46.38
792.03	49.5
792.205	48.76
792.381	47.91
792.557	47.57
792.733	44.74
792.908	45.65
793.084	46.95
793.259	46.73
793.435	53.09
793.611	54.7
793.786	56.67
793.962	56.06
794.137	56.58
794.313	55.64
794.488	57.47
794.664	58.97
794.839	61.04
795.015	60
795.19	60.65
795.366	58.88
795.541	56.27
795.716	56.86
795.892	53.51
796.067	51.15
796.242	51.49
796.418	49.03
796.593	49.22
796.768	45.84
796.944	43.23
797.119	42.19
797.294	40.84
797.469	40.22
797.644	36.9
797.82	35.18
797.995	37.45
798.17	37.13
798.345	36.88
798.52	37.6
798.695	37.26
798.87	43.13
799.045	41.1
799.22	40.01
799.395	39.76
799.57	42.84
799.745	44.9
799.92	44.78
800.095	43.17
800.27	46.19
800.445	44.95
800.62	44.85
800.795	43.09
800.97	43.79
801.145	45.23
801.319	45.3
801.494	44.1
801.669	47.16
801.844	45.73
802.018	46.77
802.193	44.87
802.368	44.87
802.543	45.95
802.717	38.6
802.892	39.96
803.067	39.67
803.241	42.13
803.416	42.81
803.59	41.51
803.765	43.65
803.94	45.42
804.114	46
804.289	44.13
804.463	42.88
804.638	46.37
804.812	42.57
804.986	42.84
805.161	40.09
805.335	38.33
805.51	35.28
805.684	37.25
805.858	34.37
806.033	34.33
806.207	34.44
806.381	34.29
806.556	36.73
806.73	39.26
806.904	45.42
807.078	47.69
807.253	47.77
807.427	49.8
807.601	44.78
807.775	49.01
807.949	48.39
808.123	51
808.298	52.22
808.472	51.46
808.646	50.33
808.82	45.39
808.994	43.27
809.168	43.87
809.342	44.76
809.516	47.69
809.69	42.74
809.864	44.31
810.038	40.7
810.212	39.74
810.385	38.73
810.559	41.64
810.733	41.1
810.907	39.12
811.081	33.26
811.255	33.92
811.428	33.86
811.602	35.62
811.776	35.57
811.95	37.12
812.123	36.44
812.297	41.47
812.471	36.17
812.644	37.95
812.818	45.55
812.992	47
813.165	46.88
813.339	42.63
813.512	48.73
813.686	50.43
813.86	56.63
814.033	54.59
814.207	53.71
814.38	59.06
814.554	58.8
814.727	57.38
814.9	60.79
815.074	62.47
815.247	72.97
815.421	67.7
815.594	63.32
815.767	52.61
815.941	61.32
816.114	59.33
816.287	50.93
816.46	45.16
816.634	41.33
816.807	39.17
816.98	31.21
817.153	23.51
817.327	22.02
817.5	18.5
817.673	23.84
817.846	15.28
818.019	16.5
818.192	16.38
818.365	23.34
818.538	25.51
818.711	24.03
818.884	28.07
819.057	33.11
819.23	32.73
819.403	34.76
819.576	36.2
819.749	39.95
819.922	41.6
820.095	44.44
820.268	42.23
820.441	39.78
820.614	43.62
820.786	46.56
820.959	47.25
821.132	49.14
821.305	51.93
821.477	53.08
821.65	53.46
821.823	53.49
821.996	54.05
822.168	54.11
822.341	55.15
822.514	54.81
822.686	54.52
822.859	55.27
823.031	55.36
823.204	55.78
823.376	55.35
823.549	55.48
823.722	55.03
823.894	54.18
824.067	54.92
824.239	54.84
824.411	55.45
824.584	54.85
824.756	54.16
824.929	55.04
825.101	54.52
825.273	54.27
825.446	53.01
825.618	53.46
825.79	54.21
825.963	52.58
826.135	52.64
826.307	53.33
826.479	53.74
826.652	54.52
826.824	54.66
826.996	55.38
827.168	55.87
827.34	55.48
827.512	53.16
827.684	53.86
827.856	53.7
828.029	54.91
828.201	53.71
828.373	53
828.545	52.08
828.717	49
828.889	46.29
829.061	44.73
829.232	44.91
829.404	43.88
829.576	44.14
829.748	45.9
829.92	42.38
830.092	40.85
830.264	37.58
830.436	36.4
830.607	39.27
830.779	41.58
830.951	38.45
831.123	40.36
831.294	49.23
831.466	44.76
831.638	41.54
831.809	40.88
831.981	36.58
832.153	46.3
832.324	46.42
832.496	44.62
832.667	43.14
832.839	45.58
833.011	44.25
833.182	38.28
833.354	41.61
833.525	43.02
833.697	44.49
833.868	51.43
834.039	46.1
834.211	45.52
834.382	44.52
834.554	44.64
834.725	46.4
834.896	46.67
835.068	50
835.239	48.73
835.41	46.36
835.581	44.4
835.753	39.77
835.924	43.74
836.095	42.98
836.266	41.13
836.438	38.29
836.609	37.83
836.78	37.03
836.951	32.26
837.122	32.34
837.293	31.15
837.464	34.09
837.635	35.44
837.806	32.85
837.977	26.51
838.148	32.33
838.319	40.15
838.49	38.79
838.661	41.95
838.832	42.93
839.003	38.65
839.174	46.93
839.345	50.69
839.516	40.31
839.687	37.96
839.857	46.32
840.028	48.17
840.199	39.61
840.37	30.97
840.54	29.1
840.711	33.07
840.882	31.87
841.053	29.31
841.223	28.58
841.394	28.87
841.564	22.9
841.735	15.07
841.906	9.4
842.076	7.28
842.247	14.28
842.417	11.87
842.588	11.57
842.758	11.82
842.929	15.54
843.099	6.35
843.27	1.08
843.44	-3.72
843.611	-8.38
843.781	-16.41
843.951	-21.91
844.122	-8.36
844.292	-18.07
844.462	-8.29
844.633	-2.96
844.803	-19.25
844.973	-8.41
845.144	-0.89
845.314	7.03
845.484	29.31
845.654	18.81
845.824	30.23
845.995	28.32
846.165	36.31
846.335	21.25
846.505	24.6
846.675	11.84
846.845	-2.06
847.015	15.48
847.185	1.69
847.355	-8.21
847.525	6.76
847.695	7.23
847.865	-17.08
848.035	-11.61
848.205	-8.29
848.375	7.56
848.545	11.22
848.715	26.38
848.884	13.67
849.054	19.31
849.224	22.25
849.394	24.62
849.564	32.3
849.733	59.72
849.903	41.6
850.073	37.03
850.243	23.5
850.412	32.03
850.582	13.39
850.752	16.95
850.921	34.53
851.091	33.15
851.26	25.45
851.43	20.04
851.599	9.66
851.769	9.78
851.939	2.85
852.108	1.41
852.278	9.86
852.447	18.95
852.616	-2.92
852.786	-16.29
852.955	-19.06
853.125	1.94
853.294	-6.58
853.463	3.87
853.633	28.14
853.802	59.41
853.971	54.17
854.141	35.75
854.31	29.29
854.479	43.17
854.648	49.46
854.818	65.33
854.987	44.79
855.156	52.14
855.325	51.14
855.494	3.51
855.663	-290.28
855.832	-68.26
856.001	-19.02
856.171	-8.84
856.34	-8.73
856.509	-18.03
856.678	-108.72
856.847	-106.41
857.016	-50.53
857.185	-22.41
857.353	-41.11
857.522	-58.02
857.691	-64.51
857.86	-19.22
858.029	-46.41
858.198	-17.47
858.367	-85.68
858.535	-318.89
858.704	-303.03
858.873	786.19
859.042	381.32
859.21	162.54
859.379	16.88
859.548	-47.83
859.717	1.13
859.885	30.5
860.054	24.3
860.222	35.48
860.391	9.38
860.56	18.25
860.728	29.16
860.897	19.85
861.065	41.44
861.234	23.2
861.402	6.03
861.571	1.24
861.739	-58.16
861.908	-55.03
862.076	-32.9
862.244	-4.03
862.413	8.48
862.581	-3.79
862.749	-44.22
862.918	-41.6
863.086	-24.74
863.254	-23.88
863.423	-18.56
863.591	-29.38
863.759	-18.78
863.927	-8.25
864.096	0.16
864.264	-54.8
864.432	28.29
864.6	59.46
864.768	50.54
864.936	43.61
865.104	-144.91
865.272	42.2
865.44	15.9
865.608	-33.22
865.776	-66.34
865.944	12.1
866.112	4.62
866.28	-79.18
866.448	-113.83
866.616	-155.48
866.784	38.36
866.952	47.26
867.12	62.42
867.288	112.6
867.455	85.76
867.623	54.8
867.791	43.91
867.959	40.31
868.127	94.54
868.294	93.33
868.462	93.17
868.63	132.13
868.797	-337.97
868.965	-172.8
869.133	-1074.23
869.3	-114.91
869.468	65.36
869.636	-25.7
869.803	5.83
869.971	-63.39
870.138	1.67
870.306	-1.39
870.473	23.21
870.641	0.57
870.808	-26.7
870.975	-31.61
871.143	-28.89
871.31	-69.67
871.478	-29.76
871.645	-47.04
871.812	-32.85
871.98	-46.54
872.147	-29.8
872.314	-44.45
872.482	1.6
872.649	9.18
872.816	20.92
872.983	28.3
873.15	11.65
873.318	7.04
873.485	1.38
873.652	-2.13
873.819	10.28
873.986	8.71
874.153	8.82
874.32	-22.45
874.487	-58.75
874.654	-149.05
874.821	-141.07
874.988	-145.41
875.155	-65.22
875.322	-97.61
875.489	-54.29
875.656	-308.77
875.823	-515.12
875.99	798.06
876.157	641.21
876.324	-1520.39
876.49	-977.22
876.657	567.25
876.824	663.05
876.991	-201.85
877.157	-24.16
877.324	-65.15
877.491	-42.02
877.658	-70.49
877.824	-0.46
877.991	13.45
878.157	4.64
878.324	11.29
878.491	-36.24
878.657	-23.15
878.824	-67.19
878.99	-56.19
879.157	-58.37
879.323	-93.14
879.49	-137.03
879.656	-418.49
879.823	-409.59
879.989	-451.04
880.156	-303.55
880.322	-102.57
880.488	-61.48
880.655	-76.81
880.821	-82.57
880.987	-51.43
881.154	-23.81
881.32	13.25
881.486	33.34
881.652	37.15
881.819	33.69
881.985	34.63
882.151	34.76
882.317	34.35
882.483	37.44
882.649	41.13
882.816	41.24
882.982	38.15
883.148	37.86
883.314	35.37
883.48	39.51
883.646	39.52
883.812	40.99
883.978	42.16
884.144	42.82
884.31	43.42
884.476	40.47
884.642	39.45
884.807	42.68
884.973	40.37
885.139	38.75
885.305	33.41
885.471	32.89
885.637	29.25
885.802	27.68
885.968	27.35
886.134	26.15
886.3	29.54
886.465	29.5
886.631	28.98
886.797	30.29
886.962	37.4
887.128	38.87
887.293	40.18
887.459	41.71
887.625	38.69
887.79	25.92
887.956	24.92
888.121	20.41
888.287	23.56
888.452	27.93
888.618	18.34
888.783	-24.44
