Data from 2937837_Reflection_3.txt Node
Date: Wed Jul 15 16:28:20 EDT 2015
User: robert
Spectrometer: USB4E03001
Autoset integration time: false
Trigger mode: 4
Integration Time (sec): 1.000000E-1
Scans to average: 10
Electric dark correction enabled: true
Nonlinearity correction enabled: false
Boxcar width: 5
Stray light correction enabled: false
XAxis mode: Wavelengths
Stop averaging: false
Number of Pixels in Spectrum: 3648
>>>>>Begin Spectral Data<<<<<
177.566	12.63
177.785	-13.9
178.005	66.19
178.225	22.32
178.445	24.21
178.665	-57.25
178.885	201.05
179.105	0.44
179.324	-156.11
179.544	-77.85
179.764	6.86
179.984	6.86
180.204	-31.19
180.423	17.68
180.643	-18.16
180.863	5.21
181.083	-26.71
181.302	12.62
181.522	-38.34
181.742	58.43
181.961	72.25
182.181	27.94
182.401	43.88
182.621	-39.77
182.84	49.9
183.06	37.74
183.279	55.85
183.499	25.1
183.719	29
183.938	47.75
184.158	204.74
184.377	1085.28
184.597	-2513.41
184.816	-800.22
185.036	-751.77
185.256	-95.32
185.475	-104.3
185.695	-209.07
185.914	-230.17
186.134	-10923.21
186.353	271.73
186.572	421.19
186.792	288.12
187.011	1412.54
187.231	93.13
187.45	134.63
187.67	121.36
187.889	212.61
188.108	246.53
188.328	97.96
188.547	-54.95
188.766	-398.57
188.986	709.05
189.205	289.71
189.424	336.29
189.644	-124.52
189.863	-26.89
190.082	-32.94
190.302	-58.97
190.521	12.59
190.74	-77.04
190.959	24.96
191.178	48.73
191.398	57.14
191.617	71.67
191.836	66.53
192.055	23.66
192.274	-42.73
192.494	9.34
192.713	0.9
192.932	-56.18
193.151	11.57
193.37	96.48
193.589	79.85
193.808	97.31
194.027	67.72
194.246	42.74
194.465	6.19
194.685	-20.17
194.904	2.91
195.123	-55.13
195.342	-5.41
195.561	5.58
195.78	-50.6
195.999	11.58
196.218	49.45
196.436	-5.88
196.655	45.65
196.874	-11.82
197.093	-356.96
197.312	-186.92
197.531	587.24
197.75	-191.87
197.969	-2547.01
198.188	177.08
198.407	160.32
198.625	107.05
198.844	50.41
199.063	77.48
199.282	-15.97
199.501	2100
199.719	230.05
199.938	73.7
200.157	-736.65
200.376	367.08
200.594	215.23
200.813	240.7
201.032	145.39
201.251	123.44
201.469	95.43
201.688	77.35
201.907	-9.17
202.125	-212.14
202.344	258.33
202.563	901.2
202.781	-725.27
203	482.27
203.218	189.89
203.437	-360.44
203.656	1098.36
203.874	-258.76
204.093	462.82
204.311	-3711.76
204.53	-202.86
204.748	106.53
204.967	120.97
205.185	122.39
205.404	111.86
205.622	113.86
205.841	35.47
206.059	67.79
206.278	86.39
206.496	105.99
206.715	132.33
206.933	103.39
207.151	55.96
207.37	71.89
207.588	98.96
207.806	103.96
208.025	59.95
208.243	1215.65
208.461	-12.3
208.68	-34.09
208.898	88.41
209.116	137.25
209.335	181.52
209.553	-748.03
209.771	81.96
209.989	67.93
210.208	151.85
210.426	476.08
210.644	124.4
210.862	-146.41
211.081	-878.18
211.299	3530
211.517	110.77
211.735	-192.39
211.953	198.45
212.171	98.38
212.39	-1741.79
212.608	-3336.36
212.826	1624.21
213.044	591.59
213.262	-1061.24
213.48	491.97
213.698	791.79
213.916	351.32
214.134	-1105.68
214.352	15.78
214.57	107.63
214.788	113.95
215.006	109.74
215.224	89.58
215.442	158.72
215.66	570.59
215.878	132.48
216.096	165.21
216.314	-91.43
216.532	-383.2
216.75	64.12
216.968	181.24
217.185	176.09
217.403	168.99
217.621	164.98
217.839	238.27
218.057	576.56
218.275	-1486.09
218.492	312.2
218.71	273.91
218.928	141.59
219.146	196.59
219.363	310.74
219.581	100.8
219.799	66.93
220.017	118.52
220.234	163.01
220.452	190.95
220.67	133.84
220.887	105.58
221.105	125.58
221.323	251.53
221.54	161.11
221.758	157.78
221.976	173.23
222.193	172.53
222.411	106.73
222.629	90.18
222.846	66.99
223.064	52.11
223.281	93.35
223.499	125.64
223.716	77.83
223.934	88.17
224.151	74.11
224.369	89.42
224.586	99.46
224.804	95.55
225.021	71.03
225.239	73.06
225.456	66.53
225.674	57.12
225.891	35.28
226.108	38.84
226.326	18.77
226.543	-0.46
226.76	-4.46
226.978	-28.97
227.195	-13.08
227.413	4.85
227.63	7.34
227.847	6.75
228.064	-3.58
228.282	-3.23
228.499	3.91
228.716	3.47
228.934	7.48
229.151	3.77
229.368	7.02
229.585	6.73
229.802	3.75
230.02	2.65
230.237	2.26
230.454	1.65
230.671	3.67
230.888	0.07
231.105	1.33
231.323	1.35
231.54	2.54
231.757	0.18
231.974	2.65
232.191	1.05
232.408	0.39
232.625	0.02
232.842	1.79
233.059	3.26
233.276	3.16
233.493	2.18
233.71	0.74
233.927	-1
234.144	-3.88
234.361	-15.16
234.578	-13.23
234.795	4.35
235.012	0.4
235.229	0.38
235.446	-0.14
235.663	3.56
235.879	10.29
236.096	4.11
236.313	1.17
236.53	13.23
236.747	17.06
236.964	13.25
237.181	-4.41
237.397	-1.09
237.614	9.57
237.831	7.63
238.048	6.7
238.264	8.5
238.481	11.21
238.698	21.5
238.915	13.48
239.131	13.37
239.348	14.96
239.565	15.24
239.781	14.92
239.998	10.99
240.215	9.3
240.431	6.34
240.648	2.96
240.865	5.39
241.081	3.25
241.298	6.34
241.514	5.32
241.731	5.47
241.947	3.52
242.164	3.63
242.38	3.95
242.597	4.67
242.814	4.78
243.03	3.94
243.246	2.51
243.463	1.66
243.679	0.21
243.896	1.01
244.112	1.11
244.329	4.13
244.545	4.37
244.762	4
244.978	4.52
245.194	4.86
245.411	4.08
245.627	6.8
245.843	7.67
246.06	8.2
246.276	8
246.492	9.06
246.709	7.53
246.925	7.27
247.141	6.93
247.357	6.24
247.574	5.89
247.79	6.6
248.006	6.33
248.222	6.23
248.439	5.77
248.655	5.2
248.871	4.1
249.087	4.14
249.303	3.67
249.519	3.86
249.736	4.86
249.952	3.93
250.168	4.39
250.384	4.63
250.6	4.54
250.816	4.14
251.032	6.15
251.248	6.3
251.464	6.32
251.68	5.16
251.896	4.38
252.112	4.98
252.328	6.72
252.544	6.31
252.76	7.76
252.976	7.8
253.192	9.5
253.408	8.78
253.624	11.02
253.84	10.16
254.056	10.53
254.272	13.17
254.487	12.12
254.703	12.39
254.919	11.94
255.135	8.4
255.351	9.95
255.567	7.19
255.782	8.18
255.998	5.19
256.214	7.93
256.43	11.62
256.646	9.64
256.861	8.59
257.077	6.55
257.293	10.24
257.508	7.71
257.724	7.99
257.94	8.31
258.155	4.01
258.371	3.29
258.587	3.95
258.802	2.73
259.018	1.59
259.234	1.63
259.449	2.66
259.665	0.9
259.88	2.08
260.096	2.03
260.312	1.4
260.527	2.44
260.743	2.02
260.958	2.3
261.174	2.58
261.389	3.37
261.605	3.81
261.82	3.46
262.036	3.41
262.251	3.58
262.466	3.26
262.682	3.66
262.897	2.43
263.113	4.59
263.328	1.69
263.543	0.87
263.759	-0.47
263.974	-2.43
264.189	-2.3
264.405	-0.42
264.62	0.79
264.835	-1.18
265.051	-2.33
265.266	1.07
265.481	1.7
265.696	3.79
265.912	4.48
266.127	6.96
266.342	8.78
266.557	8.43
266.773	6.56
266.988	3.98
267.203	4.83
267.418	4.93
267.633	5.09
267.848	3.15
268.064	4.24
268.279	3.96
268.494	3.45
268.709	2.87
268.924	2.72
269.139	5.09
269.354	5.7
269.569	5.54
269.784	7.38
269.999	7.62
270.214	7.63
270.429	5.85
270.644	5.92
270.859	4.96
271.074	4.86
271.289	3.8
271.504	2.5
271.719	3.04
271.934	2.12
272.149	0.1
272.363	-1.35
272.578	0.43
272.793	0.13
273.008	-0.11
273.223	0.15
273.438	-0.58
273.653	0.52
273.867	0.95
274.082	1.6
274.297	1.57
274.512	3.34
274.726	4.04
274.941	2.45
275.156	4.36
275.371	4.6
275.585	3.36
275.8	3.73
276.015	3.66
276.229	3.18
276.444	2.29
276.659	4.75
276.873	6.02
277.088	6.42
277.302	5.81
277.517	4
277.732	4.14
277.946	6.14
278.161	6.78
278.375	5.41
278.59	4.98
278.804	4.84
279.019	3.44
279.233	1.67
279.448	1.49
279.662	3.16
279.877	3.93
280.091	3.98
280.306	2.74
280.52	3.69
280.735	3.88
280.949	3.57
281.163	4.36
281.378	4.02
281.592	3.6
281.806	3.17
282.021	2.38
282.235	2.95
282.449	4.47
282.664	4.67
282.878	4.53
283.092	5.87
283.307	6.4
283.521	5.79
283.735	5.77
283.949	4.43
284.164	4.41
284.378	5.13
284.592	4.22
284.806	3.29
285.02	3.96
285.234	2.88
285.449	1.66
285.663	0.61
285.877	0.59
286.091	0.57
286.305	2.93
286.519	3.93
286.733	4.19
286.947	3.75
287.161	4.11
287.375	2.78
287.589	2.86
287.803	4.4
288.017	5.46
288.231	5.09
288.445	5.43
288.659	4.94
288.873	4.51
289.087	3.87
289.301	4.92
289.515	4.62
289.729	4.63
289.943	4.98
290.157	4.54
290.371	5.01
290.584	4.93
290.798	5.75
291.012	4.92
291.226	3.9
291.44	2.13
291.654	2.48
291.867	1.68
292.081	2.05
292.295	1.28
292.509	0.92
292.722	1.49
292.936	2.35
293.15	0.65
293.364	2.08
293.577	1.65
293.791	4.1
294.005	3.31
294.218	3.04
294.432	4.74
294.645	6.02
294.859	5.98
295.073	6.19
295.286	6.56
295.5	6.79
295.713	5.77
295.927	6.85
296.14	7.46
296.354	7.94
296.568	8.46
296.781	7.08
296.994	5.84
297.208	6.13
297.421	5.57
297.635	5.17
297.848	5.54
298.062	5.96
298.275	5.74
298.489	5.51
298.702	5.8
298.915	5.48
299.129	5.41
299.342	6.36
299.555	6.7
299.769	6.89
299.982	5.98
300.195	5.25
300.409	6.13
300.622	6.76
300.835	5.38
301.048	4.77
301.262	5.63
301.475	7.07
301.688	6.09
301.901	5.38
302.115	5.5
302.328	8.3
302.541	9.81
302.754	8.38
302.967	8.04
303.18	8.61
303.393	9.13
303.607	8.96
303.82	7.81
304.033	8.16
304.246	8.23
304.459	8.2
304.672	7.2
304.885	5.16
305.098	4.41
305.311	3.99
305.524	4.01
305.737	3.19
305.95	2.89
306.163	5.05
306.376	4.78
306.589	4.37
306.802	4.06
307.015	3.38
307.228	5.79
307.44	7.87
307.653	8.05
307.866	8.73
308.079	8.02
308.292	8.08
308.505	6.1
308.718	8.48
308.93	9
309.143	9.24
309.356	8.74
309.569	8.05
309.781	7.11
309.994	6.95
310.207	6.4
310.42	8.1
310.632	7.67
310.845	8.35
311.058	8.05
311.27	8.7
311.483	8.55
311.696	9.68
311.908	9.5
312.121	9.02
312.333	8.87
312.546	9.03
312.759	9.46
312.971	10.05
313.184	10.28
313.396	9.81
313.609	7.72
313.821	7.01
314.034	6.34
314.246	6.23
314.459	7.76
314.671	7.83
314.884	8.22
315.096	7.11
315.309	7.53
315.521	6.8
315.733	7.73
315.946	8.77
316.158	8.1
316.371	8.18
316.583	8.7
316.795	7.5
317.008	8.57
317.22	7.76
317.432	7.82
317.644	8.2
317.857	9.05
318.069	7.64
318.281	8.02
318.494	9.67
318.706	9.95
318.918	9.75
319.13	10.66
319.342	10.56
319.555	8.72
319.767	8.21
319.979	8.03
320.191	7.56
320.403	7.01
320.615	6.79
320.827	8.15
321.039	7.51
321.252	8.46
321.464	8.81
321.676	10.45
321.888	13.97
322.1	12.72
322.312	13.25
322.524	14.42
322.736	15.15
322.948	15.27
323.16	14.93
323.372	16.48
323.584	15.62
323.796	15.86
324.007	14.8
324.219	14.32
324.431	16.06
324.643	16.26
324.855	16.01
325.067	15.12
325.279	15.42
325.491	15.39
325.702	14.02
325.914	14.96
326.126	14.73
326.338	13.99
326.55	13.89
326.761	13.7
326.973	13.85
327.185	11.85
327.396	13.83
327.608	14.9
327.82	15.36
328.032	16.33
328.243	16.14
328.455	15.88
328.666	18.74
328.878	19.62
329.09	20.42
329.301	20.05
329.513	22.44
329.725	20.94
329.936	21.07
330.148	21.5
330.359	22.09
330.571	23.22
330.782	23.71
330.994	22.91
331.205	23.41
331.417	24.75
331.628	24.92
331.84	24.47
332.051	27
332.262	25.68
332.474	24.33
332.685	25.06
332.897	24.22
333.108	26.9
333.319	26.36
333.531	26.21
333.742	24.7
333.953	24.86
334.165	24.95
334.376	25.3
334.587	25.83
334.799	26.39
335.01	25.66
335.221	26.86
335.432	26.01
335.644	26.14
335.855	26.03
336.066	26.5
336.277	26.94
336.488	26.86
336.7	26.58
336.911	26.97
337.122	27.41
337.333	27.29
337.544	26.95
337.755	27.22
337.966	27.59
338.177	27.17
338.388	27.48
338.599	26.91
338.811	27.99
339.022	27.1
339.233	27.42
339.444	28.03
339.655	28.5
339.866	29.22
340.076	28.66
340.287	28.83
340.498	30.44
340.709	29.73
340.92	31.06
341.131	30.93
341.342	31.46
341.553	31.06
341.764	29.47
341.975	28.99
342.185	29.29
342.396	29.68
342.607	30.58
342.818	30.92
343.029	31.22
343.239	30.22
343.45	31.46
343.661	31.08
343.872	31.94
344.082	33.87
344.293	34.99
344.504	34.91
344.714	34.25
344.925	34.23
345.136	33.08
345.346	33.05
345.557	34.05
345.768	33.91
345.978	34.39
346.189	34.66
346.399	33.76
346.61	33.64
346.821	34.25
347.031	34.74
347.242	33.65
347.452	34.96
347.663	35.25
347.873	35.47
348.084	34.98
348.294	34.69
348.504	34.33
348.715	36.2
348.925	35.91
349.136	34.38
349.346	34.71
349.557	34.9
349.767	35.23
349.977	35.22
350.188	35.24
350.398	35.05
350.608	36.28
350.819	36.13
351.029	36.28
351.239	36.43
351.449	37.34
351.66	37.22
351.87	36.79
352.08	36.2
352.29	36.9
352.501	36.2
352.711	36.27
352.921	35.97
353.131	36.4
353.341	35.46
353.552	35.62
353.762	34.53
353.972	34.48
354.182	35.03
354.392	34.66
354.602	34.32
354.812	34.26
355.022	34.16
355.232	33.27
355.442	33.18
355.652	32.91
355.862	33.22
356.072	32.96
356.282	33.23
356.492	33.31
356.702	32.82
356.912	33.29
357.122	34.13
357.332	34.25
357.542	34.81
357.752	34.99
357.962	35.38
358.171	34.88
358.381	36.67
358.591	36.16
358.801	36.73
359.011	36.96
359.221	36.79
359.43	36.13
359.64	35.34
359.85	34.89
360.06	34.97
360.269	34.89
360.479	35.03
360.689	34.48
360.899	34.19
361.108	34.62
361.318	34.76
361.528	34.97
361.737	35.34
361.947	35.61
362.156	35.2
362.366	34.38
362.576	33.88
362.785	34.02
362.995	33.78
363.204	34.31
363.414	33.62
363.623	34.53
363.833	34.5
364.042	33.92
364.252	34.71
364.461	35.16
364.671	34.85
364.88	35.68
365.09	35.42
365.299	36.07
365.509	36.26
365.718	36.04
365.927	35.05
366.137	34.38
366.346	34.29
366.555	33.19
366.765	32.76
366.974	33.41
367.183	32.89
367.393	32.8
367.602	32.06
367.811	31.37
368.021	30.71
368.23	30.58
368.439	30.9
368.648	30.87
368.857	31.47
369.067	32.06
369.276	31.6
369.485	30.93
369.694	30.78
369.903	29.71
370.112	29.74
370.321	29.98
370.531	30.54
370.74	29.41
370.949	29.29
371.158	29.1
371.367	28.81
371.576	29.47
371.785	30.12
371.994	30.4
372.203	31.48
372.412	31.68
372.621	32.28
372.83	32.15
373.039	33.44
373.248	33.26
373.457	33.45
373.666	34.06
373.874	33.78
374.083	33.29
374.292	32.96
374.501	31.83
374.71	31.21
374.919	31.31
375.128	30.74
375.336	30.38
375.545	30.82
375.754	30.47
375.963	29.45
376.171	29.56
376.38	29.35
376.589	29.16
376.798	29.7
377.006	30.12
377.215	30.22
377.424	30.3
377.632	29.77
377.841	29.62
378.05	29.62
378.258	29.9
378.467	30.16
378.675	30.53
378.884	30.37
379.093	30.32
379.301	30.11
379.51	29.34
379.718	29.02
379.927	29.01
380.135	29.12
380.344	29.41
380.552	29.64
380.761	29.38
380.969	29.86
381.177	30.34
381.386	29.77
381.594	30.29
381.803	30.4
382.011	30.23
382.219	30.54
382.428	30.19
382.636	30.06
382.845	30.34
383.053	30.18
383.261	29.57
383.469	29.36
383.678	30.01
383.886	29.73
384.094	29.78
384.302	29.95
384.511	29.79
384.719	29.55
384.927	29.01
385.135	28.69
385.343	28.67
385.552	28.92
385.76	28.95
385.968	28.22
386.176	28
386.384	27.93
386.592	28.44
386.8	28.5
387.008	28.76
387.216	29.07
387.424	28.84
387.633	28.43
387.841	28.27
388.049	28.18
388.257	28.6
388.465	28.48
388.672	28.26
388.88	27.18
389.088	27.13
389.296	27.42
389.504	27.19
389.712	27.44
389.92	27.87
390.128	27.63
390.336	27.74
390.544	27.86
390.751	27.94
390.959	27.71
391.167	28.32
391.375	28.21
391.583	28.1
391.79	28.43
391.998	28.36
392.206	28.07
392.414	28.08
392.621	28.04
392.829	28.11
393.037	28.31
393.244	28.54
393.452	28.64
393.66	28.9
393.867	28.7
394.075	28.69
394.283	28.74
394.49	29.12
394.698	29.55
394.905	29.59
395.113	29.41
395.32	29.21
395.528	29.31
395.735	29.35
395.943	29.08
396.15	29.16
396.358	28.81
396.565	28.83
396.773	28.73
396.98	28.5
397.188	28.57
397.395	28.69
397.602	28.79
397.81	28.81
398.017	28.86
398.225	29.22
398.432	29.67
398.639	29.88
398.847	29.89
399.054	30.1
399.261	30.14
399.468	30.19
399.676	30.44
399.883	30.38
400.09	30.59
400.297	30.66
400.505	30.42
400.712	30.41
400.919	30.65
401.126	30.78
401.333	30.73
401.54	31.2
401.748	31.16
401.955	30.89
402.162	31.33
402.369	31.37
402.576	31.3
402.783	31.24
402.99	31.08
403.197	30.88
403.404	30.66
403.611	30.41
403.818	30.28
404.025	30.37
404.232	30.15
404.439	29.88
404.646	29.84
404.853	30.13
405.06	30.25
405.267	30.07
405.474	30.2
405.681	30.11
405.887	30.12
406.094	29.79
406.301	29.6
406.508	29.8
406.715	29.8
406.922	30.12
407.128	29.67
407.335	29.21
407.542	29.26
407.749	29.01
407.955	29.26
408.162	29.22
408.369	29.13
408.575	29.23
408.782	29.15
408.989	29.15
409.195	28.8
409.402	28.63
409.609	29.09
409.815	29.22
410.022	29.53
410.228	29.43
410.435	29.49
410.642	29.18
410.848	29.32
411.055	29.42
411.261	29.43
411.468	29.37
411.674	29.66
411.881	29.81
412.087	29.43
412.294	29.11
412.5	29.29
412.706	29.31
412.913	29.74
413.119	29.44
413.326	29.31
413.532	29.37
413.738	29.24
413.945	28.75
414.151	28.51
414.357	28.67
414.564	28.87
414.77	28.83
414.976	28.9
415.182	28.7
415.389	28.58
415.595	28.54
415.801	28.46
416.007	28.32
416.214	28.71
416.42	28.9
416.626	29.11
416.832	28.86
417.038	28.57
417.244	28.58
417.45	28.7
417.657	28.88
417.863	28.9
418.069	28.89
418.275	28.97
418.481	28.92
418.687	28.47
418.893	28.39
419.099	28.64
419.305	28.77
419.511	28.67
419.717	28.68
419.923	28.61
420.129	28.52
420.335	28.44
420.541	28.39
420.746	28.3
420.952	28.5
421.158	28.34
421.364	28.12
421.57	28.11
421.776	28.01
421.982	27.87
422.187	27.79
422.393	27.96
422.599	27.92
422.805	27.99
423.01	27.87
423.216	27.79
423.422	27.81
423.628	27.84
423.833	27.81
424.039	27.82
424.245	27.8
424.45	27.76
424.656	27.56
424.862	27.52
425.067	27.43
425.273	27.56
425.478	27.67
425.684	27.62
425.889	27.42
426.095	27.4
426.301	27.47
426.506	27.54
426.712	27.54
426.917	27.33
427.123	27.4
427.328	27.23
427.533	27.1
427.739	26.9
427.944	26.83
428.15	27.01
428.355	26.86
428.561	26.79
428.766	26.73
428.971	26.89
429.177	27.15
429.382	26.95
429.587	26.87
429.793	26.88
429.998	26.78
430.203	26.8
430.408	26.93
430.614	26.91
430.819	26.73
431.024	26.81
431.229	26.79
431.434	27.02
431.64	27.03
431.845	27.2
432.05	27.22
432.255	27.13
432.46	27.06
432.665	26.85
432.87	27.04
433.076	27.09
433.281	26.9
433.486	26.76
433.691	26.68
433.896	26.92
434.101	26.98
434.306	27.03
434.511	27.03
434.716	27.29
434.921	27.35
435.126	27.37
435.331	27.45
435.535	27.56
435.74	27.77
435.945	27.84
436.15	27.73
436.355	27.76
436.56	27.75
436.765	27.98
436.97	27.8
437.174	27.88
437.379	27.52
437.584	27.52
437.789	27.39
437.993	27.28
438.198	27.13
438.403	26.93
438.608	26.81
438.812	26.59
439.017	26.53
439.222	26.53
439.426	26.57
439.631	26.69
439.836	26.7
440.04	26.82
440.245	26.61
440.45	26.62
440.654	26.86
440.859	26.78
441.063	26.82
441.268	26.81
441.472	26.91
441.677	26.97
441.881	26.99
442.086	27.01
442.29	27.04
442.495	27.15
442.699	27.13
442.904	27.13
443.108	27.32
443.312	27.61
443.517	27.71
443.721	27.63
443.925	27.48
444.13	27.46
444.334	27.3
444.538	27.17
444.743	27.3
444.947	27.18
445.151	26.97
445.356	26.99
445.56	26.77
445.764	26.88
445.968	26.87
446.173	26.88
446.377	26.8
446.581	26.79
446.785	26.81
446.989	26.66
447.193	26.62
447.398	26.79
447.602	26.82
447.806	26.88
448.01	26.74
448.214	26.69
448.418	26.58
448.622	26.61
448.826	26.58
449.03	26.61
449.234	26.59
449.438	26.58
449.642	26.41
449.846	26.25
450.05	26.28
450.254	26.37
450.458	26.2
450.662	26.14
450.866	26.06
451.069	26.27
451.273	26.22
451.477	26.43
451.681	26.36
451.885	26.42
452.089	26.26
452.292	25.99
452.496	25.89
452.7	25.97
452.904	26.08
453.107	26.25
453.311	25.98
453.515	25.96
453.719	25.94
453.922	26.08
454.126	26.13
454.33	26.25
454.533	26.46
454.737	26.43
454.94	26.55
455.144	26.52
455.348	26.35
455.551	26.57
455.755	26.48
455.958	26.46
456.162	26.55
456.365	26.31
456.569	26.35
456.772	26.48
456.976	26.57
457.179	26.45
457.383	26.52
457.586	26.65
457.79	26.58
457.993	26.67
458.196	26.76
458.4	26.63
458.603	26.84
458.807	26.74
459.01	26.45
459.213	26.56
459.417	26.6
459.62	26.43
459.823	26.37
460.026	26.31
460.23	26.35
460.433	26.17
460.636	26.24
460.839	26.08
461.042	26.13
461.246	26.2
461.449	25.85
461.652	25.91
461.855	26.12
462.058	26.04
462.261	26.02
462.464	25.89
462.668	26.02
462.871	25.98
463.074	25.88
463.277	25.88
463.48	25.96
463.683	26.39
463.886	26.29
464.089	26.19
464.292	26.28
464.495	26.36
464.698	26.3
464.901	26.16
465.104	26.22
465.306	26.58
465.509	26.45
465.712	26.44
465.915	26.14
466.118	26.15
466.321	26.34
466.524	26.5
466.726	26.61
466.929	26.75
467.132	26.89
467.335	27
467.538	26.87
467.74	27.09
467.943	27.08
468.146	27.04
468.348	27.02
468.551	26.96
468.754	26.84
468.956	27.09
469.159	27.08
469.362	27.1
469.564	26.89
469.767	26.81
469.969	26.73
470.172	26.88
470.375	27.04
470.577	27.18
470.78	27.19
470.982	27.22
471.185	26.82
471.387	26.86
471.59	26.78
471.792	26.81
471.995	26.76
472.197	26.99
472.399	26.83
472.602	27.13
472.804	27.02
473.007	26.9
473.209	26.85
473.411	26.93
473.614	27.1
473.816	27.08
474.018	27.03
474.22	27.08
474.423	26.91
474.625	27
474.827	26.64
475.03	26.74
475.232	26.79
475.434	27
475.636	27.29
475.838	27.01
476.04	27.08
476.243	27.34
476.445	27.32
476.647	27.28
476.849	27.43
477.051	27.52
477.253	27.34
477.455	27.53
477.657	27.29
477.859	27.06
478.061	27.05
478.263	26.88
478.465	26.68
478.667	26.64
478.869	26.59
479.071	26.3
479.273	26.33
479.475	26.53
479.677	26.64
479.879	26.69
480.081	26.83
480.283	26.83
480.485	27.05
480.686	27.19
480.888	27.43
481.09	27.43
481.292	27.56
481.494	27.58
481.695	27.5
481.897	27.28
482.099	27.12
482.301	26.91
482.502	27.03
482.704	26.91
482.906	26.84
483.107	26.83
483.309	26.76
483.511	26.78
483.712	26.72
483.914	26.79
484.115	26.76
484.317	26.82
484.519	26.86
484.72	26.85
484.922	26.85
485.123	26.85
485.325	26.81
485.526	26.94
485.728	26.86
485.929	26.82
486.131	26.68
486.332	26.61
486.534	26.62
486.735	26.63
486.936	26.56
487.138	26.6
487.339	26.67
487.541	26.66
487.742	26.57
487.943	26.54
488.144	26.62
488.346	26.64
488.547	26.72
488.748	26.7
488.95	26.67
489.151	26.69
489.352	26.66
489.553	26.55
489.755	26.66
489.956	26.72
490.157	26.78
490.358	26.73
490.559	26.75
490.76	26.76
490.961	26.8
491.163	26.84
491.364	26.91
491.565	26.91
491.766	26.89
491.967	26.77
492.168	26.78
492.369	26.87
492.57	26.84
492.771	26.93
492.972	26.95
493.173	26.97
493.374	27
493.575	27.07
493.776	27.19
493.976	27.31
494.177	27.39
494.378	27.48
494.579	27.48
494.78	27.64
494.981	27.56
495.182	27.64
495.382	27.72
495.583	27.68
495.784	27.44
495.985	27.47
496.185	27.53
496.386	27.59
496.587	27.64
496.788	27.58
496.988	27.51
497.189	27.51
497.39	27.5
497.59	27.43
497.791	27.35
497.992	27.52
498.192	27.46
498.393	27.37
498.593	27.33
498.794	27.2
498.994	27.35
499.195	27.54
499.395	27.68
499.596	27.71
499.796	27.84
499.997	27.95
500.197	27.85
500.398	27.91
500.598	28.05
500.799	28.23
500.999	28.41
501.199	28.36
501.4	28.21
501.6	28.3
501.801	28.27
502.001	28.28
502.201	28.34
502.402	28.43
502.602	28.52
502.802	28.51
503.002	28.4
503.203	28.2
503.403	28.23
503.603	28.22
503.803	28.11
504.003	28.3
504.204	28.24
504.404	28.28
504.604	28.39
504.804	28.37
505.004	28.61
505.204	28.74
505.404	28.89
505.604	29.04
505.804	29.13
506.005	29.17
506.205	29.16
506.405	29.2
506.605	29.21
506.805	29.22
507.005	29.25
507.204	29.2
507.404	29.19
507.604	29.26
507.804	29.26
508.004	29.46
508.204	29.58
508.404	29.57
508.604	29.66
508.804	29.66
509.003	29.55
509.203	29.6
509.403	29.58
509.603	29.51
509.803	29.54
510.002	29.53
510.202	29.43
510.402	29.48
510.602	29.45
510.801	29.56
511.001	29.79
511.201	30.03
511.4	30.09
511.6	30.05
511.8	30.25
511.999	30.27
512.199	30.29
512.398	30.39
512.598	30.36
512.797	30.52
512.997	30.55
513.197	30.63
513.396	30.61
513.596	30.72
513.795	30.85
513.994	30.75
514.194	30.9
514.393	30.79
514.593	30.84
514.792	30.94
514.992	31.15
515.191	31.31
515.39	31.16
515.59	31.14
515.789	31.07
515.988	31.21
516.188	31.3
516.387	31.43
516.586	31.72
516.786	31.78
516.985	31.72
517.184	31.47
517.383	31.51
517.582	31.69
517.782	31.8
517.981	31.79
518.18	31.7
518.379	31.84
518.578	31.88
518.777	31.88
518.976	31.91
519.176	32.02
519.375	32.19
519.574	32.25
519.773	32.38
519.972	32.46
520.171	32.7
520.37	33
520.569	33.11
520.768	33.12
520.967	33.21
521.166	33.2
521.365	33.3
521.564	33.42
521.762	33.51
521.961	33.37
522.16	33.4
522.359	33.56
522.558	33.58
522.757	33.61
522.956	33.6
523.154	33.62
523.353	33.71
523.552	33.77
523.751	33.74
523.949	33.71
524.148	33.74
524.347	34.01
524.546	33.9
524.744	33.98
524.943	33.97
525.142	34.06
525.34	34.1
525.539	34.22
525.737	34.17
525.936	34.12
526.135	34.09
526.333	34.23
526.532	34.03
526.73	34.1
526.929	33.98
527.127	33.94
527.326	34.04
527.524	34.1
527.723	34.22
527.921	34.36
528.12	34.52
528.318	34.68
528.516	34.69
528.715	34.8
528.913	34.82
529.112	34.9
529.31	34.95
529.508	34.97
529.707	35.03
529.905	35.04
530.103	35.06
530.301	35.09
530.5	34.99
530.698	35.08
530.896	35.08
531.094	35.06
531.293	35.13
531.491	35.25
531.689	35.37
531.887	35.42
532.085	35.5
532.283	35.55
532.481	35.58
532.68	35.71
532.878	35.8
533.076	35.83
533.274	35.98
533.472	35.95
533.67	36.01
533.868	36.02
534.066	36.04
534.264	35.98
534.462	36.05
534.66	36.08
534.858	35.94
535.056	35.86
535.253	35.87
535.451	35.84
535.649	36
535.847	36.06
536.045	36.1
536.243	36.16
536.441	36.21
536.638	36.18
536.836	36.22
537.034	36.35
537.232	36.43
537.43	36.52
537.627	36.55
537.825	36.48
538.023	36.51
538.22	36.56
538.418	36.59
538.616	36.71
538.813	36.85
539.011	36.86
539.209	37.08
539.406	37.14
539.604	37.21
539.801	37.15
539.999	37.24
540.196	37.27
540.394	37.22
540.591	37.19
540.789	37.06
540.986	37.07
541.184	37.15
541.381	37.14
541.579	37.13
541.776	37.17
541.974	37.18
542.171	37.21
542.368	37.25
542.566	37.28
542.763	37.48
542.96	37.62
543.158	37.59
543.355	37.62
543.552	37.58
543.75	37.64
543.947	37.64
544.144	37.78
544.341	37.84
544.539	37.89
544.736	37.98
544.933	37.88
545.13	37.86
545.327	37.83
545.524	37.82
545.722	37.96
545.919	37.96
546.116	38.06
546.313	38.05
546.51	38.23
546.707	38.12
546.904	38.25
547.101	38.18
547.298	38.14
547.495	38.3
547.692	38.29
547.889	38.2
548.086	38.23
548.283	38.21
548.48	38.34
548.677	38.22
548.874	38.45
549.07	38.33
549.267	38.45
549.464	38.65
549.661	38.63
549.858	38.69
550.055	38.93
550.251	38.91
550.448	39.02
550.645	38.97
550.842	38.87
551.038	38.74
551.235	38.75
551.432	38.7
551.628	38.69
551.825	38.77
552.022	38.79
552.218	38.84
552.415	39.1
552.612	39.2
552.808	39.02
553.005	39.23
553.201	39.31
553.398	39.35
553.594	39.53
553.791	39.65
553.987	39.56
554.184	39.66
554.38	39.62
554.577	39.54
554.773	39.32
554.97	39.29
555.166	39.29
555.362	39.3
555.559	39.15
555.755	38.9
555.952	38.98
556.148	39.18
556.344	39.03
556.541	39.03
556.737	38.88
556.933	39.06
557.129	39.5
557.326	39.36
557.522	39.45
557.718	39.43
557.914	39.75
558.11	39.57
558.307	39.51
558.503	39.63
558.699	39.55
558.895	39.61
559.091	39.36
559.287	39.33
559.483	39.43
559.679	39.39
559.876	39.61
560.072	39.45
560.268	39.64
560.464	39.78
560.66	39.75
560.856	39.76
561.052	39.93
561.247	40.11
561.443	40.16
561.639	40.13
561.835	40.18
562.031	40.25
562.227	40.26
562.423	40.04
562.619	40.23
562.815	40.25
563.01	40.31
563.206	40.49
563.402	40.71
563.598	40.6
563.793	40.52
563.989	40.51
564.185	40.5
564.381	40.72
564.576	41.02
564.772	40.72
564.968	40.7
565.163	40.77
565.359	40.5
565.555	40.42
565.75	40.37
565.946	40.45
566.141	40.58
566.337	40.53
566.532	40.39
566.728	40.16
566.923	40.01
567.119	40.01
567.314	40.03
567.51	40.06
567.705	40.09
567.901	40.11
568.096	40.1
568.292	40.01
568.487	40.17
568.682	40.23
568.878	40.48
569.073	40.82
569.268	41.1
569.464	41.16
569.659	41.12
569.854	41.02
570.05	41.17
570.245	41.3
570.44	41.25
570.635	41.11
570.831	41.02
571.026	40.98
571.221	41.06
571.416	40.96
571.611	41.05
571.806	41.07
572.002	41.08
572.197	41.02
572.392	40.81
572.587	40.83
572.782	41.01
572.977	41.12
573.172	41.09
573.367	40.97
573.562	41.05
573.757	41.03
573.952	40.95
574.147	40.87
574.342	41.06
574.537	41.21
574.732	41.2
574.927	41.08
575.121	41.02
575.316	41.03
575.511	41.12
575.706	41.16
575.901	41.17
576.096	41.61
576.29	41.67
576.485	41.61
576.68	41.57
576.875	41.64
577.069	41.74
577.264	41.89
577.459	41.89
577.654	41.78
577.848	41.75
578.043	41.64
578.238	41.36
578.432	41.35
578.627	41.25
578.821	41.25
579.016	41.21
579.21	41.14
579.405	40.99
579.6	41.17
579.794	41.42
579.989	41.31
580.183	41.37
580.378	41.34
580.572	41.53
580.766	41.57
580.961	41.72
581.155	41.82
581.35	41.92
581.544	42.02
581.738	41.89
581.933	41.91
582.127	42.01
582.321	41.82
582.516	41.93
582.71	41.99
582.904	41.92
583.099	41.58
583.293	41.53
583.487	41.22
583.681	41.35
583.875	41.31
584.07	41.06
584.264	40.86
584.458	40.99
584.652	40.95
584.846	40.85
585.04	40.91
585.234	41.26
585.428	41.25
585.623	41.57
585.817	41.43
586.011	41.44
586.205	41.47
586.399	41.58
586.593	41.49
586.787	41.65
586.981	41.6
587.174	41.82
587.368	42.13
587.562	42.37
587.756	42.52
587.95	42.52
588.144	42.52
588.338	42.44
588.532	42.44
588.725	42.49
588.919	42.45
589.113	42.65
589.307	42.51
589.501	42.39
589.694	42.33
589.888	42.1
590.082	41.99
590.275	42.16
590.469	42.23
590.663	42.36
590.856	42.63
591.05	42.66
591.244	42.34
591.437	42.28
591.631	41.98
591.824	41.89
592.018	41.97
592.212	42.04
592.405	41.67
592.599	41.74
592.792	41.7
592.986	41.38
593.179	41.25
593.372	41.5
593.566	41.8
593.759	42.05
593.953	41.93
594.146	41.96
594.339	42.12
594.533	42.88
594.726	42.86
594.92	42.8
595.113	42.84
595.306	42.92
595.499	43.06
595.693	42.8
595.886	42.87
596.079	42.97
596.272	42.97
596.466	42.77
596.659	42.54
596.852	42.48
597.045	42.56
597.238	42.68
597.431	42.43
597.624	42.2
597.818	42.26
598.011	42.16
598.204	42.19
598.397	42.14
598.59	42.16
598.783	41.87
598.976	41.95
599.169	41.88
599.362	41.97
599.555	42.26
599.748	42.36
599.941	42.46
600.134	42.66
600.326	42.58
600.519	42.66
600.712	42.73
600.905	42.71
601.098	42.86
601.291	42.75
601.483	42.75
601.676	42.73
601.869	42.74
602.062	42.76
602.255	42.57
602.447	42.7
602.64	42.39
602.833	42.68
603.025	42.73
603.218	42.72
603.411	42.99
603.603	42.92
603.796	42.75
603.989	42.79
604.181	42.57
604.374	42.59
604.566	42.37
604.759	42.59
604.951	42.35
605.144	42.47
605.336	42.55
605.529	42.32
605.721	42.38
605.914	42.54
606.106	42.61
606.299	42.55
606.491	42.57
606.683	42.7
606.876	42.56
607.068	42.69
607.26	42.44
607.453	42.62
607.645	42.87
607.837	42.87
608.03	42.87
608.222	42.79
608.414	43.01
608.606	42.86
608.799	42.71
608.991	42.85
609.183	42.61
609.375	42.7
609.567	42.44
609.759	42.38
609.952	42.13
610.144	42.02
610.336	41.89
610.528	42.03
610.72	42.11
610.912	42.46
611.104	42.28
611.296	42.51
611.488	42.46
611.68	42.32
611.872	42.09
612.064	42.42
612.256	42.64
612.448	42.85
612.64	42.49
612.832	42.84
613.023	42.66
613.215	42.75
613.407	42.66
613.599	42.9
613.791	43.24
613.983	43.44
614.174	43.38
614.366	43.27
614.558	43.2
614.75	43.13
614.941	42.84
615.133	43.13
615.325	43.49
615.516	43.65
615.708	43.66
615.9	43.43
616.091	43.48
616.283	43.51
616.475	43.24
616.666	43.53
616.858	43.79
617.049	43.62
617.241	43.62
617.432	43.04
617.624	43.13
617.815	43.31
618.007	43.32
618.198	43.15
618.39	43.28
618.581	43.82
618.773	43.65
618.964	43.55
619.155	43.64
619.347	43
619.538	43.37
619.729	42.97
619.921	42.8
620.112	42.8
620.303	42.82
620.494	42.35
620.686	42.37
620.877	42.07
621.068	42.28
621.259	42.27
621.451	42.86
621.642	42.71
621.833	43.12
622.024	42.99
622.215	43.19
622.406	43.47
622.597	43.63
622.788	43.4
622.98	43.54
623.171	43.77
623.362	43.51
623.553	43.33
623.744	43.36
623.935	43.61
624.126	43.74
624.317	43.42
624.508	43.14
624.698	43.21
624.889	42.94
625.08	42.92
625.271	42.56
625.462	42.8
625.653	42.6
625.844	42.71
626.034	42.43
626.225	42.14
626.416	42.47
626.607	42.48
626.798	42.28
626.988	42.28
627.179	42.26
627.37	42.17
627.56	42.12
627.751	42.32
627.942	42.45
628.132	42.27
628.323	42.49
628.514	42.6
628.704	42.88
628.895	43.05
629.085	43.34
629.276	43.13
629.466	43.37
629.657	43.36
629.847	43.48
630.038	43.06
630.228	43.09
630.419	43.09
630.609	42.9
630.8	42.83
630.99	42.85
631.181	42.82
631.371	43.26
631.561	43.54
631.752	43.95
631.942	43.46
632.132	44.18
632.323	44.6
632.513	44.51
632.703	44.33
632.893	44.18
633.084	44.26
633.274	44.07
633.464	44.13
633.654	43.94
633.844	43.58
634.034	43.85
634.225	43.3
634.415	43.15
634.605	43.04
634.795	43.11
634.985	43.07
635.175	43.12
635.365	43.17
635.555	43.01
635.745	43.24
635.935	42.95
636.125	43.04
636.315	43.08
636.505	43.22
636.695	43.4
636.885	43.14
637.075	42.78
637.265	42.66
637.455	42.95
637.644	42.85
637.834	42.42
638.024	42.83
638.214	42.6
638.404	42.5
638.593	42.64
638.783	42.71
638.973	42.57
639.163	43.18
639.352	43.49
639.542	43.23
639.732	43.54
639.921	43.73
640.111	44.17
640.301	44.28
640.49	44.71
640.68	44.41
640.87	44.23
641.059	44.49
641.249	43.94
641.438	43.52
641.628	43.81
641.817	43.6
642.007	43.42
642.196	42.98
642.386	43.48
642.575	42.83
642.764	42.86
642.954	43.18
643.143	43.16
643.333	43.34
643.522	43.54
643.711	43.37
643.901	43.52
644.09	43.74
644.279	43.77
644.469	43.46
644.658	43.9
644.847	44.08
645.036	44.24
645.226	44.65
645.415	44.81
645.604	45.02
645.793	44.78
645.982	44.85
646.171	44.92
646.361	44.88
646.55	44.52
646.739	44.53
646.928	44.02
647.117	43.25
647.306	42.93
647.495	43.15
647.684	43.1
647.873	42.74
648.062	42.24
648.251	41.96
648.44	42.25
648.629	42.57
648.818	42.73
649.007	42.99
649.196	43.69
649.384	43.72
649.573	43.56
649.762	43.47
649.951	43.99
650.14	44.24
650.328	44.28
650.517	44.1
650.706	43.97
650.895	43.63
651.083	43.42
651.272	43.24
651.461	43.02
651.65	42.69
651.838	41.88
652.027	41.9
652.216	41.77
652.404	42
652.593	42.03
652.781	42.02
652.97	42.04
653.158	42.38
653.347	42.27
653.535	42.69
653.724	42.73
653.912	43.63
654.101	43.65
654.289	43.81
654.478	43.67
654.666	43.5
654.855	43.58
655.043	43.97
655.231	43.66
655.42	43.51
655.608	43.41
655.796	43.83
655.985	43.44
656.173	43.58
656.361	43.49
656.55	43.15
656.738	42.59
656.926	42.41
657.114	41.86
657.302	42.14
657.491	42.55
657.679	42.5
657.867	42.22
658.055	42.49
658.243	42.3
658.431	42.42
658.619	42.36
658.807	42.6
658.996	42.55
659.184	42.8
659.372	42.61
659.56	42.56
659.748	42.69
659.936	42.62
660.124	42.6
660.311	42.77
660.499	42.94
660.687	42.92
660.875	42.95
661.063	43.08
661.251	43.25
661.439	42.94
661.627	42.77
661.814	42.32
662.002	42.4
662.19	42.32
662.378	42.3
662.565	42.15
662.753	42.37
662.941	42.45
663.129	42.37
663.316	42.03
663.504	41.9
663.692	42.29
663.879	42.44
664.067	42.64
664.254	42.83
664.442	42.36
664.63	42.53
664.817	42.9
665.005	43.09
665.192	43.1
665.38	43.49
665.567	43.92
665.755	43.48
665.942	43.66
666.13	44.15
666.317	43.71
666.504	43.83
666.692	43.18
666.879	43.11
667.067	42.69
667.254	42.8
667.441	42.49
667.629	42.78
667.816	42.77
668.003	42.92
668.19	42.73
668.378	42.7
668.565	42.52
668.752	42.82
668.939	42.97
669.127	43.5
669.314	43.45
669.501	43.11
669.688	42.52
669.875	42.79
670.062	42.43
670.249	42.35
670.436	43.04
670.623	43.07
670.81	43.19
670.997	42.65
671.184	42.02
671.371	42.31
671.558	42.64
671.745	43.19
671.932	42.96
672.119	42.98
672.306	42.9
672.493	42.69
672.68	43.38
672.867	43.17
673.054	43.71
673.24	44.24
673.427	44.16
673.614	44.22
673.801	43.89
673.988	44.48
674.174	44.77
674.361	44.32
674.548	44.06
674.734	44.07
674.921	44.05
675.108	43.38
675.294	43.81
675.481	43.71
675.668	43.76
675.854	44.11
676.041	43.61
676.227	43.38
676.414	43.79
676.601	43.56
676.787	43.48
676.974	43.52
677.16	43.91
677.347	43.65
677.533	43.67
677.719	43.52
677.906	43.5
678.092	43.28
678.279	43.42
678.465	43.37
678.651	43.5
678.838	43.27
679.024	43.39
679.21	43.53
679.397	42.81
679.583	42.51
679.769	42.64
679.955	42.69
680.142	42.81
680.328	42.77
680.514	42.99
680.7	42.99
680.886	43.26
681.073	42.98
681.259	42.63
681.445	42.93
681.631	43.35
681.817	43.68
682.003	43.48
682.189	43.34
682.375	43.26
682.561	42.57
682.747	43.28
682.933	42.9
683.119	43.09
683.305	42.87
683.491	42.9
683.677	42.63
683.863	41.63
684.049	41.96
684.235	42.65
684.42	42.65
684.606	42.87
684.792	42.08
684.978	42.09
685.164	42.07
685.349	42.67
685.535	42.75
685.721	42.28
685.907	42.58
686.092	42.08
686.278	41.58
686.464	41.32
686.649	41.71
686.835	41.96
687.021	41.82
687.206	42.56
687.392	42.68
687.577	42.38
687.763	42.84
687.948	43.46
688.134	43.92
688.319	43.68
688.505	44.08
688.69	44.06
688.876	43.74
689.061	43.33
689.247	42.71
689.432	42.75
689.618	42.87
689.803	43.46
689.988	43.15
690.174	42.73
690.359	42.94
690.544	42.55
690.73	42.65
690.915	43.08
691.1	44.08
691.285	43.92
691.471	43.02
691.656	43.43
691.841	42.18
692.026	42.22
692.211	42.19
692.396	42.46
692.582	43.25
692.767	42.73
692.952	42.6
693.137	42.09
693.322	42.26
693.507	43.18
693.692	43.11
693.877	43.75
694.062	43.96
694.247	44.19
694.432	44.1
694.617	43.59
694.802	43.57
694.987	43.16
695.172	43.61
695.357	43.64
695.541	43.27
695.726	42.84
695.911	42.95
696.096	43.08
696.281	43.01
696.466	42.72
696.65	42.8
696.835	42.74
697.02	43.2
697.204	42.86
697.389	42.8
697.574	42.95
697.759	43.39
697.943	43.38
698.128	42.96
698.312	43.28
698.497	43.6
698.682	43.96
698.866	44.07
699.051	43.54
699.235	43.15
699.42	43.23
699.604	42.99
699.789	43.09
699.973	43.19
700.158	43.39
700.342	43.06
700.527	42.73
700.711	42.23
700.895	41.91
701.08	42.24
701.264	42.17
701.448	41.09
701.633	41.35
701.817	40.92
702.001	40.62
702.186	40.45
702.37	40.5
702.554	40.74
702.738	41.03
702.923	41.35
703.107	41.27
703.291	41.93
703.475	42.92
703.659	42.68
703.843	42.88
704.027	43.3
704.212	42.97
704.396	42.71
704.58	41.67
704.764	40.95
704.948	40.36
705.132	40.73
705.316	40.8
705.5	41.12
705.684	40.94
705.868	40.74
706.052	39.94
706.235	40.14
706.419	40.28
706.603	41.25
706.787	42.03
706.971	42.93
707.155	43.01
707.339	43.22
707.522	43.53
707.706	44.01
707.89	43.38
708.074	44.12
708.257	44.62
708.441	44.75
708.625	43.93
708.808	43.01
708.992	43.09
709.176	42.84
709.359	41.81
709.543	42.22
709.727	41.98
709.91	43.03
710.094	43.23
710.277	42.68
710.461	42.59
710.644	43.76
710.828	44.22
711.011	43.7
711.195	43.5
711.378	44.3
711.562	44.1
711.745	43.35
711.928	42.87
712.112	42.39
712.295	42.5
712.478	42.79
712.662	42.55
712.845	42.5
713.028	43.47
713.212	43.11
713.395	43.04
713.578	42.62
713.761	43.13
713.945	43.12
714.128	43.31
714.311	43.21
714.494	43.32
714.677	42.48
714.86	42.94
715.043	42.96
715.227	43.26
715.41	43.15
715.593	42.88
715.776	43.65
715.959	44.27
716.142	43.76
716.325	43.9
716.508	43.68
716.691	44.15
716.874	43.89
717.057	43.12
717.239	43.45
717.422	43.42
717.605	43.86
717.788	42.94
717.971	41.7
718.154	42.05
718.337	42.17
718.519	41.38
718.702	41.58
718.885	41.58
719.068	42.01
719.25	41.63
719.433	42.07
719.616	43
719.798	44.11
719.981	44.94
720.164	45.04
720.346	44.46
720.529	46.06
720.712	46.37
720.894	45.41
721.077	45.19
721.259	45.82
721.442	45.1
721.624	44.2
721.807	42.98
721.989	42.14
722.172	42.21
722.354	41.95
722.537	40.51
722.719	39.64
722.901	40.68
723.084	40.47
723.266	40.37
723.448	40.97
723.631	40.44
723.813	40.9
723.995	40.53
724.178	40.09
724.36	40.73
724.542	41.32
724.724	41.68
724.907	41.45
725.089	42.19
725.271	41.11
725.453	40.69
725.635	41.52
725.817	41.28
725.999	42.82
726.181	43.77
726.364	44.8
726.546	44.81
726.728	45.27
726.91	45.01
727.092	45
727.274	46.17
727.456	46.87
727.638	45.69
727.819	45.64
728.001	45.76
728.183	44.47
728.365	43.11
728.547	43.65
728.729	43.57
728.911	43.91
729.093	44.12
729.274	43.6
729.456	43.2
729.638	44.22
729.82	44.57
730.001	43.22
730.183	44.27
730.365	44.57
730.546	44.34
730.728	44.55
730.91	44.26
731.091	43.34
731.273	42.98
731.455	43.35
731.636	42.83
731.818	42.73
731.999	43.59
732.181	43.9
732.362	43.62
732.544	42.64
732.725	42.15
732.907	42.73
733.088	42.46
733.27	42.32
733.451	41.85
733.633	42.01
733.814	41.44
733.995	41.07
734.177	42.11
734.358	42.71
734.539	43.75
734.721	43.81
734.902	42.86
735.083	42.61
735.264	42.81
735.446	43.87
735.627	44.54
735.808	45.96
735.989	46
736.17	44.08
736.351	44.5
736.533	44.45
736.714	44.65
736.895	45.62
737.076	46.01
737.257	45.48
737.438	44.46
737.619	44.23
737.8	42.58
737.981	43.09
738.162	43.65
738.343	42.84
738.524	42.83
738.705	42.22
738.886	41.89
739.067	41.19
739.247	40.78
739.428	40.28
739.609	39.54
739.79	40.6
739.971	39.47
740.151	38.08
740.332	38.32
740.513	37.65
740.694	37.46
740.874	37
741.055	38.27
741.236	40.14
741.417	40.6
741.597	39.22
741.778	38.97
741.958	39.39
742.139	39.71
742.32	40.2
742.5	41.17
742.681	41.29
742.861	41.05
743.042	41.15
743.222	40.62
743.403	41.3
743.583	43.09
743.764	41.78
743.944	41.38
744.124	41.61
744.305	41.65
744.485	40.58
744.666	41.6
744.846	43.42
745.026	42.42
745.207	41.35
745.387	40.89
745.567	40.97
745.747	42.38
745.928	44.92
746.108	45.17
746.288	44.39
746.468	44.34
746.648	42.86
746.829	41.16
747.009	40.85
747.189	42.57
747.369	42.31
747.549	42.4
747.729	43.1
747.909	41.05
748.089	40.88
748.269	41.23
748.449	41.7
748.629	41.06
748.809	41.19
748.989	41.89
749.169	40.71
749.349	41.45
749.529	41.33
749.709	41.1
749.889	42.17
750.068	41.9
750.248	40.93
750.428	41.47
750.608	43.56
750.788	44.6
750.967	45.01
751.147	46.12
751.327	45.02
751.507	46.48
751.686	44.79
751.866	43.63
752.046	43.92
752.225	44.77
752.405	44.47
752.585	43.27
752.764	43.16
752.944	42.63
753.123	42.69
753.303	43.59
753.482	41.71
753.662	42.32
753.841	42.68
754.021	42.19
754.2	42.35
754.38	41.94
754.559	42.49
754.739	42.84
754.918	41.83
755.097	40.87
755.277	39.71
755.456	40.13
755.635	41.19
755.815	41.72
755.994	41.68
756.173	41.46
756.352	41.28
756.532	40.25
756.711	38.79
756.89	40.29
757.069	39.54
757.248	39.81
757.427	39.9
757.607	39.79
757.786	39.94
757.965	41.47
758.144	41.73
758.323	42.13
758.502	43.61
758.681	43.7
758.86	42.65
759.039	43.49
759.218	42.38
759.397	41.83
759.576	40.77
759.755	39.17
759.934	39.87
760.113	39.55
760.291	40.06
760.47	39.01
760.649	38.54
760.828	39.23
761.007	37.78
761.186	39.3
761.364	39.19
761.543	39.39
761.722	40.42
761.901	38.72
762.079	38.87
762.258	37.07
762.437	38.57
762.615	39.36
762.794	38.75
762.972	40.69
763.151	41.13
763.33	41.6
763.508	42.08
763.687	42.23
763.865	41.79
764.044	41.1
764.222	42.04
764.401	41.07
764.579	41
764.758	42.02
764.936	41.83
765.114	40.67
765.293	41.15
765.471	40.97
765.65	41.26
765.828	42.06
766.006	43.07
766.184	42.8
766.363	43.07
766.541	42.02
766.719	39.61
766.898	39.06
767.076	40.5
767.254	39.62
767.432	39.06
767.61	38.06
767.788	39.49
767.967	40.5
768.145	40.9
768.323	41.06
768.501	41.88
768.679	43.89
768.857	43.69
769.035	42.11
769.213	41.58
769.391	42.13
769.569	43.33
769.747	40.05
769.925	39.31
770.103	39.61
770.281	37.34
770.459	38.91
770.636	40.41
770.814	39.49
770.992	41.8
771.17	41.05
771.348	41
771.525	39.12
771.703	42.63
771.881	40.92
772.059	38.93
772.236	42.11
772.414	42.4
772.592	39.84
772.769	39.47
772.947	38.73
773.125	38.2
773.302	40.73
773.48	42.47
773.657	39.42
773.835	40.13
774.013	40.86
774.19	39.9
774.368	39.25
774.545	41.78
774.723	42.91
774.9	42.88
775.077	44.04
775.255	39.65
775.432	40.79
775.61	43.52
775.787	40.59
775.964	41.65
776.142	41.38
776.319	42.12
776.496	40.6
776.674	40.52
776.851	38.59
777.028	41
777.205	42.75
777.382	41.65
777.56	39.31
777.737	41.46
777.914	41.73
778.091	41.38
778.268	39.89
778.445	40.14
778.622	38.5
778.8	40.95
778.977	40.61
779.154	38.6
779.331	38.54
779.508	40.01
779.685	40.99
779.862	38.37
780.038	40.23
780.215	39.84
780.392	38.02
780.569	41.01
780.746	38.22
780.923	36.86
781.1	37.41
781.277	35.42
781.453	33.86
781.63	33.65
781.807	36.26
781.984	35.45
782.16	36.72
782.337	37.42
782.514	35.37
782.691	38.08
782.867	38.86
783.044	41.82
783.221	45.31
783.397	45.56
783.574	43.12
783.75	41.8
783.927	42.22
784.103	42.17
784.28	45.61
784.456	46.35
784.633	46.01
784.809	45.08
784.986	42.26
785.162	39.76
785.339	41.33
785.515	43.11
785.692	44.04
785.868	43.65
786.044	45.13
786.221	39.22
786.397	38.99
786.573	38.34
786.749	38.48
786.926	41.47
787.102	39.84
787.278	37.53
787.454	37.76
787.631	40.56
787.807	39.9
787.983	36.58
788.159	38.88
788.335	38.26
788.511	39.42
788.687	40.59
788.863	36.54
789.039	38.45
789.216	39.67
789.392	38.75
789.568	35.3
789.744	34.66
789.919	36.22
790.095	35.05
790.271	37.06
790.447	39.26
790.623	36.54
790.799	39.06
790.975	40.39
791.151	40.69
791.327	41.84
791.502	43.3
791.678	43.42
791.854	43.44
792.03	45.59
792.205	41.21
792.381	39.72
792.557	39.54
792.733	39.38
792.908	38.26
793.084	35.22
793.259	34.72
793.435	34.53
793.611	35.51
793.786	35.16
793.962	36.42
794.137	41.8
794.313	38.43
794.488	43.2
794.664	46.03
794.839	42.73
795.015	42.77
795.19	43.54
795.366	40.89
795.541	39.13
795.716	41.03
795.892	37.15
796.067	38.89
796.242	41.01
796.418	37.25
796.593	32.13
796.768	34.56
796.944	34.11
797.119	35.25
797.294	36.87
797.469	37.49
797.644	33.78
797.82	37.54
797.995	35.11
798.17	34.15
798.345	35.89
798.52	38.65
798.695	38.11
798.87	40.36
799.045	36.75
799.22	38.22
799.395	40.23
799.57	42.47
799.745	42.64
799.92	39.98
800.095	39.6
800.27	39.72
800.445	37.78
800.62	37.67
800.795	38.45
800.97	37.98
801.145	38.93
801.319	35.87
801.494	33.55
801.669	31.42
801.844	36.61
802.018	37
802.193	33.46
802.368	32.32
802.543	31.87
802.717	31.37
802.892	33.25
803.067	29.48
803.241	30.14
803.416	34.52
803.59	34.56
803.765	32
803.94	27.4
804.114	29.72
804.289	30.42
804.463	32.85
804.638	32.26
804.812	32.83
804.986	34.52
805.161	38.73
805.335	36.48
805.51	38.86
805.684	37.44
805.858	37.93
806.033	39.31
806.207	40.95
806.381	45.79
806.556	46.95
806.73	49.49
806.904	49.59
807.078	48.22
807.253	48.3
807.427	43.74
807.601	48.43
807.775	48.61
807.949	51.21
808.123	53.76
808.298	48.68
808.472	51.3
808.646	44.45
808.82	42.9
808.994	40.23
809.168	36.8
809.342	45.9
809.516	42.82
809.69	50.53
809.864	47.97
810.038	48.68
810.212	45.79
810.385	43.4
810.559	45.07
810.733	44.53
810.907	44.26
811.081	48.62
811.255	38.93
811.428	37.31
811.602	33.46
811.776	35.25
811.95	35.62
812.123	39.93
812.297	38.81
812.471	42.65
812.644	43.34
812.818	48.09
812.992	46.34
813.165	48.86
813.339	52.93
813.512	57.96
813.686	54.41
813.86	54.25
814.033	54.31
814.207	53.9
814.38	50.72
814.554	51.01
814.727	43.04
814.9	44.8
815.074	45.52
815.247	42.2
815.421	38.66
815.594	36.76
815.767	33.25
815.941	32.87
816.114	36.01
816.287	38.39
816.46	33.97
816.634	42.39
816.807	40.78
816.98	37.92
817.153	40.5
817.327	38.67
817.5	46.25
817.673	46.28
817.846	43.46
818.019	38.68
818.192	36.07
818.365	40.39
818.538	36.55
818.711	34.53
818.884	34.97
819.057	33.21
819.23	35.99
819.403	30.98
819.576	30.9
819.749	34.32
819.922	36.44
820.095	40.71
820.268	37.87
820.441	39.43
820.614	42.49
820.786	44.33
820.959	44.59
821.132	42.65
821.305	44.08
821.477	43.49
821.65	42.82
821.823	42.95
821.996	42.73
822.168	42.27
822.341	41.4
822.514	41.14
822.686	41.52
822.859	41.14
823.031	41.03
823.204	40.53
823.376	41.43
823.549	41.15
823.722	40.68
823.894	39.96
824.067	40.82
824.239	41.27
824.411	40.63
824.584	38.72
824.756	39.8
824.929	40.46
825.101	39.56
825.273	38.9
825.446	38.98
825.618	38.52
825.79	39.99
825.963	39.81
826.135	39.95
826.307	40.36
826.479	42.34
826.652	41.27
826.824	40.73
826.996	42
827.168	41.86
827.34	42.11
827.512	43.54
827.684	41.62
827.856	42.48
828.029	42.46
828.201	43.16
828.373	43.04
828.545	42.56
828.717	42.98
828.889	43.35
829.061	43.91
829.232	43.51
829.404	43.19
829.576	45.66
829.748	45.13
829.92	43.93
830.092	42.6
830.264	42.1
830.436	44.08
830.607	43.67
830.779	43.78
830.951	42.65
831.123	42.36
831.294	43.9
831.466	40.48
831.638	41.92
831.809	44.2
831.981	47.13
832.153	46.98
832.324	45.01
832.496	42.19
832.667	38.76
832.839	39.62
833.011	41.69
833.182	41.97
833.354	43.12
833.525	41.12
833.697	40.36
833.868	38.17
834.039	39.18
834.211	41.51
834.382	42.64
834.554	42.65
834.725	42.43
834.896	41.59
835.068	39.29
835.239	39.84
835.41	39.93
835.581	42.81
835.753	43.94
835.924	47.57
836.095	43.45
836.266	41.67
836.438	43.97
836.609	41.58
836.78	42.52
836.951	41.79
837.122	46.84
837.293	43.07
837.464	39.15
837.635	41.73
837.806	32.84
837.977	39.94
838.148	47.69
838.319	53.1
838.49	55.02
838.661	51.01
838.832	55.19
839.003	48.27
839.174	51.4
839.345	46.25
839.516	46.45
839.687	47.09
839.857	39.39
840.028	36.9
840.199	32.33
840.37	36.42
840.54	40.62
840.711	37.73
840.882	39.41
841.053	40.27
841.223	49
841.394	49.03
841.564	53.22
841.735	51.06
841.906	47.62
842.076	51.5
842.247	50.67
842.417	54.86
842.588	62.38
842.758	72.54
842.929	72.36
843.099	72.5
843.27	67.42
843.44	73.07
843.611	83.14
843.781	83.56
843.951	67.31
844.122	79.43
844.292	64.48
844.462	41.34
844.633	27.82
844.803	41.15
844.973	32.88
845.144	34.4
845.314	21.45
845.484	24.83
845.654	34.4
845.824	52.74
845.995	46.46
846.165	57.18
846.335	79.27
846.505	85.09
846.675	80.13
846.845	87.59
847.015	85.98
847.185	91.51
847.355	95.19
847.525	101.25
847.695	123.27
847.865	113.08
848.035	91.89
848.205	91.77
848.375	84.01
848.545	84
848.715	71.39
848.884	50.96
849.054	50.74
849.224	50.55
849.394	42.25
849.564	29.38
849.733	17.82
849.903	20.72
850.073	21.43
850.243	7.49
850.412	16.69
850.582	5.89
850.752	10.87
850.921	0.17
851.091	-0.32
851.26	5.59
851.43	27.77
851.599	30.06
851.769	37.51
851.939	36.98
852.108	43.94
852.278	42.43
852.447	45.66
852.616	48.61
852.786	49.51
852.955	39.36
853.125	43.27
853.294	38.14
853.463	50.96
853.633	51.8
853.802	45.08
853.971	46.26
854.141	48.86
854.31	51.16
854.479	55.02
854.648	44.89
854.818	54.3
854.987	50.35
855.156	37.76
855.325	39.92
855.494	31.93
855.663	32.94
855.832	30.25
856.001	13.49
856.171	24.06
856.34	2.77
856.509	1.93
856.678	-26.75
856.847	-35.44
857.016	1.09
857.185	-25.39
857.353	-15.6
857.522	-4.54
857.691	-15.74
857.86	-21.61
858.029	-37.37
858.198	-51.77
858.367	-7.6
858.535	-3.56
858.704	-10.48
858.873	-7.17
859.042	3.62
859.21	-14
859.379	-26.87
859.548	-25.46
859.717	-8.67
859.885	28.33
860.054	24.52
860.222	16.56
860.391	25.39
860.56	56.56
860.728	43.02
860.897	45.43
861.065	56.37
861.234	59.59
861.402	67.05
861.571	75.77
861.739	60.04
861.908	82.8
862.076	80.97
862.244	83.73
862.413	78.95
862.581	101.7
862.749	82.1
862.918	78.43
863.086	99.27
863.254	98.3
863.423	104.4
863.591	110.01
863.759	104.31
863.927	67.01
864.096	52.65
864.264	47.81
864.432	35.83
864.6	38.06
864.768	26.83
864.936	20.42
865.104	20.68
865.272	-9.78
865.44	-0.84
865.608	0.35
865.776	27
865.944	36.64
866.112	-14.7
866.28	7.83
866.448	33.43
866.616	42.76
866.784	65.95
866.952	59.87
867.12	87.42
867.288	88.86
867.455	81.11
867.623	54.01
867.791	28.35
867.959	79.89
868.127	101.76
868.294	95.92
868.462	113.17
868.63	33.48
868.797	14.48
868.965	-1376.4
869.133	17.67
869.3	21.28
869.468	14.7
869.636	47.51
869.803	46.14
869.971	53.92
870.138	52.21
870.306	25.27
870.473	41.78
870.641	59.67
870.808	64.65
870.975	63.49
871.143	37.75
871.31	40.61
871.478	53.99
871.645	1.29
871.812	52.05
871.98	12.06
872.147	40.53
872.314	14.15
872.482	21.63
872.649	9.08
872.816	27.34
872.983	22.87
873.15	25.74
873.318	9.47
873.485	15.84
873.652	-0.06
873.819	21.36
873.986	7.19
874.153	12.02
874.32	9.03
874.487	36.25
874.654	11.95
874.821	26
874.988	27.23
875.155	49.55
875.322	71.47
875.489	49.21
875.656	28.58
875.823	84.85
875.99	83.36
876.157	97.86
876.324	120.8
876.49	69.26
876.657	54.46
876.824	62.27
876.991	74.17
877.157	63.21
877.324	122.51
877.491	184.91
877.658	-0.2
877.824	-29.35
877.991	-15.16
878.157	-10.93
878.324	6.87
878.491	32.26
878.657	-43.69
878.824	-27.17
878.99	-17.89
879.157	-18.93
879.323	2.85
879.49	36.32
879.656	33.12
879.823	36.9
879.989	25.64
880.156	12.98
880.322	-11.58
880.488	4.64
880.655	-7.92
880.821	1.8
880.987	-5.36
881.154	-8.38
881.32	-26.25
881.486	-11.14
881.652	0.83
881.819	9.81
881.985	22.69
882.151	26.94
882.317	27.87
882.483	32.44
882.649	34.4
882.816	43.24
882.982	44.95
883.148	50.94
883.314	45.47
883.48	45.33
883.646	44.75
883.812	43.15
883.978	43.3
884.144	48.49
884.31	47.22
884.476	49.33
884.642	44.23
884.807	43.9
884.973	41.21
885.139	44.6
885.305	46.4
885.471	45.45
885.637	49.46
885.802	49.86
885.968	41.37
886.134	43.21
886.3	38.63
886.465	36.47
886.631	33.45
886.797	44.74
886.962	45.87
887.128	42.67
887.293	43.6
887.459	41.02
887.625	29.91
887.79	36.72
887.956	36.71
888.121	39.09
888.287	50.13
888.452	47.29
888.618	25.74
888.783	18.67
