Data from 2937888_Reflection_2.txt Node
Date: Wed Jul 15 14:25:46 EDT 2015
User: robert
Spectrometer: USB4E03001
Autoset integration time: false
Trigger mode: 4
Integration Time (sec): 1.000000E-1
Scans to average: 10
Electric dark correction enabled: true
Nonlinearity correction enabled: false
Boxcar width: 5
Stray light correction enabled: false
XAxis mode: Wavelengths
Stop averaging: false
Number of Pixels in Spectrum: 3648
>>>>>Begin Spectral Data<<<<<
177.566	11480
177.785	-918
178.005	-149.36
178.225	-118.02
178.445	-351.75
178.665	-173.46
178.885	318.57
179.105	-1393.66
179.324	-580.73
179.544	-4168.75
179.764	740.5
179.984	-268.79
180.204	-99.42
180.423	-14.45
180.643	1.34
180.863	-11.1
181.083	-30.57
181.302	-7.21
181.522	29.68
181.742	8.64
181.961	5.46
182.181	7.17
182.401	8.49
182.621	7.63
182.84	-13.02
183.06	-24.96
183.279	-9.85
183.499	10.34
183.719	-0.39
183.938	3.04
184.158	9.18
184.377	11.35
184.597	13.79
184.816	20.26
185.036	0.91
185.256	9.5
185.475	-2.9
185.695	-3.45
185.914	-0.27
186.134	-0.17
186.353	-47.28
186.572	-39.65
186.792	-55.23
187.011	-63.95
187.231	-157.95
187.45	-171.39
187.67	-191.55
187.889	-68.52
188.108	-133.33
188.328	-134.35
188.547	-88.13
188.766	-58.38
188.986	-97.12
189.205	-100.97
189.424	-56.29
189.644	-21.52
189.863	-19.54
190.082	-42.56
190.302	-27.12
190.521	2.09
190.74	1.98
190.959	-46.13
191.178	-63.25
191.398	-65.37
191.617	-99.3
191.836	-267.3
192.055	-271.96
192.274	-152.33
192.494	-123.17
192.713	-207.14
192.932	-273.7
193.151	-350.21
193.37	-197.4
193.589	-165.29
193.808	-98.62
194.027	-77.18
194.246	-22.68
194.465	-25.42
194.685	-34.38
194.904	-44.12
195.123	-145.3
195.342	-116.55
195.561	-66.93
195.78	-78.43
195.999	-60.03
196.218	-63.78
196.436	-48.8
196.655	-38.6
196.874	-57.06
197.093	-45.64
197.312	-37.57
197.531	12.04
197.75	6.62
197.969	-1.55
198.188	30.46
198.407	40.31
198.625	27.98
198.844	20.24
199.063	-17.82
199.282	-22.68
199.501	-5.45
199.719	-4.89
199.938	-108.13
200.157	-73.32
200.376	-103.34
200.594	-244.87
200.813	-150.09
201.032	-169.05
201.251	-42.33
201.469	-116.3
201.688	779.43
201.907	394.55
202.125	789.05
202.344	85.09
202.563	230.37
202.781	217.43
203	241.51
203.218	356.78
203.437	-191.04
203.656	320100
203.874	-274.78
204.093	-477.12
204.311	-299
204.53	-519.31
204.748	-154.13
204.967	-100.3
205.185	-127.3
205.404	-157.84
205.622	-144.78
205.841	-174.12
206.059	-111.32
206.278	-121.49
206.496	-105.55
206.715	-91.47
206.933	-63.94
207.151	-4.69
207.37	-42.42
207.588	-23.27
207.806	-49.82
208.025	-4.29
208.243	12.69
208.461	-20.44
208.68	-1.55
208.898	-17.24
209.116	-62.89
209.335	-70.25
209.553	-109.38
209.771	-173.26
209.989	-123.46
210.208	-97.35
210.426	-654.26
210.644	-1570.57
210.862	-591.75
211.081	-548.49
211.299	-112.68
211.517	22.38
211.735	44.65
211.953	-33.68
212.171	-49.32
212.39	-173.51
212.608	-43.76
212.826	-61.13
213.044	-49.87
213.262	-80
213.48	-461.79
213.698	-1082.05
213.916	-1029.01
214.134	-290.94
214.352	-162.15
214.57	-206.49
214.788	-182.14
215.006	-389.93
215.224	-674.61
215.442	-1105.55
215.66	-397.05
215.878	-217.4
216.096	-259.46
216.314	-2094.28
216.532	775.04
216.75	269.46
216.968	315.85
217.185	130.39
217.403	366.12
217.621	240.12
217.839	217.46
218.057	138.17
218.275	-119.18
218.492	-242.83
218.71	-68.72
218.928	-81.75
219.146	-113.83
219.363	-697.81
219.581	-214.96
219.799	-275.74
220.017	-377.49
220.234	-520.37
220.452	-708.27
220.67	307.27
220.887	814.11
221.105	-151.06
221.323	-153.39
221.54	-100.81
221.758	-29.93
221.976	-32
222.193	46.46
222.411	79.07
222.629	118.26
222.846	102.62
223.064	181.25
223.281	221.49
223.499	-246.7
223.716	-306.09
223.934	-43.69
224.151	-4.86
224.369	15.44
224.586	51.29
224.804	64.37
225.021	89.85
225.239	65.82
225.456	85.25
225.674	79.45
225.891	75.63
226.108	87.89
226.326	77.94
226.543	68.01
226.76	65.91
226.978	50.19
227.195	37.5
227.413	37.28
227.63	38.53
227.847	32.76
228.064	28.15
228.282	25.44
228.499	18.8
228.716	16.04
228.934	16.11
229.151	15.07
229.368	16.24
229.585	16.75
229.802	13.3
230.02	12.11
230.237	13.17
230.454	15.07
230.671	14.64
230.888	12.78
231.105	14.25
231.323	14.95
231.54	14.53
231.757	6.16
231.974	8.26
232.191	1.59
232.408	-0.37
232.625	-12.06
232.842	-4.62
233.059	-10.65
233.276	-2.64
233.493	-2.28
233.71	-4.49
233.927	1.47
234.144	14.47
234.361	8.37
234.578	13.93
234.795	16.29
235.012	18.29
235.229	12.73
235.446	22.83
235.663	23.09
235.879	17.49
236.096	16.8
236.313	14.71
236.53	10.48
236.747	21.79
236.964	15.9
237.181	24.41
237.397	29.61
237.614	30.99
237.831	28.77
238.048	28.93
238.264	35.88
238.481	41.34
238.698	45.33
238.915	46.25
239.131	42.03
239.348	47.4
239.565	41.25
239.781	38.71
239.998	37.56
240.215	32.04
240.431	32.11
240.648	25.62
240.865	23.34
241.081	22.38
241.298	21.09
241.514	20.2
241.731	18.87
241.947	17.79
242.164	15.39
242.38	15.42
242.597	16.32
242.814	15.68
243.03	15.25
243.246	16.57
243.463	15.99
243.679	16.07
243.896	15.94
244.112	16.53
244.329	16.64
244.545	17
244.762	14.44
244.978	14.54
245.194	16.36
245.411	20.15
245.627	15.69
245.843	16.8
246.06	16.64
246.276	15.87
246.492	14.15
246.709	14.25
246.925	13.8
247.141	14.57
247.357	14.78
247.574	15.28
247.79	13.96
248.006	15.26
248.222	14.93
248.439	14.91
248.655	15.07
248.871	15.82
249.087	16.1
249.303	16.35
249.519	15.73
249.736	15.6
249.952	13.45
250.168	13.03
250.384	11.25
250.6	9.36
250.816	10.56
251.032	8.61
251.248	8.7
251.464	7.73
251.68	8.14
251.896	7.18
252.112	7.2
252.328	7.67
252.544	8.08
252.76	7.53
252.976	8.8
253.192	7.8
253.408	9.95
253.624	10.12
253.84	11.16
254.056	10.97
254.272	13.34
254.487	12.65
254.703	13.91
254.919	16.88
255.135	18.45
255.351	18.11
255.567	20.84
255.782	16.29
255.998	16.23
256.214	13.23
256.43	16.41
256.646	16.61
256.861	17.28
257.077	15.09
257.293	14.53
257.508	16.43
257.724	14.12
257.94	11.05
258.155	11.41
258.371	10.99
258.587	11.93
258.802	10.83
259.018	11.58
259.234	12.42
259.449	12.17
259.665	11.68
259.88	10.6
260.096	10.72
260.312	11.35
260.527	11.59
260.743	12.1
260.958	11.75
261.174	11.85
261.389	11.54
261.605	10.55
261.82	11.06
262.036	10.8
262.251	11.26
262.466	11.93
262.682	11.86
262.897	12.12
263.113	11.65
263.328	10.58
263.543	10.64
263.759	10.38
263.974	11.01
264.189	9.56
264.405	10.44
264.62	10.78
264.835	10.09
265.051	6.5
265.266	8.46
265.481	9.21
265.696	11.51
265.912	11.81
266.127	10.55
266.342	10.18
266.557	9.32
266.773	7.86
266.988	6.73
267.203	7.65
267.418	11.23
267.633	9.85
267.848	9.5
268.064	10.54
268.279	11.36
268.494	11.6
268.709	11.35
268.924	10.98
269.139	11.91
269.354	13.64
269.569	12.13
269.784	9.92
269.999	10.64
270.214	9.11
270.429	7.72
270.644	5.5
270.859	5.86
271.074	4.4
271.289	6.97
271.504	8.73
271.719	8.26
271.934	9.43
272.149	8.31
272.363	7.15
272.578	7.46
272.793	7.96
273.008	10.01
273.223	10.8
273.438	12.64
273.653	12.69
273.867	10.67
274.082	9.98
274.297	10.26
274.512	12.04
274.726	12.65
274.941	13.4
275.156	12.95
275.371	11.99
275.585	11.9
275.8	10.9
276.015	9.36
276.229	10.48
276.444	10.35
276.659	10.52
276.873	9.59
277.088	11.36
277.302	12.52
277.517	12.74
277.732	11.9
277.946	11.84
278.161	13.55
278.375	13.35
278.59	13.15
278.804	13.34
279.019	13.47
279.233	14.77
279.448	12.74
279.662	12.23
279.877	11.94
280.091	11.67
280.306	9.17
280.52	8.22
280.735	10.79
280.949	11.39
281.163	10.91
281.378	10.46
281.592	10.05
281.806	9.11
282.021	8.12
282.235	8.86
282.449	9.8
282.664	11.05
282.878	10.61
283.092	9.96
283.307	10.46
283.521	10.8
283.735	11.55
283.949	11.67
284.164	11.77
284.378	11.79
284.592	11.45
284.806	9.96
285.02	9.8
285.234	9.95
285.449	8.81
285.663	7.9
285.877	8.08
286.091	7.65
286.305	8.26
286.519	8.27
286.733	8.58
286.947	8.2
287.161	9.72
287.375	9.77
287.589	9.2
287.803	8.33
288.017	7.8
288.231	7.11
288.445	7.45
288.659	7.37
288.873	8.72
289.087	7.41
289.301	7.28
289.515	6.51
289.729	6.88
289.943	7.55
290.157	9.31
290.371	9.21
290.584	10.35
290.798	10.68
291.012	10.06
291.226	9.27
291.44	10.63
291.654	11.13
291.867	10.98
292.081	10.16
292.295	10.07
292.509	9.49
292.722	9.67
292.936	9.22
293.15	9.23
293.364	7.25
293.577	7.39
293.791	9.14
294.005	9.91
294.218	10.33
294.432	10.24
294.645	9.89
294.859	9.84
295.073	10.57
295.286	12.03
295.5	10.48
295.713	11.82
295.927	11.86
296.14	9.57
296.354	9.34
296.568	9.44
296.781	9.91
296.994	10.03
297.208	10.37
297.421	10.6
297.635	9.71
297.848	10
298.062	9.8
298.275	9.97
298.489	10.56
298.702	10.83
298.915	10.28
299.129	10.2
299.342	10.05
299.555	9.76
299.769	8.97
299.982	8.92
300.195	9.3
300.409	9.36
300.622	9.03
300.835	9.53
301.048	9
301.262	9.5
301.475	10.41
301.688	12.02
301.901	11.92
302.115	11.19
302.328	10.55
302.541	9.38
302.754	10.87
302.967	11.61
303.18	11.79
303.393	12.01
303.607	11.99
303.82	12.16
304.033	11.89
304.246	12.34
304.459	14.33
304.672	14.84
304.885	17.06
305.098	16.89
305.311	15.96
305.524	14.43
305.737	14.54
305.95	15.89
306.163	14.5
306.376	13.96
306.589	13.06
306.802	12.1
307.015	10.8
307.228	8.54
307.44	8.26
307.653	9.87
307.866	9.8
308.079	10.21
308.292	11.02
308.505	12.19
308.718	11.81
308.93	12.38
309.143	11.04
309.356	13.68
309.569	14.09
309.781	13.46
309.994	14.02
310.207	14.81
310.42	14.06
310.632	12.65
310.845	12.3
311.058	12.19
311.27	12.71
311.483	13.56
311.696	12.03
311.908	12.23
312.121	11.2
312.333	9.67
312.546	10.51
312.759	12.14
312.971	12.39
313.184	13.44
313.396	13.53
313.609	13.22
313.821	13.82
314.034	13.94
314.246	14.51
314.459	16.62
314.671	17.14
314.884	15.27
315.096	12.9
315.309	12.79
315.521	10.25
315.733	9.85
315.946	9.09
316.158	8.35
316.371	8.03
316.583	5.83
316.795	5.13
317.008	4.71
317.22	6.18
317.432	7.2
317.644	8.78
317.857	10.7
318.069	11.03
318.281	10.07
318.494	12.73
318.706	14.71
318.918	15.77
319.13	15.36
319.342	14.89
319.555	15.3
319.767	14.91
319.979	12.05
320.191	12.62
320.403	12.56
320.615	14.4
320.827	12.22
321.039	12.56
321.252	12.5
321.464	12.86
321.676	13.5
321.888	12.8
322.1	13.73
322.312	14.67
322.524	14.62
322.736	15.08
322.948	13.72
323.16	14.41
323.372	12.32
323.584	11.96
323.796	12.9
324.007	12.26
324.219	12.04
324.431	10.35
324.643	9.67
324.855	7.86
325.067	7.24
325.279	7.14
325.491	6.55
325.702	6.07
325.914	6.49
326.126	4.27
326.338	5.37
326.55	6.06
326.761	7.07
326.973	7.68
327.185	9.02
327.396	9.61
327.608	10.5
327.82	12.06
328.032	12.24
328.243	12.34
328.455	13.45
328.666	12.94
328.878	12.66
329.09	12.09
329.301	11.77
329.513	11.87
329.725	11.27
329.936	11.72
330.148	10.72
330.359	12.85
330.571	13.8
330.782	14.49
330.994	15.38
331.205	16.29
331.417	17.46
331.628	16.78
331.84	16.51
332.051	18.51
332.262	19.71
332.474	18.97
332.685	18.24
332.897	17.66
333.108	17.98
333.319	17.17
333.531	16.81
333.742	16.45
333.953	15.73
334.165	15.7
334.376	13.98
334.587	12.79
334.799	12.79
335.01	12.42
335.221	11.24
335.432	10.04
335.644	10
335.855	9.09
336.066	7.6
336.277	9.42
336.488	9.07
336.7	9.66
336.911	8.87
337.122	8.16
337.333	7.83
337.544	8.3
337.755	8.11
337.966	7.81
338.177	8.01
338.388	8.88
338.599	8.98
338.811	8.64
339.022	8.67
339.233	8.8
339.444	10.09
339.655	9.91
339.866	10.54
340.076	11.72
340.287	11.97
340.498	12.47
340.709	10.76
340.92	10.69
341.131	11.27
341.342	10.14
341.553	11.07
341.764	11.26
341.975	12.02
342.185	11.48
342.396	11
342.607	10.18
342.818	10.46
343.029	12.06
343.239	12.18
343.45	12.12
343.661	12.51
343.872	10.18
344.082	9.21
344.293	8.26
344.504	8.48
344.714	8.05
344.925	8.29
345.136	7.67
345.346	7.99
345.557	7.89
345.768	7.76
345.978	7.61
346.189	9.22
346.399	9.16
346.61	9.72
346.821	10.25
347.031	11.33
347.242	10.61
347.452	10.22
347.663	9.91
347.873	10.3
348.084	9.74
348.294	11.07
348.504	10.41
348.715	10.69
348.925	10.21
349.136	10.1
349.346	9.37
349.557	10.75
349.767	9.92
349.977	9.83
350.188	8.55
350.398	9.21
350.608	8.04
350.819	8.52
351.029	8.64
351.239	9.07
351.449	7.98
351.66	7.81
351.87	7.05
352.08	6.72
352.29	6.29
352.501	6.51
352.711	5.79
352.921	5.29
353.131	4.54
353.341	4.72
353.552	4.52
353.762	4.19
353.972	3.76
354.182	5.45
354.392	6.58
354.602	7.24
354.812	7.3
355.022	8.24
355.232	8.15
355.442	9.33
355.652	9.04
355.862	8.41
356.072	8.65
356.282	8.75
356.492	8.46
356.702	7.49
356.912	7.97
357.122	8.23
357.332	7.48
357.542	7.6
357.752	7.2
357.962	6.97
358.171	7.98
358.381	7.81
358.591	8.23
358.801	7.75
359.011	8.09
359.221	7.37
359.43	7
359.64	7.1
359.85	7.51
360.06	6.47
360.269	6.68
360.479	6.38
360.689	6.42
360.899	6.76
361.108	6.78
361.318	7.32
361.528	7.06
361.737	6.93
361.947	6.15
362.156	5.73
362.366	6.48
362.576	6.44
362.785	6.15
362.995	6.39
363.204	5.6
363.414	4.85
363.623	4.69
363.833	4.69
364.042	5.06
364.252	5.98
364.461	6.48
364.671	5.99
364.88	5.34
365.09	5.69
365.299	5.61
365.509	5.6
365.718	6.51
365.927	5.76
366.137	6
366.346	5.59
366.555	5.31
366.765	5.24
366.974	4.93
367.183	5.16
367.393	5.11
367.602	5.21
367.811	5.07
368.021	4.18
368.23	4.66
368.439	4.75
368.648	5.24
368.857	5.36
369.067	4.86
369.276	5.65
369.485	5.64
369.694	5.88
369.903	5.28
370.112	6.11
370.321	6.25
370.531	6.62
370.74	6.44
370.949	6.04
371.158	6.19
371.367	6.35
371.576	5.55
371.785	5.89
371.994	5.15
372.203	5.81
372.412	5.7
372.621	6.19
372.83	6.2
373.039	6.41
373.248	6.49
373.457	5.48
373.666	5.38
373.874	6.14
374.083	6.12
374.292	6.73
374.501	6.64
374.71	6.16
374.919	6.17
375.128	5.66
375.336	5.35
375.545	5.66
375.754	6.55
375.963	6.62
376.171	6.76
376.38	6.34
376.589	6.44
376.798	6.28
377.006	5.94
377.215	5.61
377.424	6
377.632	6.43
377.841	5.67
378.05	6.21
378.258	5.99
378.467	5.81
378.675	5.92
378.884	5.53
379.093	5.37
379.301	5.89
379.51	5.57
379.718	5.21
379.927	4.88
380.135	5.13
380.344	4.64
380.552	4.89
380.761	5.05
380.969	5.2
381.177	5.26
381.386	5.28
381.594	5.34
381.803	5.5
382.011	5.44
382.219	5.42
382.428	5.11
382.636	5.12
382.845	5.3
383.053	5.27
383.261	5.46
383.469	5.17
383.678	5.1
383.886	5.08
384.094	5.48
384.302	5.65
384.511	5.32
384.719	5.45
384.927	5.21
385.135	5.13
385.343	5.38
385.552	5.22
385.76	5.62
385.968	5.94
386.176	5.34
386.384	4.7
386.592	4.33
386.8	4.69
387.008	4.87
387.216	4.71
387.424	4.83
387.633	4.46
387.841	4.45
388.049	4.31
388.257	3.75
388.465	4.61
388.672	5.37
388.88	5.67
389.088	5.52
389.296	5.54
389.504	5.82
389.712	5.88
389.92	5.51
390.128	5.39
390.336	5.1
390.544	5.69
390.751	5.52
390.959	5.46
391.167	5.33
391.375	5.51
391.583	5.59
391.79	5.62
391.998	5.39
392.206	5.55
392.414	5.63
392.621	6.07
392.829	5.81
393.037	5.53
393.244	5.33
393.452	5.26
393.66	5.1
393.867	5.09
394.075	5.06
394.283	4.93
394.49	4.74
394.698	5.11
394.905	5
395.113	5.19
395.32	5.14
395.528	4.77
395.735	4.72
395.943	4.38
396.15	4.18
396.358	4.25
396.565	4.17
396.773	4.37
396.98	3.97
397.188	3.88
397.395	3.85
397.602	4.31
397.81	4.41
398.017	4.31
398.225	4.58
398.432	4.7
398.639	4.82
398.847	5.01
399.054	5.04
399.261	4.88
399.468	4.57
399.676	4.58
399.883	4.35
400.09	4.26
400.297	4.85
400.505	4.74
400.712	4.64
400.919	4.33
401.126	3.99
401.333	3.92
401.54	3.86
401.748	4.01
401.955	3.78
402.162	3.51
402.369	3.85
402.576	4.12
402.783	4.32
402.99	4.31
403.197	4.49
403.404	4.85
403.611	5.08
403.818	5.21
404.025	4.95
404.232	5.04
404.439	5.51
404.646	5.35
404.853	5.12
405.06	5.17
405.267	5.52
405.474	5.37
405.681	5.17
405.887	5.03
406.094	5.18
406.301	5.45
406.508	5.02
406.715	4.79
406.922	4.74
407.128	4.23
407.335	3.97
407.542	3.38
407.749	3.64
407.955	3.94
408.162	3.74
408.369	3.55
408.575	3.45
408.782	3.39
408.989	3.28
409.195	3.15
409.402	3.44
409.609	3.44
409.815	3.65
410.022	3.68
410.228	3.42
410.435	3.51
410.642	3.59
410.848	3.65
411.055	4.22
411.261	3.97
411.468	3.92
411.674	4.08
411.881	4.04
412.087	4.3
412.294	4.11
412.5	4.17
412.706	4.26
412.913	3.9
413.119	3.54
413.326	3.25
413.532	3.58
413.738	3.97
413.945	3.71
414.151	3.68
414.357	3.49
414.564	3.56
414.77	3.66
414.976	3.67
415.182	3.86
415.389	4.25
415.595	4.55
415.801	4.48
416.007	4.41
416.214	4.5
416.42	4.66
416.626	4.47
416.832	4.28
417.038	4.32
417.244	4.05
417.45	4.19
417.657	4.07
417.863	4.07
418.069	3.95
418.275	4.01
418.481	3.75
418.687	3.55
418.893	3.65
419.099	3.69
419.305	3.62
419.511	3.71
419.717	3.8
419.923	3.87
420.129	3.77
420.335	3.78
420.541	3.71
420.746	3.88
420.952	4.06
421.158	3.87
421.364	3.82
421.57	3.8
421.776	4.01
421.982	3.69
422.187	3.59
422.393	3.51
422.599	3.59
422.805	3.67
423.01	3.64
423.216	3.53
423.422	3.63
423.628	3.69
423.833	3.76
424.039	3.58
424.245	3.9
424.45	4.04
424.656	4.08
424.862	4.01
425.067	3.85
425.273	3.84
425.478	3.92
425.684	3.95
425.889	3.85
426.095	3.89
426.301	4.03
426.506	3.79
426.712	3.59
426.917	3.78
427.123	3.8
427.328	3.79
427.533	3.81
427.739	3.59
427.944	3.54
428.15	3.74
428.355	3.64
428.561	3.51
428.766	3.42
428.971	3.62
429.177	3.36
429.382	3.32
429.587	3.5
429.793	3.33
429.998	3.73
430.203	3.9
430.408	3.63
430.614	3.46
430.819	3.55
431.024	3.49
431.229	3.38
431.434	3.49
431.64	3.68
431.845	3.65
432.05	3.8
432.255	3.53
432.46	3.55
432.665	3.75
432.87	3.83
433.076	3.73
433.281	4.05
433.486	4.03
433.691	3.91
433.896	3.67
434.101	3.56
434.306	3.51
434.511	3.6
434.716	3.67
434.921	3.76
435.126	3.77
435.331	3.9
435.535	3.62
435.74	3.68
435.945	3.89
436.15	4.1
436.355	4.38
436.56	4.39
436.765	4.3
436.97	4.05
437.174	3.8
437.379	3.64
437.584	3.6
437.789	3.69
437.993	3.72
438.198	3.58
438.403	3.45
438.608	3.2
438.812	3.06
439.017	3.3
439.222	3.26
439.426	3.37
439.631	3.33
439.836	3.2
440.04	3.13
440.245	2.98
440.45	2.96
440.654	2.93
440.859	2.95
441.063	3
441.268	2.78
441.472	2.89
441.677	2.92
441.881	3.22
442.086	3.24
442.29	3.27
442.495	3.41
442.699	3.32
442.904	3.6
443.108	3.67
443.312	3.86
443.517	3.94
443.721	3.77
443.925	3.61
444.13	3.58
444.334	3.58
444.538	3.68
444.743	3.7
444.947	3.9
445.151	3.66
445.356	3.66
445.56	3.74
445.764	3.75
445.968	3.84
446.173	3.84
446.377	3.72
446.581	3.69
446.785	3.61
446.989	3.56
447.193	3.48
447.398	3.66
447.602	3.6
447.806	3.49
448.01	3.53
448.214	3.47
448.418	3.41
448.622	3.36
448.826	3.49
449.03	3.52
449.234	3.57
449.438	3.59
449.642	3.38
449.846	3.59
450.05	3.48
450.254	3.35
450.458	3.49
450.662	3.66
450.866	3.76
451.069	3.66
451.273	3.58
451.477	3.67
451.681	3.77
451.885	3.85
452.089	3.65
452.292	3.65
452.496	3.57
452.7	3.44
452.904	3.51
453.107	3.46
453.311	3.38
453.515	3.51
453.719	3.36
453.922	3.15
454.126	3.09
454.33	3.28
454.533	3.25
454.737	3.15
454.94	3.33
455.144	3.27
455.348	3.33
455.551	3.32
455.755	3.14
455.958	3.14
456.162	3.14
456.365	3.21
456.569	3.07
456.772	3.17
456.976	3.58
457.179	3.34
457.383	3.33
457.586	3.41
457.79	3.38
457.993	3.47
458.196	3.32
458.4	3.4
458.603	3.25
458.807	3.32
459.01	3.22
459.213	3.13
459.417	3.34
459.62	3.31
459.823	3.27
460.026	3.42
460.23	3.37
460.433	3.31
460.636	3.21
460.839	3.3
461.042	3.27
461.246	3.29
461.449	3.41
461.652	3.26
461.855	3.22
462.058	3.11
462.261	3.14
462.464	3.19
462.668	3.32
462.871	3.46
463.074	3.51
463.277	3.43
463.48	3.42
463.683	3.31
463.886	3.46
464.089	3.42
464.292	3.66
464.495	3.61
464.698	3.47
464.901	3.48
465.104	3.43
465.306	3.34
465.509	3.33
465.712	3.42
465.915	3.36
466.118	3.26
466.321	3.24
466.524	3.03
466.726	3.04
466.929	3.16
467.132	3.13
467.335	3.11
467.538	3.07
467.74	3.11
467.943	3.22
468.146	3.31
468.348	3.24
468.551	3.35
468.754	3.49
468.956	3.37
469.159	3.25
469.362	3.44
469.564	3.77
469.767	3.88
469.969	3.8
470.172	3.79
470.375	3.64
470.577	3.75
470.78	3.58
470.982	3.33
471.185	3.26
471.387	3.55
471.59	3.47
471.792	3.02
471.995	3.09
472.197	3.02
472.399	2.93
472.602	2.84
472.804	2.65
473.007	2.59
473.209	2.78
473.411	2.94
473.614	2.85
473.816	2.82
474.018	2.94
474.22	2.96
474.423	3.12
474.625	3.24
474.827	3.28
475.03	3.45
475.232	3.52
475.434	3.45
475.636	3.48
475.838	3.47
476.04	3.48
476.243	3.56
476.445	3.4
476.647	3.18
476.849	2.97
477.051	3.26
477.253	3.32
477.455	3.51
477.657	3.56
477.859	3.44
478.061	3.41
478.263	3.31
478.465	3.28
478.667	3.39
478.869	3.54
479.071	3.49
479.273	3.28
479.475	3.15
479.677	2.94
479.879	2.88
480.081	2.91
480.283	2.97
480.485	2.99
480.686	2.95
480.888	2.91
481.09	2.86
481.292	3.05
481.494	3.03
481.695	3.2
481.897	3.31
482.099	3.35
482.301	3.3
482.502	3.23
482.704	3.14
482.906	3.17
483.107	3.1
483.309	3.03
483.511	3.11
483.712	3.09
483.914	3.06
484.115	3.04
484.317	3.05
484.519	3.04
484.72	3.02
484.922	3.05
485.123	3.07
485.325	3.12
485.526	3.13
485.728	3.03
485.929	3.05
486.131	3.03
486.332	3.01
486.534	2.9
486.735	2.88
486.936	2.88
487.138	2.89
487.339	2.78
487.541	2.75
487.742	2.76
487.943	2.72
488.144	2.77
488.346	2.77
488.547	2.8
488.748	2.86
488.95	2.94
489.151	3.03
489.352	3.12
489.553	3.18
489.755	3.18
489.956	3.2
490.157	3.31
490.358	3.31
490.559	3.25
490.76	3.15
490.961	3.14
491.163	3.09
491.364	3.02
491.565	2.96
491.766	3.01
491.967	3.05
492.168	3.18
492.369	3.16
492.57	3.08
492.771	3.13
492.972	3.27
493.173	3.28
493.374	3.36
493.575	3.36
493.776	3.52
493.976	3.46
494.177	3.34
494.378	3.13
494.579	3.29
494.78	3.35
494.981	3.27
495.182	3.23
495.382	3.18
495.583	3.04
495.784	3.04
495.985	2.8
496.185	2.92
496.386	3.01
496.587	3.08
496.788	2.9
496.988	2.8
497.189	2.82
497.39	2.75
497.59	2.93
497.791	2.97
497.992	3.12
498.192	3.19
498.393	3.13
498.593	3.13
498.794	3.24
498.994	3.29
499.195	3.47
499.395	3.62
499.596	3.55
499.796	3.4
499.997	3.45
500.197	3.26
500.398	3.27
500.598	3.27
500.799	3.47
500.999	3.44
501.199	3.42
501.4	3.3
501.6	3.04
501.801	3.24
502.001	3.3
502.201	3.18
502.402	3.25
502.602	3.16
502.802	3.25
503.002	3.27
503.203	3.2
503.403	3.17
503.603	3.4
503.803	3.59
504.003	3.42
504.204	3.48
504.404	3.66
504.604	3.64
504.804	3.77
505.004	3.81
505.204	3.78
505.404	3.81
505.604	3.84
505.804	3.67
506.005	3.56
506.205	3.68
506.405	3.63
506.605	3.34
506.805	3.3
507.005	3.33
507.204	3.21
507.404	3.1
507.604	3.33
507.804	3.5
508.004	3.6
508.204	3.72
508.404	3.67
508.604	3.69
508.804	3.7
509.003	3.78
509.203	3.86
509.403	3.98
509.603	4.09
509.803	3.95
510.002	3.87
510.202	3.79
510.402	3.75
510.602	3.84
510.801	3.92
511.001	4.1
511.201	4.17
511.4	4.13
511.6	4.1
511.8	4.15
511.999	4.09
512.199	4.09
512.398	4.13
512.598	4.25
512.797	4.18
512.997	4.21
513.197	4.26
513.396	4.24
513.596	4.13
513.795	4.21
513.994	4.19
514.194	4.21
514.393	4.17
514.593	4.15
514.792	4.19
514.992	4.22
515.191	4.26
515.39	4.26
515.59	4.32
515.789	4.49
515.988	4.34
516.188	4.26
516.387	4.42
516.586	4.43
516.786	4.4
516.985	4.2
517.184	4.24
517.383	4.08
517.582	4.11
517.782	4.07
517.981	3.99
518.18	4.14
518.379	4.2
518.578	4.16
518.777	4.1
518.976	4.19
519.176	4.3
519.375	4.32
519.574	4.45
519.773	4.45
519.972	4.48
520.171	4.54
520.37	4.5
520.569	4.55
520.768	4.63
520.967	4.73
521.166	4.84
521.365	4.91
521.564	4.82
521.762	4.75
521.961	4.8
522.16	4.79
522.359	4.83
522.558	4.95
522.757	4.92
522.956	4.87
523.154	4.98
523.353	4.78
523.552	4.75
523.751	4.92
523.949	4.91
524.148	4.84
524.347	4.98
524.546	4.86
524.744	4.78
524.943	4.75
525.142	4.83
525.34	4.81
525.539	4.79
525.737	4.74
525.936	4.69
526.135	4.82
526.333	4.84
526.532	4.83
526.73	4.86
526.929	4.95
527.127	5.04
527.326	5
527.524	5.04
527.723	5.08
527.921	5.14
528.12	5.16
528.318	5.08
528.516	5.09
528.715	5.08
528.913	5.04
529.112	4.98
529.31	4.95
529.508	4.92
529.707	4.89
529.905	4.94
530.103	4.91
530.301	4.95
530.5	4.98
530.698	5.02
530.896	5.07
531.094	5.27
531.293	5.31
531.491	5.41
531.689	5.43
531.887	5.51
532.085	5.53
532.283	5.59
532.481	5.61
532.68	5.65
532.878	5.72
533.076	5.76
533.274	5.68
533.472	5.72
533.67	5.7
533.868	5.77
534.066	5.8
534.264	5.79
534.462	5.97
534.66	6.02
534.858	6.02
535.056	5.96
535.253	5.96
535.451	6.05
535.649	6.08
535.847	6.11
536.045	6.13
536.243	6.15
536.441	6.22
536.638	6.1
536.836	6.09
537.034	6.15
537.232	6.3
537.43	6.35
537.627	6.38
537.825	6.39
538.023	6.52
538.22	6.54
538.418	6.55
538.616	6.51
538.813	6.51
539.011	6.43
539.209	6.46
539.406	6.37
539.604	6.3
539.801	6.3
539.999	6.35
540.196	6.35
540.394	6.51
540.591	6.59
540.789	6.71
540.986	6.69
541.184	6.71
541.381	6.77
541.579	6.79
541.776	6.79
541.974	6.8
542.171	6.79
542.368	6.82
542.566	6.78
542.763	6.68
542.96	6.69
543.158	6.71
543.355	6.82
543.552	6.82
543.75	6.84
543.947	6.86
544.144	6.87
544.341	6.95
544.539	6.9
544.736	6.93
544.933	6.98
545.13	7.08
545.327	7.16
545.524	6.98
545.722	6.93
545.919	6.98
546.116	7.19
546.313	7.2
546.51	7.15
546.707	7.15
546.904	7.21
547.101	7.17
547.298	7.09
547.495	7.02
547.692	7.18
547.889	7.22
548.086	7.23
548.283	7.13
548.48	7.29
548.677	7.44
548.874	7.53
549.07	7.47
549.267	7.62
549.464	7.77
549.661	7.76
549.858	7.69
550.055	7.62
550.251	7.66
550.448	7.74
550.645	7.64
550.842	7.66
551.038	7.58
551.235	7.81
551.432	7.86
551.628	7.81
551.825	8.02
552.022	8.13
552.218	8.22
552.415	8.21
552.612	8.08
552.808	8.13
553.005	8.11
553.201	8.29
553.398	8.13
553.594	8.16
553.791	8.12
553.987	8.14
554.184	8.24
554.38	8.39
554.577	8.27
554.773	8.67
554.97	8.84
555.166	8.82
555.362	8.68
555.559	8.91
555.755	8.92
555.952	8.89
556.148	9
556.344	9.03
556.541	9.05
556.737	9.24
556.933	9.05
557.129	8.95
557.326	9.01
557.522	9.19
557.718	9.2
557.914	9.49
558.11	9.78
558.307	9.59
558.503	9.58
558.699	9.63
558.895	9.54
559.091	9.57
559.287	9.63
559.483	9.69
559.679	9.58
559.876	9.66
560.072	9.57
560.268	9.37
560.464	9.54
560.66	9.62
560.856	9.72
561.052	9.95
561.247	9.93
561.443	9.84
561.639	9.87
561.835	10.11
562.031	10.01
562.227	10.1
562.423	10.17
562.619	10.22
562.815	10.14
563.01	10.05
563.206	10.04
563.402	10.01
563.598	10.32
563.793	10.23
563.989	10.06
564.185	10.04
564.381	9.98
564.576	10.07
564.772	10.27
564.968	10.32
565.163	10.35
565.359	10.39
565.555	10.55
565.75	10.42
565.946	10.62
566.141	10.74
566.337	10.88
566.532	11.03
566.728	10.96
566.923	10.79
567.119	10.89
567.314	11.06
567.51	11.12
567.705	10.97
567.901	10.92
568.096	10.9
568.292	10.84
568.487	10.6
568.682	10.48
568.878	10.66
569.073	10.63
569.268	10.69
569.464	10.65
569.659	10.64
569.854	10.69
570.05	10.8
570.245	10.91
570.44	10.99
570.635	11.22
570.831	11.37
571.026	11.35
571.221	11.38
571.416	11.41
571.611	11.32
571.806	11.41
572.002	11.57
572.197	11.49
572.392	11.37
572.587	11.56
572.782	11.54
572.977	11.35
573.172	11.38
573.367	11.46
573.562	11.43
573.757	11.47
573.952	11.28
574.147	11.26
574.342	11.45
574.537	11.35
574.732	11.12
574.927	11.04
575.121	11.06
575.316	11.12
575.511	11.13
575.706	11.21
575.901	11.3
576.096	11.48
576.29	11.55
576.485	11.61
576.68	11.86
576.875	12
577.069	12.23
577.264	12.39
577.459	12.33
577.654	12.47
577.848	12.46
578.043	12.36
578.238	12.21
578.432	12.02
578.627	11.96
578.821	12.08
579.016	12.06
579.21	12.07
579.405	11.91
579.6	11.89
579.794	11.92
579.989	12.02
580.183	12
580.378	12.07
580.572	12.25
580.766	12.15
580.961	11.88
581.155	11.91
581.35	11.87
581.544	12.17
581.738	12.3
581.933	12.05
582.127	11.89
582.321	12.01
582.516	12.2
582.71	11.95
582.904	12.16
583.099	12.31
583.293	12.23
583.487	12.16
583.681	12.1
583.875	11.92
584.07	11.86
584.264	11.92
584.458	11.71
584.652	11.86
584.846	12.08
585.04	11.87
585.234	12.04
585.428	12.27
585.623	12.27
585.817	12.2
586.011	12.28
586.205	12.39
586.399	12.39
586.593	12.63
586.787	12.18
586.981	12.35
587.174	12.75
587.368	12.85
587.562	12.88
587.756	12.71
587.95	12.9
588.144	12.96
588.338	13.07
588.532	13.38
588.725	13.3
588.919	13.5
589.113	13.69
589.307	13.46
589.501	12.98
589.694	12.95
589.888	13.31
590.082	13.15
590.275	13.09
590.469	13.19
590.663	13.2
590.856	13.2
591.05	13.19
591.244	12.78
591.437	13.11
591.631	13.19
591.824	13.1
592.018	13.04
592.212	12.89
592.405	13.06
592.599	12.96
592.792	12.85
592.986	12.88
593.179	12.76
593.372	12.77
593.566	12.41
593.759	12.74
593.953	12.7
594.146	12.42
594.339	12.63
594.533	12.57
594.726	12.58
594.92	12.59
595.113	12.7
595.306	13.05
595.499	13.24
595.693	13.33
595.886	13.25
596.079	13.47
596.272	13.58
596.466	13.66
596.659	13.77
596.852	13.96
597.045	13.91
597.238	13.71
597.431	13.52
597.624	13.65
597.818	13.31
598.011	13.24
598.204	13.1
598.397	13.2
598.59	12.96
598.783	12.63
598.976	12.26
599.169	12.14
599.362	12.49
599.555	12.59
599.748	12.4
599.941	13.07
600.134	13.16
600.326	13.39
600.519	13.44
600.712	13.77
600.905	13.88
601.098	14.37
601.291	14.61
601.483	14.53
601.676	14.53
601.869	14.41
602.062	14.19
602.255	14.12
602.447	13.89
602.64	13.74
602.833	13.73
603.025	13.75
603.218	13.54
603.411	13.57
603.603	13.49
603.796	13.46
603.989	13.34
604.181	13.35
604.374	13.42
604.566	13.54
604.759	13.66
604.951	13.42
605.144	13.46
605.336	13.39
605.529	13.4
605.721	13.45
605.914	13.4
606.106	13.65
606.299	13.59
606.491	13.69
606.683	13.54
606.876	13.49
607.068	13.9
607.26	13.94
607.453	14.04
607.645	14
607.837	13.89
608.03	13.94
608.222	13.92
608.414	14.22
608.606	14.18
608.799	14.16
608.991	14.08
609.183	13.88
609.375	13.88
609.567	13.8
609.759	13.74
609.952	13.7
610.144	13.78
610.336	13.64
610.528	13.23
610.72	13
610.912	13.07
611.104	13.2
611.296	13.21
611.488	13.17
611.68	12.97
611.872	13.01
612.064	13.2
612.256	13.06
612.448	13.1
612.64	13.2
612.832	13.28
613.023	13.41
613.215	13.47
613.407	13.57
613.599	13.69
613.791	14.01
613.983	14.02
614.174	14.13
614.366	14.24
614.558	14.17
614.75	14.17
614.941	14.42
615.133	14.42
615.325	14.34
615.516	14.49
615.708	14.45
615.9	14.37
616.091	14.33
616.283	14.23
616.475	14.2
616.666	14.15
616.858	14.13
617.049	13.99
617.241	14.03
617.432	13.9
617.624	13.88
617.815	14.03
618.007	14.35
618.198	14.05
618.39	13.99
618.581	14.1
618.773	14.32
618.964	14.54
619.155	14.6
619.347	14.5
619.538	14.45
619.729	14.45
619.921	14.41
620.112	13.99
620.303	14.02
620.494	13.83
620.686	13.58
620.877	13.53
621.068	13.58
621.259	13.86
621.451	13.56
621.642	13.47
621.833	13
622.024	13.18
622.215	13.27
622.406	13.46
622.597	13.68
622.788	13.97
622.98	14.28
623.171	14.43
623.362	14.48
623.553	14.88
623.744	15.17
623.935	15.62
624.126	15.27
624.317	15.21
624.508	14.9
624.698	14.82
624.889	14.78
625.08	14.79
625.271	14.67
625.462	14.63
625.653	14.58
625.844	14.69
626.034	14.56
626.225	14.73
626.416	15.09
626.607	15.45
626.798	15.58
626.988	15.47
627.179	15.16
627.37	14.99
627.56	14.59
627.751	14.25
627.942	14.13
628.132	14.16
628.323	14.16
628.514	14.09
628.704	13.9
628.895	13.92
629.085	14.08
629.276	14.21
629.466	14.3
629.657	14.63
629.847	14.9
630.038	14.57
630.228	14.67
630.419	14.75
630.609	14.67
630.8	14.92
630.99	14.84
631.181	14.79
631.371	14.21
631.561	14.21
631.752	13.94
631.942	13.93
632.132	14.2
632.323	14.13
632.513	13.88
632.703	13.94
632.893	13.66
633.084	13.87
633.274	13.88
633.464	14.47
633.654	14.63
633.844	15.16
634.034	15.12
634.225	15.22
634.415	15.22
634.605	15.24
634.795	15.43
634.985	16.04
635.175	16.03
635.365	16.19
635.555	16.26
635.745	16.34
635.935	15.96
636.125	15.87
636.315	16.04
636.505	16.13
636.695	15.95
636.885	15.35
637.075	14.71
637.265	14.67
637.455	13.99
637.644	14.05
637.834	13.67
638.024	13.83
638.214	13.85
638.404	13.66
638.593	13.42
638.783	13.73
638.973	14.01
639.163	14
639.352	13.54
639.542	14.15
639.732	14.03
639.921	14.39
640.111	14.46
640.301	14.72
640.49	14.62
640.68	14.5
640.87	14.28
641.059	14.36
641.249	14.43
641.438	14.83
641.628	14.71
641.817	14.52
642.007	14.24
642.196	14.21
642.386	14.42
642.575	14.44
642.764	14.96
642.954	15.39
643.143	15.48
643.333	15.44
643.522	15.12
643.711	14.92
643.901	15.48
644.09	15.59
644.279	15.4
644.469	14.93
644.658	14.92
644.847	14.84
645.036	14.97
645.226	14.75
645.415	15.35
645.604	15.42
645.793	15.88
645.982	15.34
646.171	15.59
646.361	15.67
646.55	15.94
646.739	16.05
646.928	16.02
647.117	15.62
647.306	15.44
647.495	14.76
647.684	15
647.873	14.79
648.062	15.23
648.251	15.02
648.44	15.1
648.629	15.12
648.818	15.09
649.007	14.86
649.196	15.11
649.384	15.43
649.573	15.75
649.762	15.55
649.951	15.73
650.14	15.65
650.328	15.56
650.517	15.51
650.706	15.34
650.895	15.23
651.083	15.13
651.272	15.07
651.461	15.11
651.65	15.03
651.838	15.31
652.027	15.3
652.216	15.01
652.404	14.99
652.593	15.07
652.781	15.21
652.97	15.28
653.158	15.28
653.347	15.23
653.535	14.99
653.724	15.15
653.912	14.78
654.101	14.37
654.289	14.77
654.478	14.9
654.666	14.67
654.855	15.05
655.043	14.86
655.231	15.01
655.42	15.28
655.608	15.86
655.796	15.78
655.985	16.21
656.173	16.7
656.361	16.6
656.55	16.64
656.738	17.08
656.926	17
657.114	17.3
657.302	17.3
657.491	17.11
657.679	16.85
657.867	16.94
658.055	16.73
658.243	16.56
658.431	16.37
658.619	16.18
658.807	15.8
658.996	15.56
659.184	15.57
659.372	15.77
659.56	15.59
659.748	15.42
659.936	15.28
660.124	15.26
660.311	15.21
660.499	15.13
660.687	15.16
660.875	15.1
661.063	15.12
661.251	15.36
661.439	14.85
661.627	14.9
661.814	15.41
662.002	15.19
662.19	15.42
662.378	15.55
662.565	15.62
662.753	16.19
662.941	16.09
663.129	16.34
663.316	16.01
663.504	16.26
663.692	16.47
663.879	16
664.067	16.02
664.254	15.71
664.442	15.56
664.63	15.63
664.817	15.28
665.005	15.19
665.192	14.74
665.38	14.64
665.567	14.92
665.755	14.71
665.942	14.87
666.13	15.02
666.317	15.06
666.504	14.73
666.692	14.51
666.879	14.28
667.067	15.13
667.254	15.38
667.441	15.64
667.629	15.52
667.816	15.24
668.003	14.71
668.19	14.7
668.378	14.7
668.565	15.04
668.752	15.81
668.939	15.64
669.127	15.15
669.314	15.43
669.501	15.19
669.688	15.36
669.875	16.08
670.062	16.81
670.249	16.96
670.436	17.07
670.623	17.11
670.81	16.46
670.997	17.17
671.184	16.99
671.371	16.62
671.558	16.49
671.745	16.04
671.932	16.07
672.119	15.39
672.306	15.51
672.493	15.52
672.68	15.79
672.867	16.12
673.054	15.8
673.24	16.07
673.427	15.89
673.614	16.06
673.801	15.76
673.988	15.52
674.174	15.71
674.361	15.72
674.548	15.7
674.734	15.42
674.921	15.58
675.108	15.63
675.294	16.09
675.481	16.19
675.668	16.44
675.854	16.78
676.041	16.81
676.227	16.73
676.414	16.99
676.601	17.15
676.787	17.01
676.974	16.76
677.16	16.31
677.347	15.99
677.533	16.09
677.719	16.18
677.906	16.72
678.092	17.03
678.279	16.76
678.465	16.15
678.651	15.87
678.838	16.2
679.024	16.07
679.21	16.17
679.397	16.53
679.583	16.54
679.769	16.32
679.955	15.9
680.142	15.36
680.328	15.77
680.514	15.89
680.7	15.84
680.886	15.88
681.073	16.25
681.259	16.64
681.445	16.05
681.631	15.87
681.817	15.7
682.003	15.77
682.189	15.49
682.375	15.56
682.561	15.72
682.747	15.73
682.933	15.18
683.119	14.37
683.305	14.08
683.491	14.6
683.677	14.59
683.863	14.8
684.049	15.09
684.235	15.62
684.42	15.34
684.606	15.03
684.792	15.58
684.978	15.63
685.164	16.42
685.349	16.21
685.535	15.87
685.721	15.87
685.907	15.41
686.092	15.22
686.278	14.7
686.464	14.79
686.649	15.12
686.835	14.6
687.021	15.05
687.206	14.81
687.392	15.02
687.577	14.97
687.763	15.65
687.948	15.88
688.134	16.43
688.319	16.8
688.505	16.75
688.69	16.9
688.876	16.9
689.061	16.53
689.247	16.76
689.432	16.87
689.618	16.42
689.803	15.92
689.988	16.11
690.174	15.51
690.359	15.34
690.544	15.98
690.73	15.8
690.915	16.02
691.1	16.82
691.285	16.71
691.471	16.75
691.656	17.23
691.841	17.44
692.026	17.4
692.211	17.16
692.396	16.68
692.582	16.08
692.767	16.34
692.952	16.33
693.137	16.23
693.322	16.57
693.507	16.68
693.692	17.16
693.877	16.96
694.062	17.24
694.247	17.71
694.432	18.89
694.617	18.81
694.802	18.96
694.987	19.33
695.172	18.22
695.357	18.07
695.541	17.55
695.726	17.37
695.911	17.12
696.096	16.99
696.281	15.97
696.466	15.56
696.65	15.64
696.835	15.54
697.02	15.56
697.204	16.4
697.389	15.95
697.574	16.05
697.759	16.23
697.943	16.34
698.128	16.6
698.312	17.01
698.497	17.18
698.682	17.08
698.866	16.99
699.051	17.03
699.235	16.81
699.42	17.05
699.604	17.47
699.789	17.08
699.973	17.29
700.158	16.94
700.342	16.78
700.527	17.04
700.711	17.49
700.895	17.5
701.08	17.54
701.264	17.45
701.448	17.63
701.633	17.48
701.817	17.79
702.001	17.38
702.186	17.98
702.37	18.7
702.554	18.27
702.738	17.87
702.923	18.5
703.107	17.75
703.291	17.86
703.475	17.84
703.659	17.4
703.843	17.03
704.027	17.67
704.212	16.47
704.396	16.42
704.58	16.47
704.764	17.38
704.948	16.92
705.132	17.63
705.316	17.95
705.5	17.71
705.684	18.08
705.868	18.4
706.052	18.92
706.235	19.3
706.419	19.27
706.603	19.34
706.787	18.91
706.971	18.89
707.155	18.88
707.339	18.25
707.522	17.99
707.706	17.61
707.89	17.72
708.074	17.02
708.257	17.08
708.441	17.72
708.625	17.1
708.808	17.05
708.992	17.12
709.176	17.2
709.359	17.08
709.543	17.13
709.727	17.05
709.91	17.88
710.094	17.79
710.277	17.8
710.461	17.27
710.644	17.69
710.828	17.29
711.011	17.02
711.195	16.93
711.378	17.13
711.562	17.31
711.745	17.37
711.928	16.14
712.112	16.51
712.295	17
712.478	16.46
712.662	16.51
712.845	17.04
713.028	17.27
713.212	16.74
713.395	17.59
713.578	18.08
713.761	18.4
713.945	18.93
714.128	18.7
714.311	18.65
714.494	18.54
714.677	18.48
714.86	17.79
715.043	16.9
715.227	17.15
715.41	17.24
715.593	16.45
715.776	16.31
715.959	16.12
716.142	16.17
716.325	15.96
716.508	16.99
716.691	17.41
716.874	17.72
717.057	18.8
717.239	18.68
717.422	18.56
717.605	18.88
717.788	19.28
717.971	18.78
718.154	19.46
718.337	19.56
718.519	19.18
718.702	19.08
718.885	19.28
719.068	18.52
719.25	19.36
719.433	18.99
719.616	18.68
719.798	18.63
719.981	19.48
720.164	19.21
720.346	19.85
720.529	20
720.712	20
720.894	19.94
721.077	20.3
721.259	19.74
721.442	19.25
721.624	19.44
721.807	19.26
721.989	18.38
722.172	18.3
722.354	17.39
722.537	17.39
722.719	17.77
722.901	18.3
723.084	17.95
723.266	18.31
723.448	17.97
723.631	17.79
723.813	17.99
723.995	18.75
724.178	17.5
724.36	18.83
724.542	18.14
724.724	18.48
724.907	18.05
725.089	18.6
725.271	19.11
725.453	19.59
725.635	20.18
725.817	20.35
725.999	20.57
726.181	22.06
726.364	21.02
726.546	21.49
726.728	20.75
726.91	21.37
727.092	20.99
727.274	19.97
727.456	19.84
727.638	19.29
727.819	19.18
728.001	18.54
728.183	17.7
728.365	17.58
728.547	17.66
728.729	17.41
728.911	15.93
729.093	15.54
729.274	15.58
729.456	16.18
729.638	16.24
729.82	16.1
730.001	16.68
730.183	16.31
730.365	15.69
730.546	15
730.728	15.42
730.91	16.26
731.091	17.24
731.273	17.08
731.455	17.11
731.636	18.46
731.818	18.56
731.999	17.61
732.181	17.7
732.362	17.68
732.544	18.18
732.725	16.95
732.907	17.18
733.088	16.91
733.27	16.9
733.451	16.85
733.633	15.81
733.814	14.84
733.995	15.03
734.177	14.99
734.358	15.47
734.539	15.39
734.721	16.33
734.902	16.45
735.083	16.59
735.264	17.35
735.446	17.26
735.627	17.77
735.808	18.58
735.989	18.6
736.17	19.78
736.351	20.26
736.533	20.52
736.714	20.26
736.895	20.26
737.076	19.95
737.257	19.26
737.438	19.64
737.619	18.54
737.8	18.31
737.981	19.86
738.162	19.53
738.343	19.36
738.524	19.68
738.705	20.74
738.886	20.3
739.067	20.83
739.247	20.99
739.428	20.51
739.609	21.31
739.79	20.68
739.971	20.64
740.151	20.63
740.332	20.76
740.513	21.24
740.694	19.83
740.874	19.95
741.055	19.36
741.236	20.18
741.417	19.65
741.597	19.36
741.778	20.84
741.958	20.45
742.139	20.82
742.32	21.27
742.5	20.84
742.681	21.18
742.861	20.21
743.042	20.33
743.222	18.54
743.403	20.19
743.583	19.81
743.764	18.79
743.944	18.08
744.124	17.43
744.305	17.26
744.485	16.58
744.666	17.99
744.846	18.63
745.026	18.41
745.207	19.13
745.387	19.06
745.567	18.44
745.747	18.74
745.928	19.5
746.108	18.8
746.288	19.07
746.468	20.22
746.648	18.97
746.829	20.25
747.009	21.11
747.189	21.82
747.369	20.61
747.549	21.42
747.729	21.04
747.909	21.55
748.089	22.09
748.269	21.55
748.449	21.76
748.629	22.51
748.809	21.17
748.989	19.83
749.169	19.67
749.349	19.95
749.529	19.3
749.709	20.82
749.889	19.74
750.068	19.26
750.248	19.25
750.428	17.43
750.608	17.54
750.788	18.89
750.967	19.27
751.147	19.6
751.327	18.91
751.507	20.34
751.686	19.72
751.866	19.33
752.046	19.37
752.225	19.84
752.405	19.9
752.585	20.6
752.764	19.58
752.944	20.43
753.123	20.45
753.303	21.3
753.482	19.9
753.662	20.3
753.841	20.39
754.021	21.04
754.2	19.88
754.38	20.12
754.559	19.64
754.739	18.75
754.918	17.26
755.097	16.35
755.277	16.29
755.456	17.41
755.635	16.52
755.815	16.38
755.994	15.54
756.173	15.38
756.352	15.86
756.532	15.47
756.711	16.67
756.89	17.54
757.069	18.56
757.248	18
757.427	17.17
757.607	18.09
757.786	19.62
757.965	20.65
758.144	20.2
758.323	20.67
758.502	19.91
758.681	19.15
758.86	18.94
759.039	19.52
759.218	19.64
759.397	20.35
759.576	20.45
759.755	19.74
759.934	19.26
760.113	19.91
760.291	19.25
760.47	20.14
760.649	20.46
760.828	21.5
761.007	20.9
761.186	20.82
761.364	21.02
761.543	20.84
761.722	21.12
761.901	21.84
762.079	22.28
762.258	22.36
762.437	22.71
762.615	22.71
762.794	22.16
762.972	21.81
763.151	22.11
763.33	22.33
763.508	22.1
763.687	21.51
763.865	21.34
764.044	21.03
764.222	22.1
764.401	20.88
764.579	21.62
764.758	21.62
764.936	21.32
765.114	21.32
765.293	20.78
765.471	20.14
765.65	20.8
765.828	20.22
766.006	21.98
766.184	19.83
766.363	21.13
766.541	20.96
766.719	21.14
766.898	23.02
767.076	23.35
767.254	23.75
767.432	25.23
767.61	24.59
767.788	25.48
767.967	24.79
768.145	25.42
768.323	25.19
768.501	24.18
768.679	23.68
768.857	21.91
769.035	21.26
769.213	19.86
769.391	18.72
769.569	19.99
769.747	19.69
769.925	19.57
770.103	20.16
770.281	18.88
770.459	19.38
770.636	19.55
770.814	20.87
770.992	20.91
771.17	22.4
771.348	22.92
771.525	19.41
771.703	19.73
771.881	20.11
772.059	19.95
772.236	21.42
772.414	21.47
772.592	23.04
772.769	22.69
772.947	23.43
773.125	21.32
773.302	19.58
773.48	23.88
773.657	25.01
773.835	23.72
774.013	24.07
774.19	25.03
774.368	25.68
774.545	27.42
774.723	28.89
774.9	28.38
775.077	30.31
775.255	29.82
775.432	28.8
775.61	28.01
775.787	28.33
775.964	28.94
776.142	26.47
776.319	25.67
776.496	22.92
776.674	20.86
776.851	21.7
777.028	22.01
777.205	24.09
777.382	22.34
777.56	22.43
777.737	23.12
777.914	19.42
778.091	20.07
778.268	21.5
778.445	22.17
778.622	21.21
778.8	21.55
778.977	19.22
779.154	16.65
779.331	17.02
779.508	15.32
779.685	14.72
779.862	18.95
780.038	19.23
780.215	18.64
780.392	17.85
780.569	17.09
780.746	15.31
780.923	18.93
781.1	19.41
781.277	19
781.453	21.41
781.63	22.16
781.807	21.83
781.984	22.01
782.16	20.87
782.337	22.4
782.514	23.69
782.691	25.54
782.867	23.85
783.044	25.7
783.221	27.73
783.397	25.4
783.574	25.02
783.75	26.1
783.927	25.08
784.103	26.04
784.28	23.76
784.456	23.55
784.633	23.88
784.809	22.91
784.986	25.39
785.162	24.75
785.339	23.67
785.515	23.84
785.692	21.96
785.868	25.29
786.044	26.21
786.221	25.81
786.397	26.76
786.573	24.9
786.749	24
786.926	19.82
787.102	20.93
787.278	20.6
787.454	19.68
787.631	18.14
787.807	18.48
787.983	19.6
788.159	20.18
788.335	20.72
788.511	20.96
788.687	22.76
788.863	26.13
789.039	23.61
789.216	24.89
789.392	25.49
789.568	24.75
789.744	24.14
789.919	22.9
790.095	24.7
790.271	22.79
790.447	21.93
790.623	21.93
790.799	18.68
790.975	21.66
791.151	25.1
791.327	25.49
791.502	28.85
791.678	25.44
791.854	24.75
792.03	21.93
792.205	23.01
792.381	26.58
792.557	25.19
792.733	27.94
792.908	26.39
793.084	22.32
793.259	19.62
793.435	20.36
793.611	23.49
793.786	24.53
793.962	25.35
794.137	25.83
794.313	24.45
794.488	25.46
794.664	24.34
794.839	24.17
795.015	25.17
795.19	24.87
795.366	21.75
795.541	19.55
795.716	17.74
795.892	21.35
796.067	19.73
796.242	20.96
796.418	19.64
796.593	18.2
796.768	18.33
796.944	17.88
797.119	21.54
797.294	24.26
797.469	24.92
797.644	22.35
797.82	20.06
797.995	20.7
798.17	19.91
798.345	21.67
798.52	22.42
798.695	23.61
798.87	24.19
799.045	24.88
799.22	23.66
799.395	21.67
799.57	24.98
799.745	25.75
799.92	27.67
800.095	28.34
800.27	28.28
800.445	31.32
800.62	31.94
800.795	31.06
800.97	27.26
801.145	27.03
801.319	26.95
801.494	27.19
801.669	25.91
801.844	25.67
802.018	27.73
802.193	27.61
802.368	25.07
802.543	20.79
802.717	21.89
802.892	27.14
803.067	24.9
803.241	27.82
803.416	29.72
803.59	32.16
803.765	32.18
803.94	29.83
804.114	28.37
804.289	29.85
804.463	31.71
804.638	33.54
804.812	30.64
804.986	33.78
805.161	36.02
805.335	28.62
805.51	24.75
805.684	21.45
805.858	20.6
806.033	19.39
806.207	13.95
806.381	15.78
806.556	14.99
806.73	16.48
806.904	18.69
807.078	20.06
807.253	27.56
807.427	26.34
807.601	26.21
807.775	29.08
807.949	30.01
808.123	35.44
808.298	36.53
808.472	32.03
808.646	30.36
808.82	27.33
808.994	23.86
809.168	21.18
809.342	25.78
809.516	30.53
809.69	27.7
809.864	25.66
810.038	27.19
810.212	26.78
810.385	31.07
810.559	29.35
810.733	26.68
810.907	24.41
811.081	22.58
811.255	22.91
811.428	22.79
811.602	25.96
811.776	27.37
811.95	22.82
812.123	21.51
812.297	18.94
812.471	21.46
812.644	26.55
812.818	24.55
812.992	28.06
813.165	30.51
813.339	25.96
813.512	22.72
813.686	21.83
813.86	18.91
814.033	17.84
814.207	19.05
814.38	15.18
814.554	10.61
814.727	16
814.9	10.93
815.074	-1.18
815.247	0.78
815.421	-3.09
815.594	3.7
815.767	11.55
815.941	13.03
816.114	20.07
816.287	20.57
816.46	20.43
816.634	23.21
816.807	27.82
816.98	29.51
817.153	28.25
817.327	29.52
817.5	31.84
817.673	31.98
817.846	31.99
818.019	25.88
818.192	25.47
818.365	28.74
818.538	28.18
818.711	26.99
818.884	23.03
819.057	21.16
819.23	20.77
819.403	12.96
819.576	11.17
819.749	10.49
819.922	12.19
820.095	15.14
820.268	15.61
820.441	11.75
820.614	12.15
820.786	14.65
820.959	16.94
821.132	17.5
821.305	20.62
821.477	21.13
821.65	22.65
821.823	22.84
821.996	22
822.168	21.64
822.341	22.19
822.514	21.92
822.686	22.95
822.859	22.14
823.031	22.36
823.204	22.25
823.376	22.47
823.549	21
823.722	20.73
823.894	20.91
824.067	21.76
824.239	21.86
824.411	22.29
824.584	21.49
824.756	21.78
824.929	21.17
825.101	21.52
825.273	22.17
825.446	23.92
825.618	24.15
825.79	25.25
825.963	23.9
826.135	23.2
826.307	23.6
826.479	24.25
826.652	26.17
826.824	27.8
826.996	27.13
827.168	25.6
827.34	26.05
827.512	26.85
827.684	27.55
827.856	28.65
828.029	28.61
828.201	27.39
828.373	27.95
828.545	26.33
828.717	25.83
828.889	26.89
829.061	26.63
829.232	25.58
829.404	23.81
829.576	24.33
829.748	24.52
829.92	28.44
830.092	31.06
830.264	31.15
830.436	32.76
830.607	32.35
830.779	33.94
830.951	34.95
831.123	38.38
831.294	39.71
831.466	34.16
831.638	28.9
831.809	26.91
831.981	27.2
832.153	24.13
832.324	28.77
832.496	29.66
832.667	25.94
832.839	25.14
833.011	23.04
833.182	25.84
833.354	30.28
833.525	36.64
833.697	34.11
833.868	30.9
834.039	32.29
834.211	27.64
834.382	29.03
834.554	27.04
834.725	26.66
834.896	22.56
835.068	21.25
835.239	20.8
835.41	19.94
835.581	22.33
835.753	25.06
835.924	24.15
836.095	26.08
836.266	23.09
836.438	26.75
836.609	30.13
836.78	32.06
836.951	29.16
837.122	29.81
837.293	29.03
837.464	25.22
837.635	26.53
837.806	32.6
837.977	32.2
838.148	32.17
838.319	28.96
838.49	31.01
838.661	40.23
838.832	46.02
839.003	49.97
839.174	42.97
839.345	41.57
839.516	41.89
839.687	26.47
839.857	20.7
840.028	23.49
840.199	25.06
840.37	29.55
840.54	27.71
840.711	29.74
840.882	22.79
841.053	31.46
841.223	31.65
841.394	32.3
841.564	43.98
841.735	50.63
841.906	61.8
842.076	69.81
842.247	60.19
842.417	62.4
842.588	65.14
842.758	73.9
842.929	83.5
843.099	84.26
843.27	77.66
843.44	75.51
843.611	74.44
843.781	73.78
843.951	73.48
844.122	80.47
844.292	69.83
844.462	78.07
844.633	80.89
844.803	74.42
844.973	81.65
845.144	92.47
845.314	94.05
845.484	96.69
845.654	106.65
845.824	102.51
845.995	116.99
846.165	118.73
846.335	107.38
846.505	89.5
846.675	89.6
846.845	98.98
847.015	98.17
847.185	125.34
847.355	110.35
847.525	95.12
847.695	96.61
847.865	76.85
848.035	95.84
848.205	114.09
848.375	147.17
848.545	117.62
848.715	70.26
848.884	47.64
849.054	68.75
849.224	67.6
849.394	44.09
849.564	51.15
849.733	69.3
849.903	79.68
850.073	68.39
850.243	53.47
850.412	62.13
850.582	61.84
850.752	73.32
850.921	49.98
851.091	58.97
851.26	47.14
851.43	25.36
851.599	14.23
851.769	14.03
851.939	31.69
852.108	44
852.278	46.11
852.447	39.51
852.616	24.3
852.786	28.29
852.955	17.12
853.125	59.68
853.294	78.3
853.463	67.54
853.633	51.5
853.802	33.55
853.971	47.68
854.141	29.33
854.31	47.89
854.479	57.39
854.648	44.68
854.818	68.3
854.987	61.6
855.156	60.55
855.325	57.5
855.494	64.39
855.663	71.59
855.832	72.09
856.001	84.37
856.171	72.28
856.34	106.15
856.509	129.05
856.678	120.33
856.847	164.73
857.016	83.09
857.185	236.16
857.353	114.79
857.522	80.99
857.691	70.12
857.86	52.69
858.029	60.96
858.198	38.19
858.367	40.09
858.535	29.68
858.704	40.97
858.873	44.66
859.042	31.87
859.21	31.72
859.379	31.84
859.548	29.26
859.717	34.13
859.885	42.62
860.054	39.66
860.222	42.65
860.391	41.63
860.56	31.42
860.728	26.12
860.897	42.17
861.065	47.48
861.234	39.61
861.402	44.69
861.571	37.94
861.739	25.64
861.908	26
862.076	13.13
862.244	-22.67
862.413	37
862.581	57.88
862.749	48.64
862.918	39.44
863.086	46.77
863.254	35.53
863.423	59.33
863.591	101.45
863.759	155.64
863.927	161.95
864.096	110.65
864.264	91.03
864.432	99.43
864.6	127.27
864.768	98.33
864.936	89.64
865.104	59.5
865.272	32.76
865.44	29.07
865.608	-5.88
865.776	-1.82
865.944	12.82
866.112	-1.29
866.28	15.21
866.448	-0.54
866.616	25.2
866.784	50.05
866.952	54.97
867.12	87.4
867.288	78.27
867.455	96.57
867.623	84.17
867.791	112.91
867.959	152.55
868.127	108.18
868.294	78.79
868.462	84.89
868.63	71.06
868.797	87.57
868.965	112.52
869.133	128.03
869.3	103.58
869.468	131.61
869.636	10.49
869.803	48.82
869.971	58.01
870.138	163.65
870.306	113.69
870.473	100.1
870.641	454.89
870.808	123.73
870.975	243.31
871.143	159.37
871.31	-147.2
871.478	505.8
871.645	28.77
871.812	-49.64
871.98	-15.11
872.147	17.2
872.314	5.58
872.482	11.11
872.649	36.83
872.816	49.2
872.983	59.47
873.15	58.52
873.318	60.47
873.485	67.82
873.652	67.14
873.819	76.88
873.986	84.78
874.153	76.18
874.32	83.01
874.487	104.66
874.654	98.97
874.821	107.04
874.988	122.19
875.155	146.62
875.322	133.88
875.489	296.14
875.656	279.25
875.823	327.18
875.99	787.32
876.157	-630.49
876.324	-312.12
876.49	-4436.52
876.657	-725.17
876.824	229.38
876.991	145.07
877.157	217.24
877.324	108.67
877.491	73.31
877.658	94.81
877.824	97.59
877.991	77.28
878.157	74.59
878.324	69.33
878.491	77.37
878.657	95.64
878.824	103.46
878.99	114.31
879.157	128.11
879.323	215.56
879.49	528.78
879.656	2377.91
879.823	-285.51
879.989	1470.43
880.156	-85.3
880.322	-123.93
880.488	496.66
880.655	235.99
880.821	123.2
880.987	85.97
881.154	62.22
881.32	42.18
881.486	37.61
881.652	44.52
881.819	40.92
881.985	42.56
882.151	36.54
882.317	32.62
882.483	32.04
882.649	33.56
882.816	32.64
882.982	30.35
883.148	28.54
883.314	27.36
883.48	27.34
883.646	27.69
883.812	26.89
883.978	25.74
884.144	25.45
884.31	23.73
884.476	19.96
884.642	23.61
884.807	21.56
884.973	23.9
885.139	24.2
885.305	24.11
885.471	26.84
885.637	27.7
885.802	29.45
885.968	30.82
886.134	36.09
886.3	43.13
886.465	40.5
886.631	50.3
886.797	49.28
886.962	51.74
887.128	56.29
887.293	58.83
887.459	57.02
887.625	58.61
887.79	67.44
887.956	68.3
888.121	62.21
888.287	58.24
888.452	50.96
888.618	55.66
888.783	60.67
