Data from 2937815_Reflection_1.txt Node
Date: Wed Jul 15 17:35:48 EDT 2015
User: robert
Spectrometer: USB4E03001
Autoset integration time: false
Trigger mode: 4
Integration Time (sec): 1.000000E-1
Scans to average: 10
Electric dark correction enabled: true
Nonlinearity correction enabled: false
Boxcar width: 5
Stray light correction enabled: false
XAxis mode: Wavelengths
Stop averaging: false
Number of Pixels in Spectrum: 3648
>>>>>Begin Spectral Data<<<<<
177.566	128.98
177.785	100.37
178.005	102.15
178.225	302.76
178.445	-1000.56
178.665	172.7
178.885	97.18
179.105	225.61
179.324	121.25
179.544	-235.62
179.764	1377.05
179.984	22.66
180.204	49.31
180.423	70.09
180.643	53.04
180.863	35.39
181.083	67.04
181.302	45.57
181.522	53.78
181.742	52.67
181.961	79.75
182.181	81.86
182.401	130.9
182.621	150.06
182.84	109.54
183.06	152.57
183.279	163.01
183.499	177.73
183.719	208.67
183.938	152.9
184.158	133.48
184.377	81.33
184.597	58.08
184.816	27.17
185.036	20.45
185.256	56.78
185.475	55.39
185.695	60.42
185.914	26.15
186.134	31.84
186.353	27.08
186.572	36.42
186.792	85.65
187.011	72.84
187.231	68.1
187.45	47.82
187.67	40.45
187.889	31.49
188.108	46.01
188.328	66.65
188.547	87.67
188.766	79.75
188.986	78.26
189.205	11.93
189.424	26.19
189.644	102.43
189.863	109.74
190.082	127.77
190.302	231.26
190.521	235.56
190.74	187.66
190.959	109.57
191.178	636.7
191.398	1.91
191.617	-633.33
191.836	-113.88
192.055	-23.84
192.274	-7.51
192.494	-21.61
192.713	-239.39
192.932	-432.09
193.151	-64.94
193.37	-120.77
193.589	-21433.33
193.808	903.56
194.027	-192.07
194.246	-193.48
194.465	-1898.3
194.685	1010.62
194.904	-425.53
195.123	-34.47
195.342	105.64
195.561	-112.3
195.78	21.3
195.999	-75.29
196.218	61.74
196.436	58.92
196.655	46.8
196.874	68.59
197.093	59.42
197.312	65.69
197.531	67.08
197.75	74.05
197.969	92.97
198.188	80.77
198.407	110.86
198.625	97.68
198.844	177.09
199.063	329.44
199.282	320.34
199.501	612.35
199.719	1889.12
199.938	-883.28
200.157	-334.81
200.376	1412.47
200.594	812.97
200.813	513.52
201.032	524.1
201.251	1074
201.469	-577
201.688	-1729.41
201.907	261.18
202.125	233.33
202.344	3311.69
202.563	-68.26
202.781	9.49
203	5.87
203.218	15.06
203.437	-47.92
203.656	287.83
203.874	263.61
204.093	69.27
204.311	35.76
204.53	315.2
204.748	453
204.967	121.68
205.185	136.4
205.404	143.04
205.622	151.97
205.841	157.88
206.059	402.91
206.278	317.05
206.496	404.97
206.715	455.3
206.933	348.92
207.151	219.4
207.37	397.47
207.588	263.06
207.806	246.88
208.025	299.62
208.243	299.09
208.461	330.01
208.68	273.57
208.898	617.92
209.116	-93.44
209.335	-31.19
209.553	1522.08
209.771	101.79
209.989	36.21
210.208	-127.85
210.426	5.65
210.644	-26.2
210.862	-180.15
211.081	-227.57
211.299	-528.61
211.517	790.83
211.735	5201.72
211.953	1543
212.171	4899.22
212.39	211.54
212.608	105.51
212.826	76.8
213.044	28.7
213.262	26.27
213.48	36
213.698	4.77
213.916	-21.64
214.134	-21.18
214.352	-65.61
214.57	-43.96
214.788	-22.71
215.006	225.72
215.224	-409.44
215.442	804.62
215.66	-670.91
215.878	-475.72
216.096	-568.46
216.314	-1969.03
216.532	472.46
216.75	-2404.83
216.968	544.26
217.185	280.87
217.403	252.8
217.621	136.58
217.839	227.61
218.057	210.19
218.275	173.84
218.492	131.6
218.71	96.05
218.928	94.29
219.146	74.48
219.363	82.44
219.581	46.92
219.799	44.12
220.017	47.01
220.234	-0.86
220.452	-37.46
220.67	5.55
220.887	-37.01
221.105	-39.68
221.323	-41.96
221.54	4.74
221.758	20.66
221.976	35.8
222.193	33.78
222.411	35.16
222.629	50.02
222.846	56.46
223.064	44.43
223.281	48.2
223.499	63.71
223.716	71.08
223.934	66.75
224.151	71.42
224.369	62.73
224.586	53.81
224.804	47.5
225.021	41.43
225.239	20.21
225.456	-2.87
225.674	23.73
225.891	19.26
226.108	4.3
226.326	17.87
226.543	23.1
226.76	17.04
226.978	22.3
227.195	22.15
227.413	24.71
227.63	24.2
227.847	25.31
228.064	18.84
228.282	19.07
228.499	21.78
228.716	13.7
228.934	10.25
229.151	14.02
229.368	12.11
229.585	12.87
229.802	9.84
230.02	9.71
230.237	9.37
230.454	10.7
230.671	10.5
230.888	13.26
231.105	15.96
231.323	19.54
231.54	19.3
231.757	21.5
231.974	19.15
232.191	25.1
232.408	28.86
232.625	39.36
232.842	39.67
233.059	38.89
233.276	33.3
233.493	30.24
233.71	32.44
233.927	25.3
234.144	17.91
234.361	19.93
234.578	20.16
234.795	16.9
235.012	15.78
235.229	11.92
235.446	12.07
235.663	12.93
235.879	16.61
236.096	16
236.313	19.57
236.53	16.9
236.747	17.12
236.964	15.58
237.181	22.4
237.397	23.8
237.614	26.9
237.831	28.25
238.048	28.45
238.264	23.67
238.481	23.44
238.698	18.42
238.915	16.34
239.131	16.26
239.348	13.37
239.565	11.33
239.781	5.3
239.998	6.42
240.215	5.71
240.431	-2.68
240.648	3.6
240.865	6.1
241.081	10.63
241.298	13.53
241.514	15.98
241.731	18.4
241.947	17.83
242.164	19.95
242.38	17.04
242.597	16.48
242.814	18.05
243.03	18.22
243.246	18.37
243.463	16.95
243.679	16.82
243.896	15.82
244.112	13.65
244.329	11.76
244.545	11.02
244.762	10.35
244.978	12.61
245.194	13.4
245.411	11.22
245.627	10.97
245.843	10.95
246.06	12.47
246.276	11.47
246.492	11.91
246.709	12.85
246.925	11.89
247.141	12.81
247.357	12.27
247.574	11.98
247.79	10.91
248.006	10.4
248.222	10.05
248.439	9.23
248.655	8.19
248.871	7.21
249.087	5.58
249.303	6.15
249.519	7.3
249.736	6.87
249.952	5.18
250.168	6.59
250.384	6.88
250.6	7.67
250.816	9.32
251.032	10.92
251.248	10.83
251.464	15.29
251.68	14.8
251.896	11.15
252.112	11.4
252.328	13.3
252.544	12.77
252.76	11.21
252.976	10.64
253.192	11.65
253.408	11.93
253.624	14.28
253.84	10.66
254.056	11.17
254.272	11.13
254.487	7.57
254.703	6.87
254.919	8.01
255.135	7.38
255.351	6.53
255.567	2.23
255.782	2.08
255.998	-1.24
256.214	0.55
256.43	0.85
256.646	3.94
256.861	7.37
257.077	6.8
257.293	7.14
257.508	7.15
257.724	9.91
257.94	9.52
258.155	9.35
258.371	9.46
258.587	9.13
258.802	9.34
259.018	9.34
259.234	9.32
259.449	10.67
259.665	10.31
259.88	11.04
260.096	11.16
260.312	11.32
260.527	11.79
260.743	12.6
260.958	12.62
261.174	11.66
261.389	11.64
261.605	12.07
261.82	10.65
262.036	11.18
262.251	11.62
262.466	11.01
262.682	12.06
262.897	10.39
263.113	8.43
263.328	7.43
263.543	9.39
263.759	8.21
263.974	7.81
264.189	7.8
264.405	6.54
264.62	6.49
264.835	6.71
265.051	5.8
265.266	10.25
265.481	11.76
265.696	15.89
265.912	15.89
266.127	15.57
266.342	13.86
266.557	14.36
266.773	14.47
266.988	13.22
267.203	11.58
267.418	12.18
267.633	8.77
267.848	8.35
268.064	8.12
268.279	6.93
268.494	7.39
268.709	6.62
268.924	6.85
269.139	8.25
269.354	9.08
269.569	10.09
269.784	9.78
269.999	11.46
270.214	11.12
270.429	7.12
270.644	7.66
270.859	7.44
271.074	9.4
271.289	9.51
271.504	8.7
271.719	6.34
271.934	6.78
272.149	6.91
272.363	6.47
272.578	5.57
272.793	6.72
273.008	6.46
273.223	5.94
273.438	5.55
273.653	5.82
273.867	4.13
274.082	5.21
274.297	3.85
274.512	4.4
274.726	4.77
274.941	5.24
275.156	5.69
275.371	6.69
275.585	7.14
275.8	6.19
276.015	5.14
276.229	8.03
276.444	9.35
276.659	10.62
276.873	11.53
277.088	13.21
277.302	12.96
277.517	13.45
277.732	11.85
277.946	11.82
278.161	14.16
278.375	14.39
278.59	13.61
278.804	12.02
279.019	11.87
279.233	9
279.448	6.22
279.662	7.82
279.877	8.75
280.091	9.99
280.306	10.2
280.52	8.79
280.735	8.98
280.949	8.7
281.163	10.31
281.378	10.44
281.592	10.95
281.806	10.69
282.021	9.57
282.235	7.83
282.449	8.35
282.664	9.88
282.878	9.51
283.092	9.64
283.307	7.7
283.521	6.95
283.735	8.38
283.949	7.88
284.164	8.97
284.378	9.82
284.592	10.99
284.806	9.77
285.02	8.14
285.234	8.12
285.449	6.66
285.663	7.99
285.877	8.75
286.091	8.05
286.305	8.08
286.519	8.05
286.733	8.58
286.947	7.51
287.161	7.4
287.375	6.59
287.589	8.17
287.803	8.85
288.017	9.41
288.231	7.88
288.445	6.93
288.659	8.34
288.873	7.92
289.087	7.89
289.301	8.01
289.515	8.89
289.729	9.39
289.943	8.47
290.157	10.1
290.371	10.47
290.584	11.26
290.798	11.01
291.012	10.38
291.226	11.05
291.44	11.03
291.654	12.16
291.867	12.03
292.081	12.96
292.295	12.88
292.509	11.87
292.722	12.24
292.936	11.6
293.15	14.82
293.364	15.92
293.577	16.44
293.791	16.44
294.005	16.19
294.218	16.65
294.432	15.76
294.645	14.84
294.859	14.74
295.073	14.31
295.286	14.97
295.5	12.41
295.713	11.36
295.927	11.78
296.14	11.9
296.354	11.92
296.568	11.09
296.781	10.71
296.994	12.08
297.208	12.41
297.421	13.16
297.635	12.81
297.848	13.87
298.062	14.87
298.275	14.53
298.489	14.03
298.702	13.15
298.915	14.07
299.129	15.94
299.342	16.08
299.555	17.43
299.769	16.73
299.982	17.21
300.195	16.14
300.409	16.24
300.622	15.01
300.835	15.64
301.048	16.5
301.262	15.27
301.475	15.01
301.688	11.95
301.901	9.71
302.115	9.39
302.328	8.2
302.541	6.89
302.754	6.79
302.967	6.94
303.18	5.62
303.393	6.96
303.607	8.6
303.82	7.89
304.033	9.48
304.246	11.06
304.459	11.7
304.672	12.11
304.885	14.18
305.098	12.88
305.311	12.39
305.524	12.4
305.737	11.2
305.95	10.48
306.163	9.59
306.376	10.69
306.589	9.91
306.802	8.71
307.015	10.56
307.228	9.87
307.44	10.75
307.653	10.47
307.866	11.85
308.079	11.54
308.292	9.51
308.505	10.86
308.718	10.39
308.93	9.28
309.143	9.14
309.356	8.34
309.569	7.82
309.781	6.99
309.994	6.99
310.207	7.27
310.42	7.58
310.632	9.63
310.845	9.79
311.058	9.62
311.27	10.59
311.483	11.51
311.696	11.97
311.908	12.12
312.121	12
312.333	12.68
312.546	11.13
312.759	11.53
312.971	11.58
313.184	10.87
313.396	9.84
313.609	8.84
313.821	8
314.034	7.97
314.246	9.58
314.459	10.19
314.671	9.71
314.884	10
315.096	9.09
315.309	9.43
315.521	9.81
315.733	11.89
315.946	12.3
316.158	13.64
316.371	12.77
316.583	10.34
316.795	9.7
317.008	11.74
317.22	13.62
317.432	14.14
317.644	13.81
317.857	13.86
318.069	13.35
318.281	14.05
318.494	12.26
318.706	12.66
318.918	14.4
319.13	14.23
319.342	11.91
319.555	12.52
319.767	11.72
319.979	12.01
320.191	9.69
320.403	10.55
320.615	8.74
320.827	9.61
321.039	8.7
321.252	7.03
321.464	8.23
321.676	11.14
321.888	8.53
322.1	9.96
322.312	8.29
322.524	9.58
322.736	8.83
322.948	9.5
323.16	8.89
323.372	9.1
323.584	8.56
323.796	7.22
324.007	5.44
324.219	6.73
324.431	5.51
324.643	7.44
324.855	6.5
325.067	5.13
325.279	5.06
325.491	4.85
325.702	5.29
325.914	7.56
326.126	8.4
326.338	8.35
326.55	7.29
326.761	7.62
326.973	5.47
327.185	7.69
327.396	8.27
327.608	8.79
327.82	9.76
328.032	10.52
328.243	8.95
328.455	8.66
328.666	7.58
328.878	8.77
329.09	8.94
329.301	9.97
329.513	9.33
329.725	9.42
329.936	9.47
330.148	8.85
330.359	9.26
330.571	10.62
330.782	11.49
330.994	11.55
331.205	11.01
331.417	11.85
331.628	11.59
331.84	11.55
332.051	12.11
332.262	12.98
332.474	11.39
332.685	9.21
332.897	7.95
333.108	7.18
333.319	7.98
333.531	7.93
333.742	6.39
333.953	5.32
334.165	6.72
334.376	6.47
334.587	5.76
334.799	7.67
335.01	8.91
335.221	9.84
335.432	7.75
335.644	8.32
335.855	9.1
336.066	9.44
336.277	10.95
336.488	9.92
336.7	10.8
336.911	11.71
337.122	11.22
337.333	11.45
337.544	11.36
337.755	12.62
337.966	12.53
338.177	10.73
338.388	10.84
338.599	10.31
338.811	9.87
339.022	8.3
339.233	6.23
339.444	6.14
339.655	6.56
339.866	6.19
340.076	6
340.287	5.92
340.498	7.84
340.709	8.1
340.92	8
341.131	8.12
341.342	7.83
341.553	10.15
341.764	10.21
341.975	8.56
342.185	8.46
342.396	9.16
342.607	9.3
342.818	9.15
343.029	9.64
343.239	9.44
343.45	10
343.661	11.01
343.872	8.72
344.082	9.06
344.293	10.12
344.504	11.44
344.714	11.82
344.925	11.72
345.136	10.34
345.346	8.86
345.557	9.17
345.768	8
345.978	7.69
346.189	8.42
346.399	7.66
346.61	7.97
346.821	6.41
347.031	5.48
347.242	4.83
347.452	5.77
347.663	6.54
347.873	6.63
348.084	7.89
348.294	8.57
348.504	8.69
348.715	10.23
348.925	8.19
349.136	9.59
349.346	9.03
349.557	9.29
349.767	9.63
349.977	9.08
350.188	8.1
350.398	7.89
350.608	6.75
350.819	6.76
351.029	7.05
351.239	8.35
351.449	8.12
351.66	8.32
351.87	8.56
352.08	7.94
352.29	8.87
352.501	9.92
352.711	9.6
352.921	10.12
353.131	9.94
353.341	9.16
353.552	9.03
353.762	7.15
353.972	7.93
354.182	8
354.392	7.77
354.602	7.1
354.812	6.67
355.022	5.33
355.232	4.9
355.442	4.26
355.652	5.36
355.862	5.32
356.072	5.87
356.282	5.99
356.492	5.77
356.702	6.73
356.912	6.58
357.122	7.77
357.332	9.73
357.542	10.1
357.752	10.44
357.962	7.46
358.171	7.33
358.381	8.65
358.591	8.41
358.801	8.57
359.011	8.51
359.221	8.84
359.43	8.32
359.64	7.7
359.85	7.5
360.06	8.52
360.269	9.31
360.479	9.71
360.689	8.26
360.899	7.9
361.108	8.09
361.318	8.2
361.528	8.32
361.737	8.87
361.947	8.07
362.156	7.97
362.366	8.1
362.576	8.62
362.785	8.05
362.995	8.62
363.204	8.94
363.414	9.46
363.623	9.06
363.833	9.47
364.042	8.05
364.252	9.06
364.461	8.79
364.671	8.62
364.88	8.88
365.09	9.96
365.299	10.09
365.509	10.36
365.718	9.72
365.927	10.02
366.137	9.78
366.346	10.12
366.555	10.48
366.765	11.72
366.974	10.44
367.183	10.69
367.393	10.26
367.602	10.37
367.811	10.09
368.021	9.08
368.23	9.12
368.439	7.36
368.648	6.8
368.857	5.82
369.067	4.37
369.276	4.66
369.485	4.94
369.694	4.9
369.903	4.67
370.112	5.34
370.321	5.47
370.531	5.76
370.74	7.11
370.949	7.48
371.158	7.32
371.367	7.01
371.576	8.06
371.785	7.34
371.994	6.78
372.203	6.31
372.412	5.43
372.621	6.18
372.83	4.64
373.039	4.58
373.248	4.14
373.457	4.48
373.666	4.87
373.874	4.27
374.083	4.6
374.292	5.19
374.501	6.17
374.71	6.63
374.919	6.45
375.128	7.19
375.336	7.43
375.545	7.96
375.754	7.52
375.963	7.47
376.171	7.13
376.38	5.85
376.589	5.86
376.798	4.79
377.006	4.3
377.215	4.58
377.424	4.33
377.632	4.44
377.841	4.63
378.05	4.42
378.258	5.06
378.467	5.06
378.675	6
378.884	6.06
379.093	6.35
379.301	6.29
379.51	5.9
379.718	6.72
379.927	6.57
380.135	6.47
380.344	7.07
380.552	6.8
380.761	6.9
380.969	6.63
381.177	6.44
381.386	6.29
381.594	6.99
381.803	7.16
382.011	6.55
382.219	6.09
382.428	5.71
382.636	5.78
382.845	5.48
383.053	5.63
383.261	5.83
383.469	6
383.678	6.1
383.886	5.51
384.094	5.02
384.302	4.77
384.511	4.62
384.719	4.78
384.927	4.62
385.135	4.62
385.343	4.23
385.552	4.32
385.76	3.84
385.968	3.9
386.176	4
386.384	4.39
386.592	4.24
386.8	4.73
387.008	4.17
387.216	4.02
387.424	3.93
387.633	3.98
387.841	3.41
388.049	3.91
388.257	3.63
388.465	3.86
388.672	4.09
388.88	4.01
389.088	3.42
389.296	3.73
389.504	4
389.712	4.24
389.92	4.33
390.128	4.58
390.336	4.16
390.544	4.47
390.751	4.31
390.959	3.73
391.167	4.01
391.375	4.54
391.583	4.69
391.79	4.35
391.998	4.36
392.206	4.28
392.414	4.15
392.621	4.08
392.829	3.93
393.037	3.86
393.244	4.29
393.452	4.2
393.66	4.09
393.867	3.98
394.075	3.85
394.283	3.6
394.49	3.42
394.698	4.09
394.905	4.37
395.113	4.08
395.32	4.27
395.528	4.01
395.735	3.97
395.943	3.95
396.15	3.75
396.358	4.05
396.565	4.14
396.773	4.38
396.98	3.83
397.188	3.36
397.395	3.6
397.602	3.26
397.81	3.37
398.017	3.83
398.225	3.78
398.432	3.8
398.639	3.78
398.847	3.93
399.054	3.73
399.261	3.45
399.468	3.7
399.676	3.96
399.883	3.82
400.09	3.75
400.297	3.86
400.505	4.11
400.712	4.27
400.919	4.49
401.126	4.19
401.333	4.43
401.54	4.6
401.748	4.44
401.955	4.28
402.162	4.53
402.369	4.7
402.576	3.89
402.783	3.62
402.99	3.78
403.197	3.31
403.404	3.3
403.611	3.5
403.818	3.53
404.025	3.62
404.232	3.58
404.439	3.64
404.646	3.48
404.853	4.08
405.06	4.4
405.267	4.42
405.474	4.76
405.681	4.89
405.887	4.4
406.094	4.51
406.301	3.99
406.508	4.05
406.715	4.21
406.922	4.58
407.128	4.3
407.335	3.61
407.542	3.63
407.749	3.78
407.955	3.89
408.162	4.2
408.369	4.19
408.575	4.76
408.782	4.61
408.989	4.04
409.195	3.59
409.402	3.36
409.609	3.73
409.815	3.32
410.022	2.9
410.228	2.92
410.435	2.99
410.642	2.99
410.848	2.86
411.055	2.81
411.261	3.14
411.468	3.25
411.674	3.79
411.881	3.5
412.087	3.42
412.294	3.41
412.5	3.24
412.706	3.01
412.913	2.59
413.119	2.91
413.326	3.06
413.532	3.05
413.738	2.88
413.945	2.36
414.151	2.55
414.357	2.88
414.564	3.17
414.77	3.44
414.976	3.26
415.182	3.47
415.389	3.4
415.595	3.34
415.801	3.27
416.007	3.35
416.214	3.48
416.42	3.55
416.626	3.38
416.832	3.36
417.038	2.93
417.244	3.34
417.45	3.43
417.657	3.45
417.863	3.52
418.069	3.69
418.275	3.97
418.481	3.83
418.687	3.81
418.893	3.94
419.099	3.98
419.305	4.16
419.511	3.99
419.717	4.01
419.923	3.87
420.129	3.91
420.335	3.96
420.541	3.84
420.746	3.93
420.952	3.94
421.158	3.97
421.364	4.05
421.57	4.17
421.776	4.27
421.982	4.32
422.187	4.52
422.393	4.45
422.599	4.3
422.805	4.26
423.01	4.36
423.216	4.36
423.422	4.34
423.628	4.25
423.833	4.25
424.039	4.37
424.245	4.28
424.45	4.06
424.656	4.04
424.862	4.03
425.067	3.96
425.273	3.86
425.478	3.82
425.684	3.77
425.889	3.74
426.095	3.69
426.301	3.5
426.506	3.44
426.712	3.53
426.917	3.49
427.123	3.49
427.328	3.51
427.533	3.46
427.739	3.59
427.944	3.76
428.15	3.64
428.355	3.53
428.561	3.49
428.766	3.73
428.971	3.65
429.177	3.93
429.382	3.89
429.587	3.79
429.793	3.86
429.998	4.03
430.203	3.71
430.408	3.77
430.614	3.86
430.819	3.74
431.024	3.69
431.229	3.8
431.434	3.78
431.64	3.83
431.845	3.95
432.05	4.05
432.255	3.84
432.46	3.96
432.665	3.88
432.87	3.85
433.076	3.86
433.281	3.78
433.486	3.8
433.691	3.61
433.896	3.73
434.101	3.81
434.306	3.66
434.511	3.53
434.716	3.49
434.921	3.51
435.126	3.53
435.331	3.5
435.535	3.61
435.74	3.48
435.945	3.4
436.15	3.27
436.355	3.2
436.56	3.32
436.765	3.44
436.97	3.59
437.174	3.75
437.379	3.64
437.584	3.78
437.789	3.4
437.993	3.58
438.198	3.7
438.403	3.77
438.608	3.61
438.812	3.56
439.017	3.55
439.222	3.57
439.426	3.49
439.631	3.39
439.836	3.33
440.04	3.59
440.245	3.79
440.45	3.81
440.654	3.67
440.859	3.64
441.063	3.66
441.268	3.64
441.472	3.4
441.677	3.29
441.881	3.37
442.086	3.4
442.29	3.18
442.495	2.9
442.699	2.83
442.904	3
443.108	3.17
443.312	3.11
443.517	3.18
443.721	3.11
443.925	3.35
444.13	3.39
444.334	3.27
444.538	3.51
444.743	3.47
444.947	3.53
445.151	3.54
445.356	3.51
445.56	3.49
445.764	3.57
445.968	3.83
446.173	3.7
446.377	3.7
446.581	3.8
446.785	3.78
446.989	3.75
447.193	3.69
447.398	3.74
447.602	3.79
447.806	3.76
448.01	3.61
448.214	3.52
448.418	3.55
448.622	3.61
448.826	3.53
449.03	3.46
449.234	3.47
449.438	3.29
449.642	3.01
449.846	2.96
450.05	3.03
450.254	3.07
450.458	3.12
450.662	3.04
450.866	2.97
451.069	2.92
451.273	2.83
451.477	3.13
451.681	3.41
451.885	3.52
452.089	3.48
452.292	3.46
452.496	3.31
452.7	3.24
452.904	3.32
453.107	3.32
453.311	3.4
453.515	3.37
453.719	3.18
453.922	3.04
454.126	2.91
454.33	2.8
454.533	2.63
454.737	2.78
454.94	2.9
455.144	3.1
455.348	2.97
455.551	2.98
455.755	3.12
455.958	3.23
456.162	3.25
456.365	3.42
456.569	3.55
456.772	3.8
456.976	3.76
457.179	3.83
457.383	3.87
457.586	3.93
457.79	3.91
457.993	3.92
458.196	3.82
458.4	4
458.603	3.92
458.807	3.78
459.01	3.88
459.213	3.85
459.417	3.58
459.62	3.49
459.823	3.49
460.026	3.49
460.23	3.41
460.433	3.41
460.636	3.2
460.839	3.13
461.042	3.09
461.246	2.89
461.449	2.69
461.652	2.74
461.855	2.7
462.058	2.64
462.261	2.61
462.464	2.57
462.668	2.52
462.871	2.6
463.074	2.64
463.277	3.07
463.48	3
463.683	3.14
463.886	3.24
464.089	2.96
464.292	3.01
464.495	2.84
464.698	3.03
464.901	3.05
465.104	3.13
465.306	3.04
465.509	2.69
465.712	2.72
465.915	2.95
466.118	2.89
466.321	3
466.524	2.84
466.726	2.9
466.929	2.72
467.132	2.73
467.335	2.72
467.538	2.99
467.74	3.08
467.943	3.05
468.146	2.87
468.348	2.77
468.551	2.84
468.754	3.16
468.956	3.07
469.159	3.28
469.362	3.33
469.564	3.17
469.767	2.98
469.969	3.14
470.172	3.06
470.375	2.99
470.577	3.14
470.78	3.1
470.982	2.88
471.185	2.93
471.387	2.69
471.59	2.81
471.792	2.93
471.995	2.89
472.197	2.59
472.399	2.88
472.602	3.08
472.804	2.94
473.007	2.88
473.209	2.78
473.411	3.01
473.614	3.16
473.816	2.81
474.018	2.94
474.22	3.04
474.423	3.16
474.625	3.16
474.827	3.03
475.03	3.3
475.232	3.51
475.434	3.63
475.636	3.58
475.838	3.55
476.04	3.6
476.243	3.37
476.445	3.41
476.647	3.26
476.849	3.16
477.051	3.04
477.253	2.7
477.455	2.48
477.657	2.35
477.859	2.22
478.061	2.19
478.263	2.19
478.465	2.28
478.667	2.17
478.869	2.2
479.071	2.3
479.273	2.47
479.475	2.78
479.677	2.87
479.879	3.05
480.081	3.16
480.283	3.01
480.485	3.11
480.686	3.24
480.888	3.45
481.09	3.54
481.292	3.43
481.494	3.32
481.695	3.24
481.897	3.22
482.099	3.24
482.301	3.31
482.502	3.45
482.704	3.4
482.906	3.39
483.107	3.32
483.309	3.31
483.511	3.36
483.712	3.47
483.914	3.45
484.115	3.44
484.317	3.43
484.519	3.38
484.72	3.36
484.922	3.36
485.123	3.24
485.325	3.26
485.526	3.29
485.728	3.28
485.929	3.27
486.131	3.28
486.332	3.38
486.534	3.33
486.735	3.35
486.936	3.4
487.138	3.42
487.339	3.6
487.541	3.48
487.742	3.43
487.943	3.47
488.144	3.41
488.346	3.43
488.547	3.29
488.748	3.33
488.95	3.32
489.151	3.23
489.352	3.22
489.553	3.12
489.755	3.21
489.956	3.28
490.157	3.16
490.358	3.12
490.559	3.13
490.76	3.23
490.961	3.26
491.163	3.23
491.364	3.24
491.565	3.26
491.766	3.27
491.967	3.26
492.168	3.24
492.369	3.19
492.57	3.11
492.771	3.04
492.972	2.99
493.173	3.08
493.374	3.09
493.575	3.11
493.776	3.06
493.976	2.97
494.177	2.97
494.378	2.91
494.579	2.97
494.78	3.21
494.981	3.3
495.182	3.32
495.382	3.13
495.583	3.21
495.784	3.31
495.985	3.4
496.185	3.55
496.386	3.45
496.587	3.5
496.788	3.78
496.988	3.86
497.189	3.9
497.39	3.92
497.59	3.92
497.791	3.98
497.992	3.75
498.192	3.67
498.393	3.63
498.593	3.65
498.794	3.62
498.994	3.44
499.195	3.34
499.395	3.3
499.596	3.41
499.796	3.31
499.997	3.14
500.197	3.28
500.398	3.45
500.598	3.28
500.799	3.23
500.999	3.2
501.199	3.26
501.4	3.23
501.6	3.23
501.801	3.19
502.001	3.3
502.201	3.43
502.402	3.38
502.602	3.22
502.802	3.37
503.002	3.54
503.203	3.63
503.403	3.61
503.603	3.45
503.803	3.38
504.003	3.36
504.204	3.29
504.404	3.14
504.604	3.3
504.804	3.24
505.004	3.24
505.204	3.25
505.404	3.19
505.604	3.13
505.804	3.25
506.005	3.27
506.205	3.25
506.405	3.42
506.605	3.51
506.805	3.6
507.005	3.59
507.204	3.7
507.404	3.62
507.604	3.76
507.804	3.89
508.004	3.88
508.204	3.78
508.404	3.86
508.604	3.69
508.804	3.84
509.003	3.69
509.203	3.85
509.403	3.78
509.603	3.93
509.803	3.71
510.002	3.69
510.202	3.72
510.402	3.74
510.602	3.64
510.801	3.74
511.001	3.5
511.201	3.52
511.4	3.4
511.6	3.37
511.8	3.37
511.999	3.56
512.199	3.53
512.398	3.37
512.598	3.55
512.797	3.54
512.997	3.45
513.197	3.55
513.396	3.61
513.596	3.62
513.795	3.65
513.994	3.59
514.194	3.49
514.393	3.55
514.593	3.65
514.792	3.52
514.992	3.61
515.191	3.8
515.39	3.82
515.59	3.69
515.789	3.74
515.988	3.72
516.188	3.81
516.387	3.74
516.586	3.67
516.786	3.78
516.985	3.93
517.184	4
517.383	3.9
517.582	3.91
517.782	4.02
517.981	4.13
518.18	4.11
518.379	4.12
518.578	4.24
518.777	4.25
518.976	4.25
519.176	4.19
519.375	4.23
519.574	4.13
519.773	4.2
519.972	4.2
520.171	4.03
520.37	4.18
520.569	4.01
520.768	3.91
520.967	4
521.166	3.99
521.365	3.81
521.564	3.75
521.762	3.83
521.961	3.7
522.16	3.69
522.359	3.86
522.558	3.79
522.757	3.95
522.956	4.08
523.154	3.99
523.353	4.19
523.552	4.33
523.751	4.31
523.949	4.44
524.148	4.58
524.347	4.59
524.546	4.6
524.744	4.5
524.943	4.5
525.142	4.58
525.34	4.64
525.539	4.55
525.737	4.54
525.936	4.55
526.135	4.53
526.333	4.51
526.532	4.53
526.73	4.53
526.929	4.72
527.127	4.66
527.326	4.59
527.524	4.51
527.723	4.58
527.921	4.73
528.12	4.67
528.318	4.74
528.516	4.76
528.715	4.82
528.913	4.84
529.112	4.79
529.31	4.91
529.508	4.96
529.707	5.05
529.905	5.02
530.103	5.01
530.301	5.05
530.5	5.03
530.698	5.08
530.896	4.96
531.094	5.03
531.293	5.02
531.491	4.94
531.689	4.99
531.887	5.05
532.085	5.09
532.283	5.08
532.481	5.23
532.68	5.28
532.878	5.35
533.076	5.41
533.274	5.47
533.472	5.53
533.67	5.53
533.868	5.46
534.066	5.43
534.264	5.44
534.462	5.49
534.66	5.43
534.858	5.4
535.056	5.36
535.253	5.51
535.451	5.31
535.649	5.34
535.847	5.43
536.045	5.56
536.243	5.59
536.441	5.59
536.638	5.57
536.836	5.65
537.034	5.72
537.232	5.7
537.43	5.77
537.627	5.84
537.825	5.87
538.023	5.87
538.22	5.94
538.418	6.03
538.616	6.06
538.813	6.1
539.011	6.1
539.209	6.1
539.406	6.21
539.604	6.04
539.801	6.26
539.999	6.17
540.196	6.15
540.394	6.18
540.591	6.18
540.789	6.34
540.986	6.42
541.184	6.44
541.381	6.45
541.579	6.45
541.776	6.57
541.974	6.53
542.171	6.63
542.368	6.74
542.566	6.81
542.763	6.71
542.96	6.56
543.158	6.47
543.355	6.54
543.552	6.58
543.75	6.65
543.947	6.62
544.144	6.62
544.341	6.58
544.539	6.52
544.736	6.41
544.933	6.66
545.13	6.97
545.327	7.11
545.524	7.09
545.722	7.2
545.919	7.33
546.116	7.39
546.313	7.39
546.51	7.5
546.707	7.53
546.904	7.52
547.101	7.47
547.298	7.38
547.495	7.28
547.692	7.32
547.889	7.21
548.086	7.17
548.283	7.23
548.48	7.4
548.677	7.36
548.874	7.39
549.07	7.39
549.267	7.38
549.464	7.49
549.661	7.7
549.858	7.92
550.055	8.08
550.251	7.8
550.448	7.72
550.645	7.67
550.842	7.72
551.038	7.89
551.235	8.11
551.432	8.33
551.628	8
551.825	8.03
552.022	7.97
552.218	7.88
552.415	8.06
552.612	8.04
552.808	8.14
553.005	8.15
553.201	8.03
553.398	8.06
553.594	8
553.791	8.28
553.987	8.45
554.184	8.43
554.38	8.59
554.577	8.72
554.773	8.88
554.97	8.78
555.166	8.91
555.362	8.92
555.559	8.99
555.755	8.98
555.952	9.05
556.148	8.85
556.344	9.01
556.541	9.04
556.737	9.13
556.933	9.17
557.129	9.23
557.326	9.41
557.522	9.54
557.718	9.77
557.914	9.96
558.11	10.27
558.307	10.55
558.503	10.34
558.699	10.43
558.895	10.46
559.091	10.63
559.287	10.77
559.483	10.82
559.679	10.88
559.876	10.52
560.072	10.43
560.268	10.15
560.464	10.24
560.66	10.75
560.856	10.89
561.052	10.95
561.247	10.77
561.443	10.6
561.639	10.33
561.835	10.58
562.031	10.7
562.227	10.79
562.423	11
562.619	11.11
562.815	10.97
563.01	10.96
563.206	10.87
563.402	11.09
563.598	11.18
563.793	11.38
563.989	11.22
564.185	11.3
564.381	11.39
564.576	11.34
564.772	11.23
564.968	11.31
565.163	11.32
565.359	11.25
565.555	11.17
565.75	11.41
565.946	11.47
566.141	11.58
566.337	11.57
566.532	11.49
566.728	11.46
566.923	11.54
567.119	11.54
567.314	11.57
567.51	11.74
567.705	12.02
567.901	11.92
568.096	12.09
568.292	11.94
568.487	12
568.682	12.12
568.878	12.36
569.073	12.31
569.268	12.4
569.464	12.33
569.659	12.4
569.854	12.26
570.05	12.38
570.245	12.27
570.44	12.53
570.635	12.56
570.831	12.48
571.026	12.36
571.221	12.5
571.416	12.4
571.611	12.44
571.806	12.5
572.002	12.57
572.197	12.69
572.392	12.68
572.587	12.78
572.782	12.94
572.977	13.04
573.172	13.04
573.367	12.85
573.562	12.92
573.757	12.98
573.952	13.14
574.147	13.2
574.342	13.11
574.537	13.2
574.732	13.18
574.927	12.99
575.121	13.18
575.316	13.24
575.511	13.45
575.706	13.58
575.901	13.43
576.096	13.31
576.29	13.21
576.485	13.32
576.68	13.4
576.875	13.5
577.069	13.78
577.264	13.72
577.459	13.56
577.654	13.74
577.848	13.76
578.043	14.1
578.238	14.27
578.432	14.25
578.627	14.38
578.821	14.41
579.016	14.35
579.21	14.2
579.405	14.23
579.6	14.69
579.794	14.41
579.989	14.26
580.183	14.26
580.378	14.15
580.572	14.43
580.766	14.11
580.961	14.09
581.155	13.94
581.35	14.26
581.544	14.35
581.738	14.2
581.933	14.35
582.127	14.31
582.321	14.19
582.516	14.15
582.71	13.84
582.904	13.95
583.099	13.67
583.293	13.97
583.487	13.61
583.681	13.35
583.875	13.59
584.07	13.52
584.264	13.77
584.458	13.99
584.652	14.19
584.846	14.67
585.04	14.81
585.234	15.23
585.428	14.85
585.623	15.09
585.817	15.13
586.011	15.01
586.205	15
586.399	14.64
586.593	14.65
586.787	14.52
586.981	14.26
587.174	14.3
587.368	14.14
587.562	14.71
587.756	14.81
587.95	14.97
588.144	14.97
588.338	14.99
588.532	15.17
588.725	15.21
588.919	15.27
589.113	15.51
589.307	15.73
589.501	15.78
589.694	15.59
589.888	15.6
590.082	15.96
590.275	15.84
590.469	15.89
590.663	15.86
590.856	15.77
591.05	15.77
591.244	15.51
591.437	15.53
591.631	15.49
591.824	15.39
592.018	15.23
592.212	14.96
592.405	15.08
592.599	15.32
592.792	15.74
592.986	15.88
593.179	15.8
593.372	15.83
593.566	15.58
593.759	15.92
593.953	16.12
594.146	16.19
594.339	16.19
594.533	16.09
594.726	15.98
594.92	15.97
595.113	15.92
595.306	16.02
595.499	16.16
595.693	16.29
595.886	15.96
596.079	15.96
596.272	16.1
596.466	16.05
596.659	16.2
596.852	16.39
597.045	16.03
597.238	15.86
597.431	15.89
597.624	15.93
597.818	16.02
598.011	16.21
598.204	16.27
598.397	16.23
598.59	16.44
598.783	16.7
598.976	16.56
599.169	16.55
599.362	16.7
599.555	16.53
599.748	16.25
599.941	16.06
600.134	15.99
600.326	16.05
600.519	16.35
600.712	16.17
600.905	15.89
601.098	15.71
601.291	15.98
601.483	15.86
601.676	15.76
601.869	15.94
602.062	16
602.255	15.98
602.447	16.12
602.64	15.69
602.833	15.79
603.025	15.76
603.218	16.16
603.411	16.38
603.603	16.5
603.796	16.82
603.989	16.91
604.181	16.91
604.374	16.83
604.566	16.63
604.759	16.85
604.951	16.81
605.144	17
605.336	16.93
605.529	17.02
605.721	17.05
605.914	16.9
606.106	16.87
606.299	17.05
606.491	17.28
606.683	17.17
606.876	17.21
607.068	17.4
607.26	17.43
607.453	17.36
607.645	16.99
607.837	17.09
608.03	16.92
608.222	16.93
608.414	16.79
608.606	16.65
608.799	16.81
608.991	16.71
609.183	16.71
609.375	16.48
609.567	16.32
609.759	16.37
609.952	16.35
610.144	16.66
610.336	16.63
610.528	16.68
610.72	16.79
610.912	16.52
611.104	16.34
611.296	16.09
611.488	15.91
611.68	16.18
611.872	16.09
612.064	16.11
612.256	15.91
612.448	16.06
612.64	15.99
612.832	15.68
613.023	16.1
613.215	16.28
613.407	16.53
613.599	17.02
613.791	16.63
613.983	17.05
614.174	17.17
614.366	17.23
614.558	17.31
614.75	17.16
614.941	17.25
615.133	17.04
615.325	16.77
615.516	16.38
615.708	16.32
615.9	16.53
616.091	16.45
616.283	16.03
616.475	15.75
616.666	15.72
616.858	15.86
617.049	16.36
617.241	16.7
617.432	16.93
617.624	17.31
617.815	17.08
618.007	17.08
618.198	17.26
618.39	17.51
618.581	17.81
618.773	17.62
618.964	17.76
619.155	17.53
619.347	17.21
619.538	17.29
619.729	17.16
619.921	17.2
620.112	17.1
620.303	16.7
620.494	16.73
620.686	16.97
620.877	17.04
621.068	16.87
621.259	16.57
621.451	16.44
621.642	16.44
621.833	16.49
622.024	16.37
622.215	16.32
622.406	16.05
622.597	16.04
622.788	15.69
622.98	15.56
623.171	15.43
623.362	15.5
623.553	15.64
623.744	15.65
623.935	15.77
624.126	15.98
624.317	16.02
624.508	16.44
624.698	16.5
624.889	17.13
625.08	17.29
625.271	17.53
625.462	18.02
625.653	18.17
625.844	18
626.034	17.98
626.225	18.1
626.416	18.15
626.607	18.04
626.798	17.99
626.988	17.96
627.179	18.03
627.37	18.09
627.56	17.94
627.751	17.87
627.942	18.1
628.132	17.95
628.323	17.8
628.514	17.72
628.704	17.92
628.895	18.07
629.085	17.67
629.276	17.47
629.466	17.69
629.657	17.98
629.847	17.97
630.038	17.8
630.228	17.92
630.419	18.08
630.609	18.6
630.8	18.35
630.99	18.3
631.181	18.55
631.371	18.64
631.561	18.13
631.752	17.95
631.942	18.15
632.132	18.52
632.323	18.76
632.513	18.36
632.703	17.84
632.893	17.96
633.084	17.74
633.274	17.59
633.464	17.94
633.654	18.05
633.844	18
634.034	18.02
634.225	17.9
634.415	17.64
634.605	18.08
634.795	18.19
634.985	18.3
635.175	18.31
635.365	18.32
635.555	17.82
635.745	17.99
635.935	17.97
636.125	17.57
636.315	17.41
636.505	17.3
636.695	17.06
636.885	17.08
637.075	17.07
637.265	17.02
637.455	16.84
637.644	17.29
637.834	17.28
638.024	17.14
638.214	16.93
638.404	16.94
638.593	16.95
638.783	17.14
638.973	17.09
639.163	17.01
639.352	17.63
639.542	18.04
639.732	18.04
639.921	17.91
640.111	17.68
640.301	17.81
640.49	17.68
640.68	17.78
640.87	17.37
641.059	17.49
641.249	17.7
641.438	17.18
641.628	17.17
641.817	17.48
642.007	17.41
642.196	17.41
642.386	17.85
642.575	18.08
642.764	17.87
642.954	18.29
643.143	18.17
643.333	17.71
643.522	18.16
643.711	18.15
643.901	17.7
644.09	17.85
644.279	18.11
644.469	17.85
644.658	17.57
644.847	17.91
645.036	17.84
645.226	18.13
645.415	18.51
645.604	18.01
645.793	17.97
645.982	17.86
646.171	17.89
646.361	18.3
646.55	18.25
646.739	18.41
646.928	18.34
647.117	18.25
647.306	18.09
647.495	18.05
647.684	18.08
647.873	18.34
648.062	18.34
648.251	18.2
648.44	17.89
648.629	18.15
648.818	18.53
649.007	18.65
649.196	18.65
649.384	18.67
649.573	18.52
649.762	19.07
649.951	19.08
650.14	19.89
650.328	19.97
650.517	20.04
650.706	20.07
650.895	19.52
651.083	19.58
651.272	19.49
651.461	19.96
651.65	20.29
651.838	20.17
652.027	19.92
652.216	19.15
652.404	19.27
652.593	19.49
652.781	19.26
652.97	19.78
653.158	19.33
653.347	19.78
653.535	19.32
653.724	19.36
653.912	19.22
654.101	19.01
654.289	19.41
654.478	19.47
654.666	19.19
654.855	19.28
655.043	19.05
655.231	19.07
655.42	18.7
655.608	18.7
655.796	18.03
655.985	18.13
656.173	18.6
656.361	18.22
656.55	18.09
656.738	18.11
656.926	18.07
657.114	18.7
657.302	19.27
657.491	19.84
657.679	19.98
657.867	20.69
658.055	20.46
658.243	20.36
658.431	20.28
658.619	20.73
658.807	20.8
658.996	21.1
659.184	20.59
659.372	20.51
659.56	20.13
659.748	20.23
659.936	19.79
660.124	20.09
660.311	20.2
660.499	20.19
660.687	19.75
660.875	19.71
661.063	19.28
661.251	19.22
661.439	19.38
661.627	19.48
661.814	18.82
662.002	19.37
662.19	18.92
662.378	18.68
662.565	18.78
662.753	18.62
662.941	18.32
663.129	18.49
663.316	18.92
663.504	18.7
663.692	18.8
663.879	19.28
664.067	18.82
664.254	19.32
664.442	19.7
664.63	19.54
664.817	19.52
665.005	19.95
665.192	19.88
665.38	19.44
665.567	19.56
665.755	19.08
665.942	18.81
666.13	19.02
666.317	19
666.504	18.75
666.692	19.27
666.879	19.8
667.067	19.48
667.254	19.74
667.441	20.21
667.629	19.42
667.816	19.42
668.003	20.14
668.19	20.4
668.378	20.23
668.565	20
668.752	19.74
668.939	19.64
669.127	19.48
669.314	19.38
669.501	19.06
669.688	19.31
669.875	19.76
670.062	19.56
670.249	19.51
670.436	19.6
670.623	19.93
670.81	19.81
670.997	19.66
671.184	20.18
671.371	20.3
671.558	20.11
671.745	20.24
671.932	20.57
672.119	19.81
672.306	19.54
672.493	18.95
672.68	18.55
672.867	18.77
673.054	18.82
673.24	18.47
673.427	18.15
673.614	18.2
673.801	18.34
673.988	17.78
674.174	17.98
674.361	18.37
674.548	18.96
674.734	19.24
674.921	19.09
675.108	19.12
675.294	19.36
675.481	19.48
675.668	19.04
675.854	19.57
676.041	19.16
676.227	19.49
676.414	18.54
676.601	18.22
676.787	18.24
676.974	18.71
677.16	18.5
677.347	18.49
677.533	18.7
677.719	19.17
677.906	18.91
678.092	19.27
678.279	19
678.465	19.17
678.651	19.69
678.838	20.13
679.024	19.95
679.21	20.42
679.397	20.65
679.583	21.06
679.769	21.13
679.955	21.01
680.142	21.32
680.328	21.37
680.514	21.71
680.7	21.25
680.886	21.08
681.073	21.05
681.259	20.79
681.445	20.86
681.631	20.82
681.817	20.83
682.003	20.85
682.189	20.44
682.375	20.96
682.561	21.33
682.747	21.7
682.933	21.05
683.119	20.71
683.305	20.94
683.491	20.9
683.677	20.38
683.863	20.51
684.049	20.56
684.235	20.64
684.42	20.08
684.606	19.48
684.792	19.37
684.978	19.56
685.164	20.11
685.349	19.98
685.535	19.53
685.721	19.79
685.907	19.73
686.092	19.85
686.278	20.18
686.464	20.43
686.649	20.47
686.835	20.11
687.021	19.97
687.206	19.99
687.392	19.92
687.577	19.95
687.763	19.77
687.948	20.18
688.134	20.24
688.319	20.49
688.505	21.11
688.69	21.81
688.876	22.29
689.061	22.69
689.247	22.66
689.432	22.2
689.618	22.18
689.803	23
689.988	23.12
690.174	23.63
690.359	24.02
690.544	23.54
690.73	23.11
690.915	23.17
691.1	23.27
691.285	23.35
691.471	23.41
691.656	23.17
691.841	22.63
692.026	21.84
692.211	21.08
692.396	20.71
692.582	20.72
692.767	20.74
692.952	20.57
693.137	20.28
693.322	19.71
693.507	20.36
693.692	21.5
693.877	21.89
694.062	22.55
694.247	22.79
694.432	22.65
694.617	22.51
694.802	22.17
694.987	21.35
695.172	21.68
695.357	21.67
695.541	21.33
695.726	20.89
695.911	20.06
696.096	19.27
696.281	18.78
696.466	18.16
696.65	17.97
696.835	17.74
697.02	19.16
697.204	19.22
697.389	19.39
697.574	20.04
697.759	19.95
697.943	20.22
698.128	20.78
698.312	20.91
698.497	21.21
698.682	21.2
698.866	21.53
699.051	21.19
699.235	21.22
699.42	21.64
699.604	21.35
699.789	21.38
699.973	20.84
700.158	20.57
700.342	20.72
700.527	21.09
700.711	21.55
700.895	21.42
701.08	21.09
701.264	20.57
701.448	20.15
701.633	19.85
701.817	19.53
702.001	19.94
702.186	19.36
702.37	19.33
702.554	18.42
702.738	18
702.923	18.74
703.107	19.53
703.291	19.68
703.475	19.92
703.659	19.91
703.843	20.58
704.027	20.9
704.212	21.65
704.396	20.77
704.58	21.56
704.764	21.74
704.948	20.46
705.132	19.85
705.316	20.25
705.5	20.06
705.684	20.99
705.868	20.22
706.052	19.64
706.235	19.62
706.419	20.44
706.603	20.01
706.787	20.76
706.971	21.4
707.155	20.76
707.339	21.01
707.522	20.94
707.706	19.91
707.89	19.62
708.074	20.52
708.257	20.6
708.441	21.37
708.625	21.6
708.808	20.95
708.992	20.47
709.176	21.61
709.359	21.96
709.543	21.77
709.727	21.55
709.91	21.96
710.094	21.82
710.277	21.31
710.461	20.91
710.644	20.97
710.828	20.67
711.011	21.19
711.195	20.62
711.378	19.03
711.562	19.48
711.745	20.43
711.928	20.64
712.112	20.08
712.295	19.78
712.478	20.17
712.662	20.15
712.845	20.62
713.028	19.98
713.212	20.79
713.395	22.33
713.578	22.27
713.761	21.87
713.945	22.55
714.128	23.36
714.311	24.06
714.494	23.34
714.677	22.61
714.86	22.71
715.043	23.56
715.227	23.08
715.41	22.42
715.593	22.71
715.776	22.87
715.959	21.76
716.142	21.58
716.325	21.34
716.508	20.88
716.691	21.36
716.874	20.92
717.057	20.85
717.239	21.65
717.422	21.03
717.605	20.52
717.788	19.97
717.971	20.43
718.154	20.13
718.337	20.15
718.519	20.8
718.702	20.48
718.885	19.85
719.068	19.62
719.25	19.83
719.433	21.23
719.616	20.23
719.798	20.2
719.981	20.58
720.164	20.35
720.346	21.24
720.529	21.43
720.712	21.96
720.894	23.37
721.077	23.09
721.259	21.99
721.442	21.13
721.624	22.59
721.807	24
721.989	23.36
722.172	24.12
722.354	24.53
722.537	24.85
722.719	24.32
722.901	23.43
723.084	23.21
723.266	22.53
723.448	22.06
723.631	21.62
723.813	20.71
723.995	21.15
724.178	20.3
724.36	19.07
724.542	18.07
724.724	19.65
724.907	19.87
725.089	20.35
725.271	20.64
725.453	20.94
725.635	20.38
725.817	20.05
725.999	19.62
726.181	20.71
726.364	20.55
726.546	20.7
726.728	21.03
726.91	21.15
727.092	20.39
727.274	20.94
727.456	21.84
727.638	22.12
727.819	22.22
728.001	23.08
728.183	23.2
728.365	22.42
728.547	22.37
728.729	20.76
728.911	20.73
729.093	21.21
729.274	19.74
729.456	18.3
729.638	19.4
729.82	19.4
730.001	17.71
730.183	17.34
730.365	18.2
730.546	18.74
730.728	18.94
730.91	18.82
731.091	19.27
731.273	20.51
731.455	20.76
731.636	19.94
731.818	20.39
731.999	21.22
732.181	21.29
732.362	21.61
732.544	21.16
732.725	20.84
732.907	21.45
733.088	21.01
733.27	20.26
733.451	20.16
733.633	20.56
733.814	20.52
733.995	21.03
734.177	21.09
734.358	21.08
734.539	20.97
734.721	21.67
734.902	20.9
735.083	21.22
735.264	21.61
735.446	21.51
735.627	21.19
735.808	20.19
735.989	18.88
736.17	18.21
736.351	18.32
736.533	18.58
736.714	17.6
736.895	18.24
737.076	18.89
737.257	19.44
737.438	20.58
737.619	20.37
737.8	21.45
737.981	22.92
738.162	23.6
738.343	23.31
738.524	23.86
738.705	23.47
738.886	22.93
739.067	21.62
739.247	21.61
739.428	21.28
739.609	22.37
739.79	22.62
739.971	22.56
740.151	21.71
740.332	22.27
740.513	21.26
740.694	22.37
740.874	23.12
741.055	22.94
741.236	23.05
741.417	22.32
741.597	21.96
741.778	20.73
741.958	21.35
742.139	22.61
742.32	23.21
742.5	23.77
742.681	24.17
742.861	23.52
743.042	23.91
743.222	22.9
743.403	23.83
743.583	21.92
743.764	23.01
743.944	20.64
744.124	20.23
744.305	19.99
744.485	21.23
744.666	20.27
744.846	19.34
745.026	19.96
745.207	20.17
745.387	20.5
745.567	21.7
745.747	22.29
745.928	23.05
746.108	22.79
746.288	22.31
746.468	20.49
746.648	20.41
746.829	21.85
747.009	22.55
747.189	23.8
747.369	23.83
747.549	25.96
747.729	23.59
747.909	23.81
748.089	24.44
748.269	22.9
748.449	24.39
748.629	25.99
748.809	25.18
748.989	24.58
749.169	22.22
749.349	21.96
749.529	20.65
749.709	20.73
749.889	20.82
750.068	19.71
750.248	22.15
750.428	21.02
750.608	19.69
750.788	19.74
750.967	19.09
751.147	20.96
751.327	21.31
751.507	20.14
751.686	21.17
751.866	20.09
752.046	20.83
752.225	20.14
752.405	20.06
752.585	20.7
752.764	20.37
752.944	21.18
753.123	21.92
753.303	21.64
753.482	21.91
753.662	22.67
753.841	23.62
754.021	24.2
754.2	22.93
754.38	23.75
754.559	23.61
754.739	22.79
754.918	23.51
755.097	23.42
755.277	23.47
755.456	24.18
755.635	22.48
755.815	22.94
755.994	22.86
756.173	22.7
756.352	22.32
756.532	22.31
756.711	23.81
756.89	23.72
757.069	20.94
757.248	20.48
757.427	21.08
757.607	21.69
757.786	22.07
757.965	21.79
758.144	21.92
758.323	22.94
758.502	22.59
758.681	22.94
758.86	22.37
759.039	22.83
759.218	23.03
759.397	20.89
759.576	22.77
759.755	22.94
759.934	22.65
760.113	23.42
760.291	22.4
760.47	23.99
760.649	23.93
760.828	24.09
761.007	26.05
761.186	26.65
761.364	26.74
761.543	25.17
761.722	25.04
761.901	24.5
762.079	24.79
762.258	24.57
762.437	22.93
762.615	22.64
762.794	22.21
762.972	21.89
763.151	21.99
763.33	22.71
763.508	23.06
763.687	22.82
763.865	23.62
764.044	24
764.222	24.93
764.401	25.16
764.579	24.6
764.758	25.32
764.936	25.61
765.114	26.14
765.293	26.2
765.471	26.04
765.65	26.56
765.828	26.19
766.006	25.88
766.184	24.75
766.363	26.37
766.541	27.17
766.719	26.15
766.898	25.22
767.076	24.22
767.254	24.12
767.432	23.54
767.61	23.97
767.788	23.9
767.967	22.04
768.145	23.16
768.323	19.89
768.501	21.19
768.679	20.49
768.857	20.69
769.035	19.76
769.213	19.56
769.391	19.57
769.569	17.12
769.747	16.8
769.925	16.52
770.103	14.8
770.281	16.1
770.459	16.2
770.636	16.98
770.814	17
770.992	18.38
771.17	19.71
771.348	21.65
771.525	24.11
771.703	23.53
771.881	24.77
772.059	26.11
772.236	27.51
772.414	27.64
772.592	27.96
772.769	26.96
772.947	26.72
773.125	26.61
773.302	25.9
773.48	24.49
773.657	23.42
773.835	21.81
774.013	22.58
774.19	20.4
774.368	18.41
774.545	17.63
774.723	19.83
774.9	19.41
775.077	19.63
775.255	18.6
775.432	17.51
775.61	19.3
775.787	20.45
775.964	18.79
776.142	18.55
776.319	17.25
776.496	15.89
776.674	15.07
776.851	16.44
777.028	14.73
777.205	13.99
777.382	15.6
777.56	14.74
777.737	15.17
777.914	14.48
778.091	14.85
778.268	14.33
778.445	18.04
778.622	16.55
778.8	14.13
778.977	13.45
779.154	11.69
779.331	13.2
779.508	13.79
779.685	15.43
779.862	17.19
780.038	18.25
780.215	20.38
780.392	18.52
780.569	20.07
780.746	22.75
780.923	24.7
781.1	27.13
781.277	23.36
781.453	23.39
781.63	22.14
781.807	20.83
781.984	22.59
782.16	22.91
782.337	25.67
782.514	24.64
782.691	26.29
782.867	23.15
783.044	23.23
783.221	26.85
783.397	23.98
783.574	23.06
783.75	23.1
783.927	19.89
784.103	20.44
784.28	17.33
784.456	17.77
784.633	13.23
784.809	14.38
784.986	14.06
785.162	8.6
785.339	10.42
785.515	11.08
785.692	12.35
785.868	11.92
786.044	7.91
786.221	13.41
786.397	13
786.573	13.15
786.749	12.06
786.926	12.91
787.102	16.31
787.278	19.78
787.454	20.37
787.631	22.87
787.807	21.88
787.983	23.56
788.159	19.15
788.335	20.02
788.511	17.8
788.687	17.4
788.863	17.19
789.039	19.37
789.216	17.39
789.392	17.25
789.568	15.67
789.744	19.56
789.919	19.67
790.095	19.98
790.271	20.89
790.447	23.81
790.623	27.19
790.799	26.62
790.975	25.73
791.151	25.61
791.327	26.03
791.502	26.11
791.678	22.54
791.854	24.35
792.03	25.36
792.205	23.74
792.381	24.37
792.557	21.87
792.733	22.74
792.908	20.35
793.084	23.16
793.259	24.52
793.435	23.39
793.611	26.43
793.786	27.46
793.962	25.85
794.137	24.25
794.313	25.22
794.488	26.62
794.664	26.11
794.839	26.08
795.015	24.49
795.19	22.76
795.366	21.97
795.541	21.09
795.716	21.37
795.892	24.04
796.067	23.9
796.242	22.67
796.418	21.95
796.593	24.77
796.768	24.3
796.944	26.25
797.119	27.64
797.294	27.06
797.469	25.35
797.644	24.58
797.82	24.64
797.995	26.22
798.17	25.37
798.345	28.16
798.52	26.39
798.695	27.51
798.87	23.64
799.045	22.89
799.22	27.16
799.395	27.65
799.57	27.3
799.745	27.91
799.92	26.12
800.095	25.79
800.27	24.66
800.445	23.19
800.62	23.29
800.795	25.46
800.97	22.72
801.145	18.43
801.319	19.51
801.494	14.83
801.669	7.26
801.844	7.66
802.018	10.08
802.193	7.35
802.368	4.13
802.543	5.56
802.717	3.01
802.892	7.06
803.067	11.46
803.241	13.37
803.416	18.67
803.59	21.26
803.765	23.78
803.94	23.76
804.114	22.91
804.289	25.45
804.463	24.01
804.638	27.91
804.812	28.29
804.986	27.64
805.161	26.84
805.335	22.44
805.51	24.19
805.684	22.58
805.858	22.66
806.033	24.57
806.207	23.69
806.381	25.49
806.556	23.67
806.73	22.92
806.904	23.3
807.078	23.73
807.253	28.86
807.427	24.72
807.601	27.43
807.775	27.56
807.949	27.21
808.123	25.44
808.298	27.52
808.472	22.21
808.646	22.62
808.82	17.87
808.994	15.32
809.168	9.05
809.342	13.31
809.516	10.85
809.69	9.31
809.864	12.26
810.038	16.25
810.212	10.43
810.385	16.75
810.559	17.95
810.733	21.07
810.907	22.18
811.081	22.12
811.255	24.6
811.428	28.6
811.602	26.95
811.776	25.68
811.95	23.61
812.123	19.61
812.297	17.59
812.471	14.62
812.644	10.13
812.818	12.48
812.992	17.4
813.165	11.06
813.339	12.38
813.512	10.53
813.686	11.39
813.86	9.86
814.033	13.7
814.207	12.48
814.38	13.93
814.554	14.21
814.727	16.08
814.9	13.5
815.074	19.45
815.247	14.76
815.421	22.09
815.594	22.92
815.767	21.25
815.941	24.38
816.114	30.09
816.287	33.7
816.46	33.62
816.634	35.04
816.807	36.35
816.98	36.96
817.153	35.04
817.327	30.76
817.5	28.28
817.673	36.26
817.846	36.75
818.019	33.24
818.192	34.61
818.365	37.59
818.538	33.09
818.711	35.21
818.884	31.64
819.057	32.2
819.23	36.15
819.403	38.02
819.576	32.88
819.749	33.68
819.922	32.68
820.095	31.59
820.268	31.91
820.441	34.87
820.614	34.13
820.786	34.84
820.959	32.85
821.132	28.93
821.305	29.92
821.477	27.71
821.65	25.94
821.823	27.12
821.996	26.56
822.168	25.38
822.341	25.67
822.514	26.44
822.686	26.8
822.859	27.68
823.031	28.65
823.204	27.45
823.376	28.47
823.549	28.89
823.722	28.13
823.894	28.1
824.067	28.98
824.239	28.44
824.411	27.8
824.584	27.1
824.756	27.33
824.929	28.06
825.101	28.3
825.273	28.15
825.446	29.83
825.618	30.51
825.79	30.9
825.963	30.84
826.135	30.24
826.307	30.6
826.479	31.21
826.652	30.68
826.824	30.42
826.996	31.74
827.168	31.27
827.34	29.09
827.512	28.87
827.684	28.26
827.856	28.35
828.029	29.25
828.201	29.29
828.373	28.64
828.545	27.63
828.717	27.21
828.889	26.46
829.061	27.41
829.232	27.8
829.404	28.92
829.576	29.92
829.748	28.7
829.92	28.4
830.092	25.52
830.264	25.51
830.436	28.43
830.607	28.54
830.779	28.81
830.951	25.96
831.123	22.69
831.294	20.56
831.466	17.74
831.638	20.27
831.809	20.64
831.981	23.64
832.153	24.77
832.324	23.49
832.496	19.38
832.667	15.42
832.839	18
833.011	23.22
833.182	26.16
833.354	28.29
833.525	24.95
833.697	22.03
833.868	24.45
834.039	21.56
834.211	22.21
834.382	23.23
834.554	23.27
834.725	22.58
834.896	22.6
835.068	20.78
835.239	23
835.41	23.2
835.581	25.42
835.753	27.35
835.924	26.61
836.095	25.15
836.266	24.45
836.438	26.69
836.609	29.57
836.78	32.56
836.951	31.25
837.122	30.35
837.293	32.2
837.464	26.88
837.635	20.41
837.806	22.17
837.977	26.14
838.148	26.88
838.319	23.23
838.49	28.4
838.661	21.5
838.832	27.54
839.003	19.53
839.174	22.3
839.345	29.23
839.516	23.21
839.687	32.3
839.857	25.92
840.028	26.25
840.199	32.59
840.37	26.12
840.54	28.89
840.711	25.27
840.882	25.98
841.053	16.99
841.223	15.13
841.394	23.87
841.564	13.59
841.735	20.36
841.906	19.37
842.076	14.45
842.247	15.65
842.417	14.59
842.588	17.6
842.758	27.3
842.929	36.02
843.099	28.57
843.27	27.12
843.44	38.18
843.611	32.85
843.781	36.5
843.951	36.09
844.122	26.31
844.292	36.16
844.462	47.51
844.633	40.85
844.803	32.78
844.973	48.14
845.144	43.3
845.314	27.55
845.484	26.73
845.654	27.69
845.824	47.97
845.995	59.2
846.165	43.42
846.335	31.97
846.505	11.92
846.675	9.11
846.845	-1.4
847.015	2.56
847.185	-14.81
847.355	0.88
847.525	8.26
847.695	9.37
847.865	14.39
848.035	14.54
848.205	16.59
848.375	21.01
848.545	16.99
848.715	26.06
848.884	34.47
849.054	52.79
849.224	43.33
849.394	38.78
849.564	25.44
849.733	14.49
849.903	24.55
850.073	26.09
850.243	46.62
850.412	46.84
850.582	53.44
850.752	46.94
850.921	38.92
851.091	49.05
851.26	34.1
851.43	30.68
851.599	51.23
851.769	51.83
851.939	28.18
852.108	21.37
852.278	34.54
852.447	32.24
852.616	30.91
852.786	23.3
852.955	17.31
853.125	29.8
853.294	31.99
853.463	14.01
853.633	-3.34
853.802	8.95
853.971	7.59
854.141	25.62
854.31	20
854.479	20.61
854.648	31.62
854.818	36.89
854.987	21.99
855.156	32.57
855.325	39.11
855.494	40.99
855.663	38.23
855.832	17.74
856.001	17.26
856.171	14.07
856.34	9.56
856.509	-4.99
856.678	-14.06
856.847	-13.4
857.016	-23.73
857.185	-29.67
857.353	-32.39
857.522	-26.23
857.691	10.19
857.86	-24.11
858.029	-14.32
858.198	14.49
858.367	26.12
858.535	31.33
858.704	44.38
858.873	59.49
859.042	58.07
859.21	64.15
859.379	69.22
859.548	64.64
859.717	61.99
859.885	62.02
860.054	42.48
860.222	29.54
860.391	29.02
860.56	33.6
860.728	34.04
860.897	32.57
861.065	13.25
861.234	9.5
861.402	8.05
861.571	15
861.739	12.19
861.908	55.73
862.076	79.05
862.244	76.2
862.413	62.34
862.581	18.68
862.749	21.93
862.918	29.24
863.086	14.37
863.254	30.65
863.423	33.69
863.591	55.3
863.759	40.36
863.927	41.81
864.096	45.66
864.264	37.93
864.432	59.7
864.6	49.7
864.768	41.7
864.936	57.31
865.104	49.84
865.272	49.5
865.44	34.57
865.608	27.34
865.776	33.47
865.944	14.49
866.112	24.6
866.28	9.38
866.448	-29.72
866.616	-60.04
866.784	-65.28
866.952	4.94
867.12	-7.45
867.288	-14.4
867.455	13.46
867.623	8.84
867.791	36.19
867.959	55.04
868.127	61.41
868.294	114.8
868.462	89.73
868.63	106.9
868.797	90.25
868.965	96.52
869.133	97.59
869.3	97.3
869.468	47.36
869.636	38.72
869.803	16.7
869.971	3.11
870.138	-6.54
870.306	6.78
870.473	-5.34
870.641	-17.82
870.808	-20.76
870.975	-36.61
871.143	-37.57
871.31	-15.25
871.478	-22.72
871.645	-1.12
871.812	-1.7
871.98	-5.01
872.147	-15.8
872.314	-2.83
872.482	4.18
872.649	-3.86
872.816	31.2
872.983	20.45
873.15	11.59
873.318	18.28
873.485	8.42
873.652	35.87
873.819	52.34
873.986	80.22
874.153	71.3
874.32	74.18
874.487	85.52
874.654	72.29
874.821	64.01
874.988	51.09
875.155	44.6
875.322	43.45
875.489	26.79
875.656	17.57
875.823	9.44
875.99	-33.37
876.157	-41.62
876.324	-37.95
876.49	-23.1
876.657	-26.82
876.824	-25.15
876.991	-29.08
877.157	9.19
877.324	12.64
877.491	24.35
877.658	-9.02
877.824	30.52
877.991	27.93
878.157	31.01
878.324	6.88
878.491	8.32
878.657	8.32
878.824	11.63
878.99	13.96
879.157	24.92
879.323	21.19
879.49	46.12
879.656	39.71
879.823	40.68
879.989	35.44
880.156	30.47
880.322	46.77
880.488	56.3
880.655	50.22
880.821	34.14
880.987	34.08
881.154	36.15
881.32	28.97
881.486	24.68
881.652	29.12
881.819	24.92
881.985	34
882.151	31.49
882.317	34.6
882.483	37.07
882.649	38.89
882.816	38.14
882.982	36.47
883.148	37.94
883.314	39.66
883.48	37.59
883.646	38.15
883.812	37.46
883.978	35.7
884.144	35.97
884.31	38.35
884.476	38.64
884.642	37.51
884.807	38.86
884.973	35.57
885.139	35.46
885.305	37.46
885.471	41.75
885.637	40.48
885.802	41.19
885.968	37.61
886.134	28.98
886.3	28.28
886.465	28.68
886.631	27.02
886.797	30.39
886.962	26.38
887.128	20.31
887.293	10.05
887.459	13.57
887.625	16.96
887.79	21.71
887.956	28.4
888.121	29.06
888.287	26.58
888.452	24.13
888.618	21.18
888.783	23.31
