Data from 2937823_Reflection_3.txt Node
Date: Wed Jul 15 17:11:40 EDT 2015
User: robert
Spectrometer: USB4E03001
Autoset integration time: false
Trigger mode: 4
Integration Time (sec): 1.000000E-1
Scans to average: 10
Electric dark correction enabled: true
Nonlinearity correction enabled: false
Boxcar width: 5
Stray light correction enabled: false
XAxis mode: Wavelengths
Stop averaging: false
Number of Pixels in Spectrum: 3648
>>>>>Begin Spectral Data<<<<<
177.566	331.99
177.785	148.03
178.005	334.71
178.225	-4927.5
178.445	90.45
178.665	275.7
178.885	-21.98
179.105	169.87
179.324	203.61
179.544	3318.25
179.764	382
179.984	219.15
180.204	76.35
180.423	93.59
180.643	64.84
180.863	-26.02
181.083	-76.48
181.302	-180.86
181.522	-511.11
181.742	-161.69
181.961	-412.28
182.181	-994.03
182.401	9553.57
182.621	506.04
182.84	-455.42
183.06	-196.87
183.279	-139.25
183.499	-79.42
183.719	-125.67
183.938	-32.18
184.158	-38.75
184.377	11.92
184.597	44.31
184.816	64.41
185.036	55.38
185.256	44.94
185.475	36.74
185.695	-63.57
185.914	-103.98
186.134	-97.08
186.353	-115.32
186.572	-111.42
186.792	-156.32
187.011	-317.16
187.231	-357.92
187.45	-362.92
187.67	-211.84
187.889	-225.99
188.108	-408.75
188.328	-583.33
188.547	-1847.86
188.766	442.01
188.986	500
189.205	506.35
189.424	-93.44
189.644	-217.6
189.863	-166.57
190.082	-134.3
190.302	-127.35
190.521	-29.73
190.74	-34.25
190.959	-15.43
191.178	-46.55
191.398	-43.92
191.617	-43.63
191.836	-66.72
192.055	-36.69
192.274	-62.27
192.494	-68.02
192.713	-56.47
192.932	-93.78
193.151	-71.39
193.37	-77.09
193.589	-25.51
193.808	-36.81
194.027	-33.19
194.246	-30.04
194.465	-36.44
194.685	-9.65
194.904	-18.85
195.123	-4.64
195.342	-46.98
195.561	-46.89
195.78	-26.63
195.999	-20.57
196.218	-33.52
196.436	-74.88
196.655	-86.11
196.874	-99.44
197.093	-173.15
197.312	-143.06
197.531	-382.66
197.75	-159.8
197.969	-263.5
198.188	-11291.76
198.407	507.72
198.625	495.41
198.844	625.14
199.063	571.39
199.282	800.67
199.501	345.19
199.719	264.01
199.938	217.52
200.157	301.05
200.376	284.66
200.594	162.61
200.813	598.83
201.032	-286.17
201.251	-15230
201.469	-716.04
201.688	-168.2
201.907	-138.01
202.125	-237.89
202.344	-19.94
202.563	-330.22
202.781	-125.39
203	-203.12
203.218	-48.58
203.437	-45.99
203.656	-73.47
203.874	-95.6
204.093	-100.83
204.311	-69.96
204.53	-54.84
204.748	-108.62
204.967	-31.2
205.185	-49.21
205.404	-33.53
205.622	-40.5
205.841	-86.27
206.059	-65
206.278	-46.24
206.496	-42.32
206.715	-62.31
206.933	-88.42
207.151	-39.97
207.37	-54.96
207.588	11.45
207.806	-4.37
208.025	-43.61
208.243	72.75
208.461	17
208.68	-293
208.898	-205.49
209.116	34.39
209.335	5.17
209.553	62.76
209.771	82.24
209.989	149.83
210.208	147.29
210.426	137.09
210.644	686.05
210.862	232.97
211.081	527.08
211.299	-67842.86
211.517	-21.42
211.735	-57.34
211.953	-7.58
212.171	-45.59
212.39	-76.01
212.608	-41.34
212.826	-64.54
213.044	-0.84
213.262	-13.31
213.48	32.35
213.698	48.77
213.916	49.99
214.134	61.58
214.352	36.95
214.57	46.15
214.788	37.19
215.006	45.38
215.224	39.52
215.442	27
215.66	14.38
215.878	7.06
216.096	2.45
216.314	10.55
216.532	-19.06
216.75	-31.22
216.968	-36.18
217.185	-47.34
217.403	-74.82
217.621	-102.77
217.839	-110.59
218.057	-287.66
218.275	-672.78
218.492	-208.34
218.71	-2648.19
218.928	570.62
219.146	345.51
219.363	220.71
219.581	194.4
219.799	302.61
220.017	277.37
220.234	231.98
220.452	587.79
220.67	801.35
220.887	424.9
221.105	363.74
221.323	366.83
221.54	343
221.758	304.09
221.976	236.73
222.193	394.26
222.411	596.44
222.629	271.5
222.846	173.48
223.064	168.29
223.281	116.77
223.499	121.41
223.716	129.83
223.934	135.18
224.151	96.77
224.369	97.48
224.586	65.36
224.804	46.17
225.021	61.1
225.239	82.33
225.456	50.9
225.674	115.56
225.891	67.69
226.108	82.9
226.326	66.9
226.543	42.55
226.76	55.6
226.978	55.06
227.195	62.74
227.413	50.82
227.63	46.54
227.847	39.8
228.064	35.04
228.282	34.14
228.499	27.71
228.716	29.22
228.934	27.1
229.151	26.69
229.368	24.67
229.585	21.73
229.802	23.8
230.02	23.93
230.237	25.18
230.454	23.86
230.671	27.58
230.888	29.23
231.105	25.92
231.323	27.93
231.54	21.47
231.757	18.39
231.974	24.37
232.191	23.53
232.408	22.93
232.625	26.49
232.842	33.02
233.059	25.61
233.276	31.86
233.493	35.62
233.71	35.43
233.927	50.39
234.144	59.07
234.361	43.94
234.578	39.43
234.795	31.5
235.012	29.51
235.229	22.7
235.446	17.26
235.663	7.2
235.879	-4.52
236.096	-1.23
236.313	-2.45
236.53	-6.96
236.747	-2.89
236.964	-2.68
237.181	17.57
237.397	12.32
237.614	14.2
237.831	26.71
238.048	31.94
238.264	37.65
238.481	37.99
238.698	34.42
238.915	34.65
239.131	42.29
239.348	41.85
239.565	40.01
239.781	41.09
239.998	34.55
240.215	29.18
240.431	26.98
240.648	25.9
240.865	25.94
241.081	24.14
241.298	22.37
241.514	18.79
241.731	18.82
241.947	15.88
242.164	15.05
242.38	17.61
242.597	16.42
242.814	15.68
243.03	14.65
243.246	13.07
243.463	12.65
243.679	14.21
243.896	13.54
244.112	14.36
244.329	15.7
244.545	15.8
244.762	15.79
244.978	18.57
245.194	19.12
245.411	18.71
245.627	20.07
245.843	19.67
246.06	16.78
246.276	16.07
246.492	14.63
246.709	14.28
246.925	15.58
247.141	14.22
247.357	13.57
247.574	13.5
247.79	13.21
248.006	13.53
248.222	13.9
248.439	15.12
248.655	15.48
248.871	14.7
249.087	14.68
249.303	13.52
249.519	14.05
249.736	11.87
249.952	11.23
250.168	11.41
250.384	10.85
250.6	9.87
250.816	8.9
251.032	9.99
251.248	10.11
251.464	8.43
251.68	9.99
251.896	10.31
252.112	13.88
252.328	15.34
252.544	16.73
252.76	15.23
252.976	15.32
253.192	17.64
253.408	16.43
253.624	17.84
253.84	21.89
254.056	20.58
254.272	20.43
254.487	19.46
254.703	17.62
254.919	16.54
255.135	16.36
255.351	16.49
255.567	9.36
255.782	11.03
255.998	13.73
256.214	5.42
256.43	7.04
256.646	7.46
256.861	7.26
257.077	7.18
257.293	6.97
257.508	8.8
257.724	7.58
257.94	8.99
258.155	6.86
258.371	4.51
258.587	6.74
258.802	6.71
259.018	7.39
259.234	7.64
259.449	7
259.665	7.4
259.88	7.52
260.096	8.5
260.312	8.16
260.527	8.47
260.743	9.19
260.958	9.11
261.174	8.86
261.389	8.21
261.605	8.21
261.82	9.74
262.036	10.58
262.251	11.12
262.466	10.46
262.682	12.44
262.897	13.91
263.113	14.91
263.328	15.88
263.543	16.3
263.759	16.56
263.974	16.95
264.189	17.52
264.405	17.34
264.62	19.11
264.835	19.2
265.051	17.07
265.266	17.75
265.481	16.58
265.696	15.55
265.912	15.92
266.127	16.33
266.342	17.11
266.557	17.82
266.773	16.58
266.988	14.57
267.203	15.48
267.418	16.55
267.633	16.16
267.848	16.29
268.064	15.72
268.279	15.63
268.494	14.69
268.709	12.74
268.924	9.25
269.139	9.46
269.354	6.81
269.569	5.12
269.784	2.41
269.999	1.41
270.214	0.3
270.429	-0.61
270.644	0.26
270.859	1.57
271.074	2.01
271.289	4.2
271.504	3.83
271.719	4.68
271.934	5.07
272.149	5.89
272.363	5.43
272.578	6.5
272.793	8.3
273.008	9.08
273.223	10.55
273.438	11.66
273.653	11.99
273.867	11.43
274.082	15.28
274.297	14.65
274.512	17.12
274.726	19.24
274.941	19.3
275.156	18.08
275.371	15.91
275.585	13.63
275.8	13.75
276.015	12.87
276.229	13.66
276.444	11.43
276.659	13.46
276.873	12.19
277.088	10.38
277.302	10.2
277.517	12.42
277.732	13.16
277.946	13.95
278.161	12.96
278.375	13.68
278.59	14.29
278.804	13.61
279.019	12.45
279.233	12.67
279.448	13.75
279.662	14.65
279.877	11.95
280.091	12.39
280.306	13.31
280.52	12.44
280.735	12.92
280.949	12.32
281.163	12.66
281.378	12.13
281.592	11.77
281.806	11.22
282.021	9.17
282.235	10.19
282.449	9.66
282.664	9.28
282.878	10.89
283.092	9.5
283.307	11.17
283.521	11.42
283.735	13.47
283.949	14.73
284.164	13.88
284.378	14.32
284.592	14.26
284.806	14.18
285.02	14.78
285.234	14.54
285.449	14.94
285.663	14.53
285.877	13.2
286.091	12.95
286.305	11.57
286.519	11.47
286.733	12.99
286.947	12.75
287.161	14.48
287.375	13.12
287.589	13.2
287.803	13.91
288.017	14.03
288.231	14.94
288.445	14.12
288.659	15.23
288.873	17.23
289.087	15.29
289.301	15.02
289.515	12.95
289.729	15.43
289.943	15.12
290.157	16.41
290.371	16.73
290.584	17.99
290.798	19.27
291.012	19.27
291.226	18.45
291.44	19.44
291.654	20.61
291.867	23.47
292.081	23.12
292.295	23.23
292.509	22.82
292.722	20.98
292.936	21.74
293.15	21.11
293.364	19.99
293.577	20.16
293.791	20.28
294.005	19.97
294.218	17.18
294.432	17.15
294.645	18.78
294.859	19.65
295.073	21.24
295.286	18.95
295.5	17.53
295.713	18.48
295.927	18.62
296.14	17.96
296.354	17.38
296.568	17.55
296.781	15.95
296.994	15.01
297.208	13.46
297.421	13.61
297.635	14.64
297.848	15.56
298.062	16.17
298.275	15.98
298.489	15.25
298.702	15.11
298.915	15.72
299.129	16.24
299.342	17.45
299.555	18.91
299.769	18.98
299.982	17.91
300.195	18.9
300.409	17.91
300.622	17.57
300.835	18.56
301.048	19.49
301.262	18.9
301.475	19.37
301.688	19.36
301.901	18.07
302.115	17.08
302.328	17.42
302.541	16.28
302.754	15.67
302.967	16.34
303.18	16.32
303.393	16.84
303.607	17.39
303.82	18.39
304.033	16.35
304.246	17.63
304.459	17.15
304.672	18.51
304.885	18.59
305.098	18.36
305.311	17.87
305.524	18.79
305.737	18.13
305.95	17.23
306.163	16.43
306.376	18.18
306.589	18.81
306.802	19.19
307.015	18.57
307.228	17.24
307.44	16.37
307.653	16.23
307.866	15.4
308.079	16.03
308.292	16.54
308.505	15.64
308.718	14.31
308.93	11
309.143	12
309.356	13.36
309.569	14.88
309.781	16.09
309.994	18.42
310.207	19.45
310.42	18.43
310.632	19.54
310.845	21.43
311.058	22.82
311.27	24.51
311.483	23.77
311.696	22.29
311.908	22.15
312.121	23.06
312.333	20.99
312.546	19.69
312.759	21.34
312.971	19.6
313.184	18.62
313.396	17.79
313.609	16.64
313.821	18.94
314.034	19.73
314.246	18.75
314.459	19.76
314.671	20.85
314.884	22.15
315.096	21.06
315.309	21.67
315.521	21.87
315.733	21.99
315.946	21.92
316.158	21.59
316.371	21.33
316.583	21.48
316.795	18.9
317.008	19.22
317.22	19.43
317.432	20.78
317.644	21.67
317.857	21.86
318.069	22.16
318.281	23.84
318.494	23.5
318.706	22.03
318.918	22.32
319.13	22.64
319.342	21.66
319.555	21.28
319.767	19.11
319.979	18.04
320.191	18.56
320.403	18.03
320.615	17.41
320.827	14.98
321.039	15.63
321.252	15.3
321.464	17.4
321.676	16.46
321.888	16.12
322.1	18.5
322.312	19.48
322.524	17.53
322.736	17.75
322.948	17.8
323.16	20.85
323.372	19.75
323.584	20.61
323.796	20.23
324.007	21.38
324.219	22.31
324.431	21.06
324.643	21.34
324.855	22.89
325.067	22.25
325.279	22.92
325.491	23.89
325.702	24.67
325.914	25.67
326.126	24.62
326.338	24.3
326.55	24.54
326.761	23.63
326.973	24.3
327.185	23.35
327.396	24.68
327.608	23.86
327.82	23.5
328.032	25.62
328.243	26.38
328.455	27.13
328.666	28.8
328.878	29.88
329.09	31.98
329.301	31.07
329.513	31.59
329.725	31.58
329.936	33.12
330.148	33.48
330.359	33.22
330.571	32.84
330.782	34.26
330.994	34.5
331.205	35.03
331.417	35.25
331.628	35.55
331.84	36.04
332.051	37.8
332.262	37.89
332.474	36.71
332.685	38.38
332.897	39.81
333.108	39.77
333.319	39.76
333.531	38.69
333.742	40.15
333.953	41.35
334.165	41.67
334.376	41.47
334.587	41.17
334.799	41.99
335.01	40.74
335.221	39.71
335.432	40.76
335.644	41.84
335.855	43.04
336.066	43.28
336.277	43.54
336.488	43.61
336.7	43.97
336.911	45.14
337.122	45.97
337.333	47.33
337.544	46.53
337.755	46.73
337.966	46.15
338.177	46.78
338.388	46.64
338.599	46.4
338.811	46.88
339.022	45.24
339.233	45.41
339.444	44.51
339.655	43.14
339.866	44.63
340.076	44.09
340.287	43.86
340.498	43.95
340.709	42.72
340.92	42.63
341.131	42.63
341.342	43.4
341.553	41.65
341.764	40.68
341.975	42.25
342.185	42.69
342.396	43.02
342.607	44.35
342.818	43.66
343.029	44.25
343.239	44.47
343.45	45.75
343.661	46.9
343.872	49.34
344.082	50.55
344.293	51.08
344.504	50.37
344.714	49.73
344.925	49.14
345.136	48.66
345.346	48.4
345.557	49.38
345.768	48.29
345.978	48.12
346.189	47.44
346.399	47.06
346.61	46.12
346.821	45.99
347.031	47.6
347.242	48.92
347.452	49.13
347.663	48.52
347.873	47.59
348.084	48.42
348.294	47.55
348.504	46.28
348.715	47.95
348.925	47.41
349.136	46.82
349.346	46.29
349.557	44.11
349.767	43.59
349.977	45.35
350.188	45.47
350.398	44.94
350.608	44.87
350.819	45.16
351.029	44.52
351.239	44.95
351.449	46.82
351.66	45.79
351.87	46.79
352.08	47.7
352.29	46.15
352.501	46.75
352.711	46.31
352.921	47.16
353.131	48.49
353.341	47
353.552	46.85
353.762	45.28
353.972	46.44
354.182	46.54
354.392	46.32
354.602	47.56
354.812	46.51
355.022	47.07
355.232	47.1
355.442	47.16
355.652	47.3
355.862	47.98
356.072	47.33
356.282	47.09
356.492	46.05
356.702	45.68
356.912	45.78
357.122	46.7
357.332	47.29
357.542	46.88
357.752	46.68
357.962	47.46
358.171	47.17
358.381	47.4
358.591	46.94
358.801	47.53
359.011	48.37
359.221	47.09
359.43	46.77
359.64	45.26
359.85	45.09
360.06	44.7
360.269	44.32
360.479	44.35
360.689	45.01
360.899	44.61
361.108	44.87
361.318	44.92
361.528	45.84
361.737	45.19
361.947	45.3
362.156	45.31
362.366	45.16
362.576	45.34
362.785	45.15
362.995	45.25
363.204	45.42
363.414	44.38
363.623	44.14
363.833	43.83
364.042	44.26
364.252	45.5
364.461	45.7
364.671	46.06
364.88	45.41
365.09	45.61
365.299	45.45
365.509	45.25
365.718	45.63
365.927	44.79
366.137	45.06
366.346	45.28
366.555	45.2
366.765	44.43
366.974	43.84
367.183	44.52
367.393	43.28
367.602	43.13
367.811	43.34
368.021	44.57
368.23	44.89
368.439	44.46
368.648	43.6
368.857	42.75
369.067	42.71
369.276	43.57
369.485	42.75
369.694	43.45
369.903	43.32
370.112	42.41
370.321	40.95
370.531	40.92
370.74	40.3
370.949	40.59
371.158	39.93
371.367	39.96
371.576	38.6
371.785	39.05
371.994	38.51
372.203	37.92
372.412	38.5
372.621	38.23
372.83	37.82
373.039	38.39
373.248	37.91
373.457	37.96
373.666	37.24
373.874	36.96
374.083	36.32
374.292	36.69
374.501	37.16
374.71	36.64
374.919	36.7
375.128	37
375.336	35.92
375.545	35.8
375.754	35.64
375.963	35.77
376.171	36.86
376.38	36.93
376.589	36.5
376.798	36.65
377.006	36.24
377.215	36.38
377.424	35.72
377.632	35.86
377.841	35.26
378.05	35.67
378.258	35.97
378.467	34.94
378.675	34.14
378.884	34.27
379.093	33.54
379.301	33.56
379.51	33.01
379.718	33.21
379.927	33.4
380.135	34.21
380.344	33.42
380.552	33.33
380.761	32.86
380.969	33.3
381.177	33.22
381.386	33.22
381.594	33.48
381.803	33.64
382.011	33.23
382.219	32.4
382.428	32.37
382.636	32.46
382.845	32.59
383.053	32.88
383.261	32.74
383.469	32.28
383.678	32.08
383.886	32.26
384.094	31.65
384.302	31.65
384.511	31.83
384.719	31.25
384.927	31.88
385.135	31.7
385.343	31.72
385.552	31.43
385.76	31.25
385.968	30.94
386.176	30.15
386.384	30.34
386.592	29.65
386.8	29.81
387.008	29.93
387.216	29
387.424	28.42
387.633	27.77
387.841	27.91
388.049	27.55
388.257	27.72
388.465	27.56
388.672	27.39
388.88	27.97
389.088	27.84
389.296	27.57
389.504	27.58
389.712	27.64
389.92	27.77
390.128	27.48
390.336	27.45
390.544	27.26
390.751	27.35
390.959	27.15
391.167	26.78
391.375	26.63
391.583	26.88
391.79	26.73
391.998	26.82
392.206	26.63
392.414	26.44
392.621	26.28
392.829	26.18
393.037	26.39
393.244	26.62
393.452	26.69
393.66	26.66
393.867	26.32
394.075	26.16
394.283	25.85
394.49	26.14
394.698	26.63
394.905	26.57
395.113	26.41
395.32	26.18
395.528	25.95
395.735	25.64
395.943	25.72
396.15	25.52
396.358	25.46
396.565	25.44
396.773	25.25
396.98	24.81
397.188	24.65
397.395	24.38
397.602	24.32
397.81	23.98
398.017	24.46
398.225	24.5
398.432	24.32
398.639	24.38
398.847	24.9
399.054	25.23
399.261	25.23
399.468	25.64
399.676	26.31
399.883	25.83
400.09	26.41
400.297	26.07
400.505	25.7
400.712	26.09
400.919	26.16
401.126	25.63
401.333	25.26
401.54	24.99
401.748	25.22
401.955	25.08
402.162	25.55
402.369	25
402.576	25.06
402.783	24.88
402.99	24.67
403.197	24.84
403.404	24.85
403.611	24.85
403.818	24.75
404.025	24.47
404.232	24.21
404.439	24.05
404.646	24.23
404.853	24.27
405.06	24.35
405.267	24.29
405.474	24.28
405.681	24.45
405.887	24.35
406.094	24.78
406.301	24.73
406.508	24.68
406.715	24.96
406.922	25.36
407.128	25.27
407.335	24.91
407.542	24.93
407.749	24.68
407.955	24.25
408.162	24.41
408.369	24.17
408.575	24.23
408.782	24.43
408.989	24.19
409.195	23.91
409.402	23.93
409.609	24.4
409.815	24.53
410.022	24.64
410.228	24.9
410.435	24.97
410.642	24.89
410.848	24.85
411.055	24.83
411.261	24.86
411.468	24.55
411.674	24.4
411.881	24.36
412.087	24.12
412.294	23.86
412.5	23.78
412.706	23.39
412.913	23.44
413.119	23.74
413.326	23.47
413.532	23.51
413.738	23.94
413.945	23.63
414.151	23.41
414.357	23.49
414.564	23.83
414.77	23.62
414.976	23.83
415.182	23.7
415.389	23.25
415.595	23.24
415.801	23.15
416.007	22.8
416.214	23.1
416.42	23.13
416.626	22.97
416.832	22.74
417.038	22.83
417.244	22.84
417.45	22.73
417.657	22.74
417.863	22.65
418.069	22.34
418.275	22.22
418.481	22.29
418.687	22.45
418.893	22.54
419.099	22.51
419.305	22.58
419.511	22.36
419.717	22.44
419.923	22.52
420.129	22.58
420.335	22.77
420.541	22.9
420.746	22.88
420.952	22.75
421.158	22.72
421.364	22.49
421.57	22.38
421.776	22.46
421.982	22.61
422.187	22.51
422.393	22.42
422.599	22.49
422.805	22.35
423.01	22.2
423.216	22.23
423.422	22.2
423.628	22.32
423.833	22.35
424.039	22.11
424.245	21.89
424.45	21.77
424.656	21.76
424.862	21.62
425.067	21.59
425.273	21.66
425.478	21.59
425.684	21.54
425.889	21.61
426.095	21.65
426.301	21.84
426.506	21.57
426.712	21.49
426.917	21.65
427.123	21.54
427.328	21.52
427.533	21.56
427.739	21.78
427.944	21.76
428.15	21.59
428.355	21.59
428.561	21.54
428.766	21.84
428.971	22.01
429.177	21.89
429.382	22.01
429.587	22.31
429.793	21.99
429.998	21.84
430.203	21.91
430.408	22.15
430.614	21.94
430.819	21.82
431.024	22.02
431.229	22.02
431.434	22
431.64	21.84
431.845	21.96
432.05	22.17
432.255	22.08
432.46	21.94
432.665	21.77
432.87	21.79
433.076	22.05
433.281	21.95
433.486	22.08
433.691	22.09
433.896	22.13
434.101	21.78
434.306	21.56
434.511	21.5
434.716	21.56
434.921	21.68
435.126	21.58
435.331	21.46
435.535	21.66
435.74	21.64
435.945	21.43
436.15	21.63
436.355	21.63
436.56	21.61
436.765	21.82
436.97	21.81
437.174	21.8
437.379	21.9
437.584	22.01
437.789	21.84
437.993	21.81
438.198	21.93
438.403	21.92
438.608	22.05
438.812	22.12
439.017	21.94
439.222	21.93
439.426	21.93
439.631	21.92
439.836	21.78
440.04	21.79
440.245	21.69
440.45	21.68
440.654	21.44
440.859	21.52
441.063	21.58
441.268	21.69
441.472	21.55
441.677	21.57
441.881	21.62
442.086	21.6
442.29	21.65
442.495	21.62
442.699	21.65
442.904	21.89
443.108	21.81
443.312	21.66
443.517	21.58
443.721	21.72
443.925	21.67
444.13	21.62
444.334	21.54
444.538	21.37
444.743	21.44
444.947	21.46
445.151	21.34
445.356	21.15
445.56	21.19
445.764	21.2
445.968	21.27
446.173	21.21
446.377	21.28
446.581	21.41
446.785	21.33
446.989	21.18
447.193	21.14
447.398	21.27
447.602	21.42
447.806	21.5
448.01	21.45
448.214	21.49
448.418	21.42
448.622	21.38
448.826	21.33
449.03	21.46
449.234	21.66
449.438	21.68
449.642	21.59
449.846	21.53
450.05	21.48
450.254	21.34
450.458	21.15
450.662	21.14
450.866	21.01
451.069	21.06
451.273	21.01
451.477	20.8
451.681	20.81
451.885	20.84
452.089	20.96
452.292	20.94
452.496	21.21
452.7	21.24
452.904	21.29
453.107	21.55
453.311	21.49
453.515	21.42
453.719	21.65
453.922	21.36
454.126	21.14
454.33	21.02
454.533	20.97
454.737	20.74
454.94	20.55
455.144	20.75
455.348	20.54
455.551	20.63
455.755	20.59
455.958	20.41
456.162	20.62
456.365	20.84
456.569	21.15
456.772	21.24
456.976	21.3
457.179	21.26
457.383	21.17
457.586	21.12
457.79	21.05
457.993	21.11
458.196	21.22
458.4	21.35
458.603	21.21
458.807	20.97
459.01	20.93
459.213	20.98
459.417	21.02
459.62	21.1
459.823	21.13
460.026	21.1
460.23	21.12
460.433	21.04
460.636	21.21
460.839	21.24
461.042	21.22
461.246	21.25
461.449	21.29
461.652	21.4
461.855	21.14
462.058	21.02
462.261	21.11
462.464	21.13
462.668	21.22
462.871	20.99
463.074	20.96
463.277	21.01
463.48	20.98
463.683	21.05
463.886	21.08
464.089	21.3
464.292	21.55
464.495	21.56
464.698	21.48
464.901	21.56
465.104	21.4
465.306	21.36
465.509	21.32
465.712	21.54
465.915	21.35
466.118	21.43
466.321	21.29
466.524	21.13
466.726	20.98
466.929	21.08
467.132	21.02
467.335	21.17
467.538	21.27
467.74	21.44
467.943	21.3
468.146	21.31
468.348	21.39
468.551	21.62
468.754	21.66
468.956	21.84
469.159	21.91
469.362	21.86
469.564	21.92
469.767	21.83
469.969	21.92
470.172	22.04
470.375	22.01
470.577	21.98
470.78	21.86
470.982	21.93
471.185	21.71
471.387	21.6
471.59	21.54
471.792	21.4
471.995	21.54
472.197	21.54
472.399	21.27
472.602	21.35
472.804	21.42
473.007	21.27
473.209	21.29
473.411	21.2
473.614	21.3
473.816	21.5
474.018	21.47
474.22	21.5
474.423	21.53
474.625	21.66
474.827	21.95
475.03	21.83
475.232	21.89
475.434	21.83
475.636	22.03
475.838	22.03
476.04	22
476.243	22.02
476.445	21.91
476.647	21.68
476.849	21.67
477.051	21.48
477.253	21.62
477.455	21.66
477.657	21.83
477.859	21.88
478.061	21.9
478.263	21.92
478.465	21.9
478.667	21.67
478.869	21.67
479.071	21.73
479.273	21.8
479.475	21.64
479.677	21.65
479.879	21.6
480.081	21.38
480.283	21.18
480.485	21.38
480.686	21.39
480.888	21.7
481.09	21.9
481.292	21.73
481.494	21.65
481.695	21.74
481.897	21.73
482.099	21.69
482.301	21.75
482.502	21.75
482.704	21.54
482.906	21.5
483.107	21.46
483.309	21.29
483.511	21.32
483.712	21.24
483.914	21.22
484.115	21.26
484.317	21.24
484.519	21.28
484.72	21.24
484.922	21.25
485.123	21.25
485.325	21.25
485.526	21.3
485.728	21.32
485.929	21.35
486.131	21.3
486.332	21.27
486.534	21.23
486.735	21.15
486.936	21.34
487.138	21.41
487.339	21.48
487.541	21.38
487.742	21.38
487.943	21.36
488.144	21.29
488.346	21.32
488.547	21.31
488.748	21.29
488.95	21.32
489.151	21.21
489.352	21.13
489.553	20.96
489.755	21.04
489.956	21.03
490.157	21
490.358	21.17
490.559	21.21
490.76	21.23
490.961	21.26
491.163	21.26
491.364	21.24
491.565	21.19
491.766	21.32
491.967	21.39
492.168	21.37
492.369	21.42
492.57	21.44
492.771	21.43
492.972	21.37
493.173	21.38
493.374	21.47
493.575	21.49
493.776	21.55
493.976	21.45
494.177	21.38
494.378	21.35
494.579	21.26
494.78	21.06
494.981	21.1
495.182	21.2
495.382	21.25
495.583	21.09
495.784	21.04
495.985	21.17
496.185	21.2
496.386	21.4
496.587	21.61
496.788	21.83
496.988	22.08
497.189	22.08
497.39	22.2
497.59	22.33
497.791	22.39
497.992	22.39
498.192	22.36
498.393	22.53
498.593	22.43
498.794	22.58
498.994	22.42
499.195	22.34
499.395	22.28
499.596	22.09
499.796	21.97
499.997	22.28
500.197	22.48
500.398	22.49
500.598	22.51
500.799	22.58
500.999	22.39
501.199	22.69
501.4	22.83
501.6	22.94
501.801	23.27
502.001	23.38
502.201	23.34
502.402	23.57
502.602	23.65
502.802	23.87
503.002	24
503.203	23.94
503.403	24.01
503.603	24.05
503.803	24.28
504.003	24.14
504.204	24.25
504.404	23.95
504.604	23.82
504.804	24.05
505.004	23.9
505.204	23.85
505.404	24.23
505.604	24.14
505.804	24.23
506.005	24.41
506.205	24.55
506.405	24.56
506.605	24.86
506.805	25.01
507.005	24.96
507.204	25.11
507.404	25.28
507.604	25.22
507.804	25.48
508.004	25.72
508.204	25.77
508.404	25.82
508.604	25.85
508.804	25.83
509.003	25.91
509.203	26.1
509.403	26.31
509.603	26.41
509.803	26.54
510.002	26.49
510.202	26.44
510.402	26.31
510.602	26.51
510.801	26.68
511.001	26.85
511.201	26.99
511.4	27.05
511.6	26.99
511.8	27.04
511.999	27.08
512.199	27.08
512.398	27.2
512.598	27.45
512.797	27.47
512.997	27.45
513.197	27.62
513.396	27.64
513.596	27.71
513.795	27.76
513.994	27.94
514.194	28.1
514.393	28.39
514.593	28.37
514.792	28.41
514.992	28.46
515.191	28.62
515.39	28.75
515.59	29.04
515.789	29.04
515.988	29.35
516.188	29.54
516.387	29.65
516.586	29.7
516.786	29.8
516.985	29.96
517.184	30.39
517.383	30.67
517.582	30.62
517.782	30.58
517.981	30.68
518.18	30.86
518.379	30.96
518.578	30.95
518.777	31.14
518.976	31.35
519.176	31.41
519.375	31.31
519.574	31.34
519.773	31.48
519.972	31.49
520.171	31.69
520.37	31.78
520.569	31.85
520.768	31.98
520.967	31.98
521.166	31.94
521.365	31.91
521.564	32.06
521.762	32.02
521.961	32.14
522.16	32.36
522.359	32.53
522.558	32.54
522.757	32.56
522.956	32.62
523.154	32.74
523.353	32.98
523.552	33.37
523.751	33.53
523.949	33.58
524.148	33.73
524.347	33.85
524.546	33.91
524.744	33.86
524.943	33.96
525.142	34.14
525.34	34.26
525.539	34.23
525.737	34.07
525.936	34.03
526.135	34.28
526.333	34.32
526.532	34.44
526.73	34.37
526.929	34.57
527.127	34.57
527.326	34.7
527.524	34.75
527.723	34.92
527.921	35.03
528.12	35.06
528.318	35.06
528.516	35.15
528.715	35.2
528.913	35.34
529.112	35.42
529.31	35.47
529.508	35.46
529.707	35.55
529.905	35.6
530.103	35.65
530.301	35.84
530.5	35.97
530.698	36.05
530.896	36.08
531.094	36.05
531.293	36.09
531.491	36.19
531.689	36.34
531.887	36.23
532.085	36.34
532.283	36.57
532.481	36.64
532.68	36.69
532.878	36.69
533.076	36.74
533.274	36.9
533.472	36.81
533.67	36.88
533.868	36.88
534.066	37.05
534.264	36.96
534.462	36.99
534.66	36.98
534.858	37.04
535.056	37.09
535.253	37.13
535.451	37.12
535.649	37.21
535.847	37.41
536.045	37.42
536.243	37.55
536.441	37.65
536.638	37.62
536.836	37.65
537.034	37.76
537.232	37.85
537.43	37.94
537.627	38.09
537.825	38.16
538.023	37.96
538.22	38.04
538.418	38
538.616	37.97
538.813	38
539.011	37.98
539.209	37.69
539.406	37.87
539.604	37.81
539.801	37.95
539.999	38.06
540.196	38.2
540.394	38.33
540.591	38.34
540.789	38.49
540.986	38.55
541.184	38.76
541.381	38.87
541.579	38.84
541.776	38.93
541.974	38.93
542.171	39.01
542.368	39.11
542.566	39.07
542.763	39.11
542.96	39.14
543.158	39.09
543.355	39.08
543.552	39.21
543.75	39.17
543.947	39.28
544.144	39.22
544.341	39.18
544.539	39.19
544.736	39.2
544.933	39.21
545.13	39.35
545.327	39.56
545.524	39.49
545.722	39.47
545.919	39.72
546.116	39.81
546.313	39.69
546.51	39.81
546.707	39.84
546.904	39.99
547.101	40.13
547.298	40.08
547.495	39.94
547.692	40.07
547.889	39.98
548.086	39.71
548.283	39.61
548.48	39.93
548.677	39.98
548.874	40.07
549.07	40.28
549.267	40.07
549.464	40.13
549.661	40.38
549.858	40.31
550.055	40.73
550.251	41.06
550.448	41.06
550.645	41.08
550.842	40.91
551.038	40.86
551.235	40.83
551.432	41.04
551.628	41
551.825	41.14
552.022	40.96
552.218	40.87
552.415	40.88
552.612	40.88
552.808	40.77
553.005	40.9
553.201	40.96
553.398	40.92
553.594	41.13
553.791	41.24
553.987	40.98
554.184	41.06
554.38	41.03
554.577	41.05
554.773	41.11
554.97	41.33
555.166	41.46
555.362	41.51
555.559	41.54
555.755	41.31
555.952	41.32
556.148	41.31
556.344	41.46
556.541	41.6
556.737	41.68
556.933	41.63
557.129	41.45
557.326	41.31
557.522	41.32
557.718	41.21
557.914	41.4
558.11	41.28
558.307	41.54
558.503	41.61
558.699	41.47
558.895	41.38
559.091	41.63
559.287	41.49
559.483	41.82
559.679	41.91
559.876	41.94
560.072	41.95
560.268	42.18
560.464	42.07
560.66	42.05
560.856	42.3
561.052	42.18
561.247	42.01
561.443	42.25
561.639	42.07
561.835	42.1
562.031	42.29
562.227	42.37
562.423	42.44
562.619	42.4
562.815	42.33
563.01	41.99
563.206	41.94
563.402	41.99
563.598	42.18
563.793	42.22
563.989	42.3
564.185	42.19
564.381	41.96
564.576	41.57
564.772	41.7
564.968	41.94
565.163	42
565.359	42.18
565.555	42.27
565.75	42.43
565.946	42.4
566.141	42.15
566.337	42.3
566.532	42.56
566.728	42.78
566.923	42.71
567.119	42.63
567.314	42.69
567.51	42.75
567.705	42.98
567.901	42.69
568.096	42.84
568.292	43.2
568.487	43.04
568.682	43.09
568.878	43.18
569.073	43.47
569.268	43.71
569.464	44.12
569.659	44.4
569.854	44.23
570.05	44.4
570.245	44.24
570.44	44.24
570.635	44.37
570.831	44.36
571.026	44.34
571.221	44.12
571.416	43.97
571.611	43.83
571.806	43.58
572.002	43.3
572.197	43.15
572.392	43.17
572.587	43.05
572.782	43.12
572.977	43.15
573.172	43.16
573.367	43.21
573.562	43.2
573.757	43.23
573.952	43.24
574.147	43.56
574.342	43.74
574.537	43.84
574.732	43.86
574.927	43.93
575.121	43.94
575.316	44.21
575.511	44.37
575.706	44.55
575.901	44.67
576.096	44.73
576.29	44.69
576.485	44.69
576.68	44.68
576.875	44.78
577.069	44.7
577.264	44.85
577.459	44.62
577.654	44.58
577.848	44.18
578.043	44.19
578.238	44.31
578.432	44.34
578.627	44.4
578.821	44.38
579.016	44.49
579.21	44.49
579.405	44.06
579.6	43.99
579.794	44.13
579.989	44.67
580.183	44.57
580.378	44.62
580.572	44.66
580.766	44.48
580.961	44.84
581.155	44.79
581.35	45.11
581.544	45.44
581.738	45.69
581.933	45.78
582.127	45.48
582.321	45.33
582.516	45.15
582.71	45.28
582.904	45.57
583.099	45.49
583.293	45.5
583.487	45.12
583.681	44.86
583.875	44.77
584.07	44.68
584.264	44.94
584.458	45.07
584.652	45.36
584.846	45.66
585.04	45.75
585.234	45.54
585.428	45.37
585.623	45.66
585.817	45.76
586.011	45.77
586.205	45.64
586.399	45.55
586.593	45.61
586.787	45.62
586.981	45.41
587.174	45.24
587.368	45.45
587.562	45.54
587.756	45.56
587.95	45.7
588.144	45.84
588.338	46.06
588.532	46.5
588.725	46.58
588.919	46.5
589.113	46.47
589.307	46.59
589.501	46.84
589.694	47.13
589.888	47.19
590.082	47.29
590.275	47.09
590.469	47.2
590.663	46.82
590.856	46.74
591.05	46.79
591.244	47.12
591.437	47.15
591.631	46.91
591.824	46.7
592.018	46.5
592.212	46.54
592.405	46.82
592.599	46.9
592.792	47.02
592.986	47.32
593.179	47.14
593.372	46.99
593.566	47
593.759	47.13
593.953	47.18
594.146	47.22
594.339	47.28
594.533	47.24
594.726	47.17
594.92	47.07
595.113	46.97
595.306	47.18
595.499	47.08
595.693	47.18
595.886	47.16
596.079	47.25
596.272	47.29
596.466	47.19
596.659	47.21
596.852	47.3
597.045	47.52
597.238	47.56
597.431	47.89
597.624	48.06
597.818	48.15
598.011	48
598.204	48.05
598.397	48.17
598.59	48.34
598.783	48.42
598.976	48.44
599.169	48.46
599.362	48.69
599.555	48.43
599.748	48.32
599.941	48.08
600.134	47.95
600.326	48.47
600.519	48.66
600.712	48.61
600.905	48.5
601.098	48.39
601.291	48.43
601.483	48.33
601.676	48.48
601.869	48.8
602.062	49.04
602.255	49.41
602.447	49.03
602.64	49.2
602.833	49.15
603.025	49.42
603.218	49.54
603.411	49.67
603.603	49.64
603.796	49.6
603.989	49.36
604.181	49.41
604.374	49.22
604.566	49.29
604.759	49
604.951	49.26
605.144	49.06
605.336	49.18
605.529	48.75
605.721	48.75
605.914	48.8
606.106	48.7
606.299	48.85
606.491	49.25
606.683	49.23
606.876	49.45
607.068	49.38
607.26	49.57
607.453	49.36
607.645	49.61
607.837	49.49
608.03	49.4
608.222	49.28
608.414	49.04
608.606	48.75
608.799	48.7
608.991	48.62
609.183	48.4
609.375	48.34
609.567	48.42
609.759	48.43
609.952	48.36
610.144	48.23
610.336	48.43
610.528	48.3
610.72	48.18
610.912	47.96
611.104	47.88
611.296	48.07
611.488	47.99
611.68	48.02
611.872	48.14
612.064	48.17
612.256	48.38
612.448	48.63
612.64	48.59
612.832	48.91
613.023	49.53
613.215	49.55
613.407	49.54
613.599	49.45
613.791	49.24
613.983	49.28
614.174	49.12
614.366	49.06
614.558	48.94
614.75	48.95
614.941	48.73
615.133	48.46
615.325	48.61
615.516	48.67
615.708	48.94
615.9	48.87
616.091	48.98
616.283	49.46
616.475	49.14
616.666	48.98
616.858	49.33
617.049	49.35
617.241	48.94
617.432	48.78
617.624	48.77
617.815	48.78
618.007	49.01
618.198	48.96
618.39	48.97
618.581	49.48
618.773	49.33
618.964	49.27
619.155	49.31
619.347	49.63
619.538	50.11
619.729	49.97
619.921	49.98
620.112	49.82
620.303	49.62
620.494	49.61
620.686	49.33
620.877	49.99
621.068	50.03
621.259	50.22
621.451	50.31
621.642	50.25
621.833	50.41
622.024	50.17
622.215	50.23
622.406	50.39
622.597	50.38
622.788	50.66
622.98	50.54
623.171	50.58
623.362	50.8
623.553	50.75
623.744	50.55
623.935	50.65
624.126	50.88
624.317	51.08
624.508	50.99
624.698	50.82
624.889	50.45
625.08	50.2
625.271	50.06
625.462	49.79
625.653	49.49
625.844	49.57
626.034	49.23
626.225	49.23
626.416	49.01
626.607	49.18
626.798	49.23
626.988	49.52
627.179	49.79
627.37	49.79
627.56	49.64
627.751	50.06
627.942	49.86
628.132	50.12
628.323	50.05
628.514	50.24
628.704	50.29
628.895	50.2
629.085	50.1
629.276	49.65
629.466	49.69
629.657	49.82
629.847	49.67
630.038	49.49
630.228	49.4
630.419	49.65
630.609	49.69
630.8	49.13
630.99	49.01
631.181	49.08
631.371	49.09
631.561	49.02
631.752	49.14
631.942	49.1
632.132	49.3
632.323	49.59
632.513	49.49
632.703	49.34
632.893	50.13
633.084	50.67
633.274	50.43
633.464	50.87
633.654	51.05
633.844	51.03
634.034	51.09
634.225	51.05
634.415	50.79
634.605	50.83
634.795	51.19
634.985	50.77
635.175	50.83
635.365	51.15
635.555	51.16
635.745	51.3
635.935	51.24
636.125	51.07
636.315	51.29
636.505	51.51
636.695	51.33
636.885	50.86
637.075	50.8
637.265	50.65
637.455	51
637.644	50.68
637.834	50.53
638.024	50.81
638.214	50.81
638.404	50.47
638.593	50.18
638.783	49.87
638.973	50.05
639.163	50.74
639.352	50.58
639.542	49.94
639.732	49.79
639.921	49.82
640.111	49.54
640.301	49.42
640.49	49.76
640.68	49.92
640.87	50.26
641.059	50.18
641.249	49.26
641.438	49.53
641.628	50.11
641.817	50.4
642.007	50.26
642.196	50.07
642.386	50.71
642.575	50.51
642.764	50.16
642.954	50.37
643.143	50.61
643.333	51.46
643.522	51.55
643.711	51.15
643.901	51.22
644.09	51.02
644.279	51.58
644.469	51.57
644.658	51.49
644.847	51.98
645.036	51.97
645.226	51.81
645.415	51.61
645.604	51.3
645.793	51.41
645.982	51.49
646.171	51.87
646.361	51.43
646.55	51.22
646.739	51.79
646.928	51.74
647.117	51.75
647.306	52
647.495	51.6
647.684	51.4
647.873	51.42
648.062	51.29
648.251	51.01
648.44	51.06
648.629	50.67
648.818	50.9
649.007	50.7
649.196	50.77
649.384	50.48
649.573	50.74
649.762	50.85
649.951	50.64
650.14	50.59
650.328	50.51
650.517	50.81
650.706	51.47
650.895	51
651.083	50.96
651.272	51.14
651.461	51.52
651.65	51.33
651.838	51.53
652.027	51.66
652.216	51.55
652.404	51.71
652.593	51.43
652.781	51.1
652.97	50.45
653.158	50.67
653.347	50.35
653.535	50.28
653.724	50.49
653.912	50.47
654.101	50.37
654.289	50.62
654.478	51.24
654.666	51.26
654.855	51.23
655.043	51.92
655.231	51.59
655.42	51.96
655.608	51.74
655.796	51.83
655.985	51.74
656.173	51.64
656.361	51.48
656.55	50.92
656.738	51.13
656.926	51.23
657.114	50.85
657.302	51.2
657.491	50.86
657.679	50.93
657.867	50.28
658.055	50.36
658.243	50.64
658.431	50.54
658.619	50.41
658.807	50.25
658.996	50.1
659.184	50.71
659.372	50.68
659.56	50.87
659.748	51.2
659.936	51.47
660.124	51.18
660.311	50.93
660.499	51.09
660.687	51.48
660.875	51.62
661.063	52.01
661.251	51.76
661.439	52.03
661.627	51.82
661.814	51.08
662.002	50.98
662.19	51.57
662.378	52.02
662.565	52.07
662.753	51.69
662.941	51.84
663.129	51.7
663.316	51.37
663.504	51.63
663.692	51.61
663.879	51.74
664.067	52.16
664.254	51.58
664.442	51.65
664.63	51.21
664.817	50.6
665.005	50.47
665.192	50.09
665.38	50.24
665.567	49.75
665.755	49.99
665.942	50.22
666.13	50.29
666.317	50.3
666.504	49.84
666.692	50.02
666.879	50.41
667.067	50.44
667.254	50.74
667.441	50.97
667.629	51.13
667.816	51.21
668.003	51.31
668.19	51.37
668.378	51.63
668.565	51.36
668.752	51.57
668.939	51.77
669.127	51.86
669.314	51.84
669.501	51.89
669.688	51.67
669.875	51.42
670.062	51.73
670.249	51.14
670.436	51.01
670.623	51.77
670.81	51.62
670.997	51.34
671.184	51.42
671.371	51.48
671.558	51.29
671.745	51.51
671.932	51.48
672.119	50.94
672.306	51.4
672.493	51.35
672.68	51.12
672.867	51.47
673.054	51.93
673.24	51.36
673.427	51.49
673.614	51.29
673.801	50.62
673.988	50.96
674.174	51.25
674.361	50.7
674.548	50.98
674.734	51.3
674.921	51.43
675.108	51.07
675.294	51.41
675.481	51.35
675.668	52.13
675.854	52.31
676.041	52.03
676.227	51.51
676.414	51.81
676.601	51.85
676.787	51.04
676.974	50.92
677.16	51.13
677.347	51.27
677.533	51.41
677.719	50.78
677.906	50.72
678.092	51.12
678.279	51.51
678.465	51.32
678.651	51.54
678.838	51.18
679.024	50.7
679.21	50.69
679.397	50.83
679.583	50.54
679.769	50.8
679.955	51.14
680.142	50.74
680.328	50.73
680.514	51.2
680.7	51.43
680.886	51.99
681.073	52.7
681.259	52.82
681.445	52.61
681.631	52.33
681.817	52.38
682.003	52.38
682.189	51.93
682.375	51.8
682.561	51.79
682.747	51.51
682.933	51.85
683.119	51.35
683.305	51.6
683.491	52.01
683.677	52.25
683.863	52.08
684.049	52.61
684.235	53.56
684.42	53.9
684.606	53.35
684.792	53.17
684.978	52.83
685.164	52.78
685.349	51.82
685.535	51.15
685.721	51.21
685.907	51.17
686.092	50.91
686.278	50.43
686.464	50.25
686.649	50.81
686.835	50.75
687.021	50.31
687.206	50.3
687.392	51.3
687.577	51.9
687.763	51.73
687.948	51.47
688.134	50.9
688.319	50.91
688.505	50.78
688.69	51.04
688.876	51.35
689.061	51.47
689.247	51.33
689.432	50.71
689.618	50.71
689.803	51.51
689.988	51.19
690.174	51.49
690.359	51.86
690.544	51.78
690.73	51.14
690.915	50.95
691.1	51.55
691.285	51.56
691.471	51.99
691.656	51.83
691.841	51.14
692.026	50.83
692.211	50.69
692.396	50.06
692.582	50.49
692.767	50.76
692.952	49.88
693.137	49.44
693.322	50.54
693.507	51.14
693.692	51.24
693.877	51.65
694.062	52.53
694.247	52.18
694.432	53.02
694.617	52.47
694.802	52.76
694.987	53.92
695.172	54.57
695.357	53.72
695.541	52.84
695.726	52.56
695.911	51.98
696.096	52.32
696.281	53.25
696.466	52.63
696.65	52.95
696.835	52.98
697.02	52.48
697.204	52.3
697.389	51.84
697.574	51.75
697.759	52.08
697.943	52.17
698.128	51.72
698.312	51.33
698.497	51.38
698.682	50.97
698.866	50.49
699.051	50.1
699.235	49.97
699.42	50.21
699.604	50.45
699.789	50.05
699.973	50.06
700.158	50.51
700.342	50.33
700.527	49.96
700.711	50.18
700.895	50.09
701.08	50.87
701.264	50.64
701.448	50.58
701.633	50.18
701.817	50.49
702.001	50.62
702.186	49.99
702.37	50.7
702.554	51.29
702.738	51.86
702.923	52.76
703.107	52.3
703.291	52.78
703.475	52.99
703.659	52.9
703.843	52.47
704.027	52.38
704.212	52.68
704.396	52.46
704.58	52.84
704.764	53.08
704.948	52.38
705.132	52.55
705.316	51.53
705.5	51.43
705.684	51.99
705.868	52.48
706.052	52.23
706.235	52.3
706.419	51.59
706.603	52.25
706.787	51.88
706.971	52.34
707.155	51.99
707.339	52.82
707.522	52.86
707.706	52.17
707.89	51.33
708.074	51.55
708.257	51.7
708.441	51.82
708.625	51.01
708.808	50.74
708.992	50.7
709.176	50.52
709.359	50.13
709.543	50.11
709.727	50.12
709.91	51.12
710.094	51.29
710.277	51.44
710.461	51.33
710.644	51.64
710.828	52.2
711.011	51.96
711.195	52.29
711.378	52.89
711.562	52.49
711.745	51.78
711.928	51.36
712.112	51.3
712.295	51.23
712.478	51.54
712.662	50.92
712.845	50.23
713.028	49.82
713.212	49.47
713.395	49.06
713.578	49.32
713.761	50.46
713.945	50.13
714.128	50.91
714.311	50.59
714.494	50.97
714.677	51.23
714.86	51.78
715.043	51.77
715.227	52.3
715.41	52.52
715.593	52.17
715.776	52.28
715.959	52.43
716.142	51.9
716.325	51.88
716.508	51.55
716.691	51.38
716.874	50.9
717.057	50.95
717.239	50.78
717.422	51.13
717.605	51.42
717.788	51.71
717.971	51.92
718.154	51.87
718.337	51.72
718.519	52.26
718.702	52.35
718.885	52.31
719.068	52.51
719.25	52.7
719.433	51.65
719.616	52.78
719.798	52.69
719.981	52.49
720.164	52.1
720.346	52.17
720.529	52.05
720.712	52.99
720.894	53.53
721.077	54.15
721.259	53.99
721.442	54.27
721.624	53.8
721.807	53.61
721.989	53.19
722.172	52.89
722.354	52.28
722.537	50.85
722.719	50.15
722.901	50.08
723.084	50
723.266	49.13
723.448	50.42
723.631	50.48
723.813	50.56
723.995	50.73
724.178	51.43
724.36	52.44
724.542	53.14
724.724	53.47
724.907	53.27
725.089	53.96
725.271	55.73
725.453	54.79
725.635	54.05
725.817	53.8
725.999	54.47
726.181	54.89
726.364	54.31
726.546	54.11
726.728	53.2
726.91	52.73
727.092	51.22
727.274	50.44
727.456	51.36
727.638	51.7
727.819	51.77
728.001	51.44
728.183	50.77
728.365	51.43
728.547	51.56
728.729	51.77
728.911	51.6
729.093	52.35
729.274	52.27
729.456	51.03
729.638	50.93
729.82	50.56
730.001	50.29
730.183	50.94
730.365	50.75
730.546	51.28
730.728	51.37
730.91	52.09
731.091	51.65
731.273	51.25
731.455	51.62
731.636	51.69
731.818	52.15
731.999	51.97
732.181	51.03
732.362	50.77
732.544	50.64
732.725	49.84
732.907	49.37
733.088	50.3
733.27	50.99
733.451	51.06
733.633	51.9
733.814	52.87
733.995	52.92
734.177	52.9
734.358	52.67
734.539	52.6
734.721	53.01
734.902	52.73
735.083	52.3
735.264	52.67
735.446	53.32
735.627	53.23
735.808	52.04
735.989	52.72
736.17	53.8
736.351	54.28
736.533	55.05
736.714	55.16
736.895	55.7
737.076	56.9
737.257	55.04
737.438	53.95
737.619	52.92
737.8	52.81
737.981	53.61
738.162	53.6
738.343	54.67
738.524	53.33
738.705	53.56
738.886	54.02
739.067	51.39
739.247	52.53
739.428	53.27
739.609	53.79
739.79	54.75
739.971	52.96
740.151	52.28
740.332	51.4
740.513	52.33
740.694	52.22
740.874	51.91
741.055	51.78
741.236	51.48
741.417	50.04
741.597	49.3
741.778	48.31
741.958	48.42
742.139	49.42
742.32	49.53
742.5	49.7
742.681	50.71
742.861	50.76
743.042	52.79
743.222	52.61
743.403	53.31
743.583	54.15
743.764	54.54
743.944	55.85
744.124	54.41
744.305	53.29
744.485	53.62
744.666	51.92
744.846	51.41
745.026	51.13
745.207	52.03
745.387	51.61
745.567	52.26
745.747	52.75
745.928	53.44
746.108	55.17
746.288	56.56
746.468	54.81
746.648	55.48
746.829	55.68
747.009	55.47
747.189	54.56
747.369	55.37
747.549	53.49
747.729	52.3
747.909	50.78
748.089	50.9
748.269	49.8
748.449	50.63
748.629	50.07
748.809	49.88
748.989	49.6
749.169	50.01
749.349	50.82
749.529	51.86
749.709	52.76
749.889	52.33
750.068	51.88
750.248	52.26
750.428	51.43
750.608	52.32
750.788	53.47
750.967	54.18
751.147	54.86
751.327	53.17
751.507	54.85
751.686	55.5
751.866	56.95
752.046	56.61
752.225	56.62
752.405	56.49
752.585	56.17
752.764	55.13
752.944	55.83
753.123	56.26
753.303	58.49
753.482	56.17
753.662	56.1
753.841	54.1
754.021	54.26
754.2	54.21
754.38	54.82
754.559	55.91
754.739	56.2
754.918	53.58
755.097	53.25
755.277	50.22
755.456	51.05
755.635	49.96
755.815	51.6
755.994	51.92
756.173	52.32
756.352	52.11
756.532	50.42
756.711	51.76
756.89	52.4
757.069	50.4
757.248	52.45
757.427	51.6
757.607	52.86
757.786	53
757.965	52.24
758.144	52.45
758.323	52.61
758.502	54.63
758.681	54.22
758.86	54.7
759.039	55.1
759.218	55.36
759.397	56.75
759.576	55.46
759.755	54.03
759.934	53.43
760.113	52.6
760.291	53.44
760.47	51.69
760.649	51.75
760.828	51.86
761.007	52.84
761.186	52.18
761.364	51.76
761.543	50.98
761.722	52.54
761.901	52.93
762.079	53.67
762.258	53.02
762.437	53.88
762.615	52.67
762.794	52.69
762.972	52.46
763.151	52.98
763.33	51.89
763.508	51.11
763.687	50.58
763.865	51.75
764.044	50.84
764.222	51.38
764.401	51.33
764.579	51.67
764.758	51.13
764.936	50.44
765.114	50.67
765.293	50.9
765.471	51.87
765.65	52.71
765.828	51.36
766.006	52.07
766.184	50.98
766.363	51.68
766.541	51.8
766.719	51.96
766.898	52.85
767.076	51.93
767.254	52.64
767.432	52.2
767.61	52.47
767.788	52.06
767.967	51.61
768.145	52.71
768.323	51.67
768.501	52.13
768.679	52.67
768.857	51.94
769.035	52.09
769.213	53.31
769.391	53.46
769.569	51.64
769.747	52.09
769.925	52.87
770.103	52.89
770.281	51.56
770.459	51.97
770.636	52.57
770.814	54.04
770.992	55.69
771.17	54.65
771.348	55.45
771.525	55.26
771.703	57.62
771.881	57.6
772.059	57.86
772.236	58.34
772.414	58.54
772.592	56.91
772.769	57.37
772.947	54.87
773.125	55.41
773.302	54.51
773.48	56.84
773.657	55.97
773.835	54.89
774.013	55.63
774.19	55.82
774.368	54.11
774.545	55
774.723	53.67
774.9	53.56
775.077	51.87
775.255	56.53
775.432	57.88
775.61	58.96
775.787	58.4
775.964	57.86
776.142	61.24
776.319	60.3
776.496	61
776.674	62.76
776.851	60.23
777.028	59.08
777.205	55.73
777.382	51.53
777.56	49.5
777.737	52.43
777.914	50.61
778.091	47.64
778.268	46.6
778.445	47.21
778.622	45.03
778.8	48.63
778.977	51.36
779.154	52.73
779.331	54.65
779.508	53.99
779.685	49.44
779.862	49.87
780.038	49.86
780.215	51.9
780.392	52.3
780.569	53.37
780.746	52.58
780.923	53.98
781.1	54.27
781.277	54.78
781.453	53.43
781.63	55.89
781.807	56.72
781.984	58.9
782.16	60.55
782.337	59.83
782.514	60.66
782.691	58.46
782.867	54.04
783.044	51.49
783.221	51.19
783.397	53.89
783.574	53.99
783.75	54.62
783.927	56.16
784.103	56.43
784.28	56.54
784.456	56.89
784.633	58.63
784.809	59.09
784.986	60.13
785.162	59.34
785.339	57.52
785.515	59.08
785.692	58.77
785.868	55.28
786.044	52.83
786.221	52.82
786.397	51.44
786.573	52.27
786.749	55.13
786.926	54.14
787.102	57.8
787.278	57.77
787.454	55.53
787.631	55.38
787.807	53.9
787.983	54.28
788.159	54.27
788.335	54.58
788.511	51.04
788.687	50.15
788.863	52.39
789.039	47.03
789.216	47.32
789.392	47.82
789.568	46.37
789.744	48.03
789.919	49.55
790.095	48.01
790.271	50.21
790.447	52.23
790.623	49.32
790.799	50.02
790.975	52.12
791.151	53.32
791.327	55.19
791.502	54.05
791.678	53.84
791.854	53.96
792.03	53.88
792.205	50.07
792.381	51.01
792.557	54.44
792.733	51
792.908	49.43
793.084	50.91
793.259	52.65
793.435	53.32
793.611	54.57
793.786	53.73
793.962	55.5
794.137	56.88
794.313	56.18
794.488	50.99
794.664	51.36
794.839	51.18
795.015	48.58
795.19	46.62
795.366	49.56
795.541	49.63
795.716	48.88
795.892	48.6
796.067	48.72
796.242	48.57
796.418	49.57
796.593	51.79
796.768	53.68
796.944	55.23
797.119	54.93
797.294	55.32
797.469	52.42
797.644	53.55
797.82	53.16
797.995	56.5
798.17	57.54
798.345	59.72
798.52	56.05
798.695	54.57
798.87	49.98
799.045	48.61
799.22	46.17
799.395	45.47
799.57	44.06
799.745	45.41
799.92	41.28
800.095	41.68
800.27	42.82
800.445	41.82
800.62	41.35
800.795	48.6
800.97	48.5
801.145	50.42
801.319	54.1
801.494	56.49
801.669	57.24
801.844	54.96
802.018	55.04
802.193	53.37
802.368	59.66
802.543	64.13
802.717	59.4
802.892	66.04
803.067	65.65
803.241	69.73
803.416	65.03
803.59	64
803.765	65.93
803.94	66.72
804.114	70.39
804.289	66.64
804.463	60.81
804.638	63.22
804.812	60.53
804.986	59.95
805.161	59.23
805.335	62.94
805.51	62.35
805.684	66.53
805.858	64.42
806.033	59.36
806.207	61.13
806.381	62.12
806.556	64.95
806.73	63.11
806.904	57.07
807.078	50.91
807.253	47.82
807.427	47.23
807.601	42.63
807.775	43.85
807.949	45.31
808.123	43.49
808.298	44.63
808.472	41.99
808.646	38.89
808.82	43.4
808.994	47.47
809.168	45.87
809.342	49.93
809.516	54.41
809.69	53.9
809.864	54.95
810.038	51.99
810.212	58.06
810.385	55.98
810.559	61.78
810.733	60.75
810.907	61.42
811.081	67.64
811.255	66.29
811.428	59.7
811.602	57.65
811.776	51.86
811.95	54.57
812.123	51.04
812.297	56.37
812.471	55.75
812.644	61.35
812.818	60.22
812.992	58.74
813.165	56.12
813.339	55.2
813.512	58.39
813.686	66.54
813.86	63.78
814.033	59.85
814.207	54.81
814.38	51.45
814.554	53.74
814.727	56.36
814.9	55.59
815.074	61.36
815.247	63.77
815.421	60.86
815.594	61.25
815.767	63.08
815.941	67.88
816.114	71.34
816.287	68.22
816.46	64.1
816.634	60.79
816.807	61.25
816.98	60.95
817.153	63.44
817.327	60.26
817.5	57.92
817.673	61.91
817.846	60.23
818.019	55.93
818.192	58.92
818.365	57.87
818.538	54.54
818.711	47.83
818.884	47.56
819.057	49.78
819.23	49.62
819.403	50.99
819.576	48.73
819.749	50.64
819.922	50.4
820.095	50.34
820.268	51.59
820.441	52.89
820.614	57.55
820.786	53.25
820.959	51.39
821.132	54.66
821.305	52
821.477	52.82
821.65	51.23
821.823	51.61
821.996	51.85
822.168	51.72
822.341	52.43
822.514	52.79
822.686	52
822.859	52.04
823.031	50.56
823.204	50.79
823.376	50.98
823.549	50.06
823.722	49.93
823.894	49.28
824.067	48.15
824.239	47.73
824.411	47.37
824.584	48.06
824.756	47.73
824.929	48.94
825.101	49.91
825.273	49.8
825.446	50.84
825.618	50.53
825.79	51.73
825.963	52.35
826.135	52.33
826.307	50.5
826.479	49.96
826.652	50.41
826.824	50.55
826.996	49.07
827.168	48.41
827.34	48.63
827.512	47.96
827.684	48.21
827.856	48.1
828.029	47.97
828.201	48.35
828.373	48.58
828.545	48.13
828.717	47.41
828.889	47.94
829.061	45.25
829.232	46.58
829.404	45.17
829.576	44.72
829.748	46.36
829.92	44.92
830.092	45.95
830.264	44.66
830.436	46.01
830.607	45.09
830.779	46.81
830.951	49.56
831.123	45.69
831.294	50.05
831.466	48.42
831.638	45.81
831.809	47.07
831.981	46.29
832.153	48.02
832.324	42.75
832.496	44.17
832.667	37.82
832.839	35.04
833.011	36.66
833.182	38.3
833.354	37.22
833.525	44.17
833.697	42.37
833.868	42.89
834.039	43.53
834.211	46.76
834.382	47.2
834.554	49.61
834.725	52.13
834.896	52.12
835.068	48.55
835.239	49.63
835.41	45.58
835.581	48.28
835.753	50.15
835.924	51.84
836.095	51.05
836.266	47.68
836.438	45.96
836.609	40.97
836.78	46.29
836.951	51.49
837.122	52.55
837.293	58.24
837.464	55.76
837.635	53.46
837.806	55.59
837.977	56.65
838.148	62.82
838.319	64.64
838.49	66.68
838.661	55.79
838.832	54.49
839.003	50.23
839.174	44.06
839.345	47.07
839.516	49.63
839.687	44.01
839.857	41.25
840.028	41.42
840.199	45.22
840.37	41.97
840.54	49.31
840.711	48.68
840.882	55.54
841.053	61.58
841.223	60.05
841.394	60.77
841.564	65.37
841.735	62.6
841.906	66.38
842.076	59.77
842.247	75.16
842.417	81.4
842.588	89.15
842.758	96.56
842.929	83.02
843.099	80.65
843.27	73.44
843.44	66.15
843.611	72.93
843.781	69.22
843.951	79.13
844.122	75.22
844.292	72.39
844.462	74.22
844.633	73.86
844.803	73.9
844.973	69.49
845.144	68.9
845.314	73.34
845.484	88.23
845.654	81.64
845.824	84.69
845.995	95.96
846.165	87.34
846.335	69.68
846.505	50.7
846.675	60.89
846.845	52.04
847.015	60.88
847.185	61.96
847.355	44.39
847.525	49.27
847.695	50.05
847.865	45.24
848.035	59.73
848.205	59.3
848.375	66.85
848.545	59.11
848.715	82.1
848.884	92.54
849.054	106.74
849.224	125.9
849.394	131.49
849.564	135.92
849.733	142.1
849.903	114.9
850.073	123.5
850.243	127.6
850.412	181.8
850.582	137.39
850.752	126.08
850.921	114.47
851.091	103.3
851.26	79.17
851.43	68.76
851.599	75.81
851.769	69.07
851.939	73
852.108	70.52
852.278	79.77
852.447	90.77
852.616	92.26
852.786	116.24
852.955	131.29
853.125	189.74
853.294	208.34
853.463	192.97
853.633	207.87
853.802	302.82
853.971	244.91
854.141	199.43
854.31	194.13
854.479	170.26
854.648	148.38
854.818	116.57
854.987	109
855.156	94.55
855.325	96.14
855.494	105.9
855.663	113.3
855.832	108.49
856.001	70.35
856.171	93.3
856.34	108.28
856.509	101.1
856.678	245.52
856.847	307.44
857.016	-468.5
857.185	175.68
857.353	141.97
857.522	85.86
857.691	79.49
857.86	68.73
858.029	6.54
858.198	7.33
858.367	31.49
858.535	51.42
858.704	51.85
858.873	33.29
859.042	84.96
859.21	205.73
859.379	86.49
859.548	91.52
859.717	124.73
859.885	156.09
860.054	161.13
860.222	233.01
860.391	191.83
860.56	123.41
860.728	135.7
860.897	124.6
861.065	99.11
861.234	131.52
861.402	225.92
861.571	264.45
861.739	221.36
861.908	262.58
862.076	230.41
862.244	206.57
862.413	253.07
862.581	268.39
862.749	192.59
862.918	234.47
863.086	178.61
863.254	130.71
863.423	124.57
863.591	123.51
863.759	94.76
863.927	82.36
864.096	99.98
864.264	115.42
864.432	93.84
864.6	110.69
864.768	102.03
864.936	122.69
865.104	127.69
865.272	136.29
865.44	142.37
865.608	351.69
865.776	438.51
865.944	244.31
866.112	143.97
866.28	205.22
866.448	230.96
866.616	670.63
866.784	277.53
866.952	162.56
867.12	129.08
867.288	135.07
867.455	117.78
867.623	95.27
867.791	99.38
867.959	99.11
868.127	95.6
868.294	68.78
868.462	71.06
868.63	88.34
868.797	165.96
868.965	206.86
869.133	159.19
869.3	235.94
869.468	138.91
869.636	64.43
869.803	97.65
869.971	87.66
870.138	119.45
870.306	93.97
870.473	70.8
870.641	52.58
870.808	56.38
870.975	93.12
871.143	90.12
871.31	157.88
871.478	157.15
871.645	139.73
871.812	134.05
871.98	88.35
872.147	87.38
872.314	68.51
872.482	96.78
872.649	79.8
872.816	50.48
872.983	45.43
873.15	49.47
873.318	106.5
873.485	247.94
873.652	226.43
873.819	224.45
873.986	210.73
874.153	205.35
874.32	145.13
874.487	216.01
874.654	205.04
874.821	197.26
874.988	166.48
875.155	138.63
875.322	127.55
875.489	128.67
875.656	203.18
875.823	131.81
875.99	118.19
876.157	104.84
876.324	115.47
876.49	132.66
876.657	114.64
876.824	108.86
876.991	148.11
877.157	118.49
877.324	180.03
877.491	111.05
877.658	230.03
877.824	368.58
877.991	281.02
878.157	312.84
878.324	504.57
878.491	1187.72
878.657	614.62
878.824	2247.73
878.99	413.16
879.157	187.25
879.323	416.7
879.49	791.77
879.656	323.21
879.823	332.91
879.989	214.13
880.156	137.81
880.322	152.55
880.488	135.56
880.655	112.04
880.821	89.46
880.987	104.71
881.154	81.27
881.32	72.41
881.486	75.95
881.652	68.07
881.819	68.9
881.985	76.37
882.151	69.18
882.317	69.27
882.483	67.49
882.649	72.96
882.816	68.31
882.982	66.31
883.148	64.19
883.314	60.77
883.48	61.42
883.646	59.31
883.812	56.51
883.978	56.41
884.144	55.27
884.31	51.07
884.476	49.55
884.642	48.53
884.807	51.01
884.973	50.67
885.139	51.61
885.305	54.26
885.471	55.68
885.637	56.69
885.802	58.2
885.968	57.05
886.134	57.79
886.3	61
886.465	59.03
886.631	59.06
886.797	68.86
886.962	63.17
887.128	58.19
887.293	59.71
887.459	56.24
887.625	56.38
887.79	60.14
887.956	74.05
888.121	68.74
888.287	74.12
888.452	71.66
888.618	64.51
888.783	77.47
