Data from 2937837_Reflection_2.txt Node
Date: Wed Jul 15 16:27:55 EDT 2015
User: robert
Spectrometer: USB4E03001
Autoset integration time: false
Trigger mode: 4
Integration Time (sec): 1.000000E-1
Scans to average: 10
Electric dark correction enabled: true
Nonlinearity correction enabled: false
Boxcar width: 5
Stray light correction enabled: false
XAxis mode: Wavelengths
Stop averaging: false
Number of Pixels in Spectrum: 3648
>>>>>Begin Spectral Data<<<<<
177.566	67.59
177.785	87.15
178.005	-14.15
178.225	-3.87
178.445	4.78
178.665	-91.06
178.885	-503.66
179.105	-32.6
179.324	-209.18
179.544	-223.66
179.764	-129.39
179.984	-64.24
180.204	-32.35
180.423	-41.32
180.643	-119.39
180.863	-73.07
181.083	-116.23
181.302	-155.46
181.522	-279.45
181.742	-255.09
181.961	-273.68
182.181	99.53
182.401	92.86
182.621	123.24
182.84	92.33
183.06	54.84
183.279	70.68
183.499	50.72
183.719	29.89
183.938	-22.95
184.158	-104.86
184.377	-599.44
184.597	4423.17
184.816	638.34
185.036	292.92
185.256	215.72
185.475	323.47
185.695	584.92
185.914	175.35
186.134	2298.21
186.353	-179.8
186.572	1.43
186.792	-15.78
187.011	149.83
187.231	7.18
187.45	46.12
187.67	46.27
187.889	79.12
188.108	52.2
188.328	-137.19
188.547	522.64
188.766	318.79
188.986	-1369.55
189.205	-111.12
189.424	-146.5
189.644	74.3
189.863	261.7
190.082	106.02
190.302	98.92
190.521	41.52
190.74	9.53
190.959	11.61
191.178	42.51
191.398	26.64
191.617	7.16
191.836	-9.05
192.055	-47.38
192.274	-46.53
192.494	30.98
192.713	63.66
192.932	115.32
193.151	170.24
193.37	-22.01
193.589	35.6
193.808	24.36
194.027	18.06
194.246	22.18
194.465	4.2
194.685	0.32
194.904	30.25
195.123	32.15
195.342	62.33
195.561	39.97
195.78	-31.1
195.999	74.77
196.218	56.72
196.436	118.33
196.655	137.48
196.874	83.69
197.093	277.67
197.312	215.08
197.531	-373.58
197.75	370.57
197.969	2600
198.188	-16.25
198.407	-18.62
198.625	-34.23
198.844	30.41
199.063	22.81
199.282	-92.4
199.501	1537.63
199.719	253.97
199.938	113.32
200.157	-145.15
200.376	91.01
200.594	135.14
200.813	58.17
201.032	-11.63
201.251	10.25
201.469	-52.42
201.688	-55.63
201.907	-99.9
202.125	-984.29
202.344	1303.61
202.563	1805.99
202.781	-2651.62
203	1313.43
203.218	632.27
203.437	524.65
203.656	2898.36
203.874	-648.66
204.093	861.67
204.311	-19270.59
204.53	-727.38
204.748	21.28
204.967	35.9
205.185	70.83
205.404	56.08
205.622	50.49
205.841	43.3
206.059	77.06
206.278	103.92
206.496	100.94
206.715	130.14
206.933	59.19
207.151	42.5
207.37	32.39
207.588	46.47
207.806	30.7
208.025	50.13
208.243	-769.39
208.461	-260.98
208.68	133.58
208.898	116.75
209.116	250.27
209.335	199.51
209.553	-692.76
209.771	216.26
209.989	124.75
210.208	97.96
210.426	434.05
210.644	436.65
210.862	-297.58
211.081	-1827.88
211.299	14386.67
211.517	259.25
211.735	1439.15
211.953	-669.2
212.171	-235.13
212.39	3744.78
212.608	4394.21
212.826	-636.89
213.044	-22.87
213.262	201
213.48	22.29
213.698	57.5
213.916	-16.53
214.134	108.33
214.352	96.83
214.57	120.13
214.788	80.36
215.006	66.82
215.224	85.31
215.442	105.29
215.66	206.47
215.878	66.91
216.096	-113.32
216.314	610.2
216.532	1173.05
216.75	226.69
216.968	205.4
217.185	137.73
217.403	142.78
217.621	173.99
217.839	137.41
218.057	210.29
218.275	235.43
218.492	24.44
218.71	54.46
218.928	30.33
219.146	25.81
219.363	-33.74
219.581	-54.81
219.799	-71.35
220.017	-22.87
220.234	39.04
220.452	44.62
220.67	95.44
220.887	57.42
221.105	58.78
221.323	92.3
221.54	71.34
221.758	61.86
221.976	111.32
222.193	102.39
222.411	64.95
222.629	54.18
222.846	60
223.064	29.13
223.281	47.66
223.499	3.36
223.716	3.69
223.934	8.81
224.151	4.99
224.369	-4.4
224.586	8.05
224.804	10.99
225.021	34.25
225.239	26.32
225.456	28.67
225.674	37.37
225.891	65.28
226.108	53.15
226.326	53.79
226.543	70.62
226.76	57.33
226.978	56.03
227.195	56.83
227.413	44.44
227.63	40.52
227.847	31.01
228.064	23.12
228.282	21.19
228.499	21.58
228.716	17.64
228.934	15.17
229.151	13.35
229.368	11.73
229.585	9.7
229.802	7.55
230.02	5.09
230.237	6.98
230.454	6.27
230.671	6.45
230.888	5.16
231.105	9.46
231.323	11.03
231.54	12.12
231.757	16.25
231.974	20.71
232.191	21.69
232.408	28.48
232.625	23.65
232.842	29.75
233.059	23.66
233.276	24.87
233.493	18.59
233.71	14.46
233.927	18.32
234.144	16.39
234.361	12.6
234.578	20.54
234.795	32.64
235.012	36.96
235.229	31.82
235.446	38.38
235.663	40.48
235.879	44.96
236.096	48.32
236.313	40.58
236.53	45.62
236.747	40.86
236.964	31.91
237.181	6.79
237.397	4.48
237.614	3.81
237.831	-3.7
238.048	-5.02
238.264	1.77
238.481	3.73
238.698	7.3
238.915	9.66
239.131	8.27
239.348	8
239.565	15.51
239.781	13.95
239.998	15.84
240.215	18.23
240.431	16.49
240.648	12.46
240.865	10.49
241.081	14.1
241.298	12.37
241.514	13.3
241.731	13.9
241.947	12.54
242.164	15.64
242.38	16.32
242.597	16
242.814	15.03
243.03	15.54
243.246	13.99
243.463	11.76
243.679	11.79
243.896	12.34
244.112	13.3
244.329	14.36
244.545	13.66
244.762	11.56
244.978	11.86
245.194	12.5
245.411	10.18
245.627	12.68
245.843	14.22
246.06	14.32
246.276	15.09
246.492	15.21
246.709	15
246.925	14.57
247.141	16.15
247.357	16.01
247.574	16.65
247.79	17.23
248.006	17.57
248.222	17.3
248.439	17.52
248.655	16.51
248.871	16.39
249.087	16.56
249.303	15.55
249.519	14.5
249.736	14.72
249.952	14.57
250.168	16.33
250.384	16.87
250.6	17.66
250.816	16.72
251.032	16.72
251.248	16.99
251.464	17.17
251.68	18.18
251.896	17.27
252.112	16.6
252.328	13.71
252.544	12.99
252.76	12.09
252.976	10.99
253.192	11.46
253.408	11.79
253.624	12.08
253.84	10.3
254.056	9.05
254.272	11.08
254.487	8.86
254.703	12.24
254.919	10.37
255.135	10.55
255.351	10.4
255.567	8.75
255.782	8.96
255.998	5.29
256.214	7.03
256.43	10.51
256.646	8.84
256.861	12.07
257.077	12.42
257.293	12.95
257.508	10.48
257.724	12.16
257.94	11.44
258.155	8.99
258.371	9.91
258.587	9.8
258.802	7.52
259.018	6.36
259.234	6.21
259.449	7.23
259.665	6.12
259.88	7.14
260.096	7.23
260.312	7.42
260.527	7.94
260.743	8.28
260.958	8.46
261.174	9.23
261.389	9.84
261.605	8.96
261.82	7.45
262.036	7.55
262.251	8.12
262.466	8.35
262.682	7.04
262.897	6.8
263.113	6.85
263.328	4.96
263.543	3.44
263.759	3.5
263.974	4.07
264.189	3.86
264.405	2.54
264.62	2.09
264.835	-0.86
265.051	-0.68
265.266	1.9
265.481	1.99
265.696	3.8
265.912	4.53
266.127	4.71
266.342	6.36
266.557	7.47
266.773	9.68
266.988	7.35
267.203	8.99
267.418	9.9
267.633	9.35
267.848	8.73
268.064	8.8
268.279	9.26
268.494	8.11
268.709	7.1
268.924	6.18
269.139	7.8
269.354	9.47
269.569	7.94
269.784	8.31
269.999	7.69
270.214	7.49
270.429	8.21
270.644	8.05
270.859	7.99
271.074	8.56
271.289	9.26
271.504	7.16
271.719	5.12
271.934	5.49
272.149	3.62
272.363	2.52
272.578	4.81
272.793	2.85
273.008	2.88
273.223	3.61
273.438	3.75
273.653	4.14
273.867	3.71
274.082	4.81
274.297	5.52
274.512	6.79
274.726	7.2
274.941	5.28
275.156	7.69
275.371	7.53
275.585	6.94
275.8	6.26
276.015	6.06
276.229	8
276.444	9.97
276.659	10.67
276.873	12.07
277.088	13.97
277.302	13.82
277.517	12.36
277.732	12.46
277.946	14.21
278.161	11.96
278.375	10.76
278.59	10.4
278.804	7.86
279.019	6.35
279.233	4.47
279.448	2.39
279.662	2.14
279.877	2.91
280.091	3.73
280.306	3.47
280.52	7.8
280.735	8.02
280.949	8.09
281.163	10.32
281.378	10.42
281.592	10.56
281.806	11.98
282.021	11.85
282.235	11.47
282.449	12.4
282.664	12.59
282.878	11.47
283.092	14.09
283.307	14.5
283.521	13.17
283.735	13.45
283.949	13.04
284.164	12.79
284.378	13.66
284.592	15.32
284.806	12.82
285.02	11.72
285.234	10.72
285.449	7.97
285.663	6.98
285.877	6.52
286.091	6.76
286.305	8.45
286.519	8.69
286.733	8.08
286.947	5.4
287.161	6.06
287.375	5.97
287.589	6.37
287.803	5.78
288.017	4.51
288.231	5.97
288.445	5.93
288.659	3.9
288.873	2.47
289.087	1.57
289.301	2.7
289.515	3.32
289.729	3.52
289.943	3.74
290.157	6
290.371	7.88
290.584	7.52
290.798	7.25
291.012	6.26
291.226	7.51
291.44	8.35
291.654	8.9
291.867	8.71
292.081	9.14
292.295	8.97
292.509	9.28
292.722	8.4
292.936	7.75
293.15	7.03
293.364	9.23
293.577	6.83
293.791	7.5
294.005	6.92
294.218	7.96
294.432	8.14
294.645	8.57
294.859	7.8
295.073	9.64
295.286	9.61
295.5	9.64
295.713	9.12
295.927	10.07
296.14	9.29
296.354	9.58
296.568	9.2
296.781	9.57
296.994	9.04
297.208	8.87
297.421	7.94
297.635	7.99
297.848	8.26
298.062	8.15
298.275	8.51
298.489	8.66
298.702	8.58
298.915	7.33
299.129	6.34
299.342	6.39
299.555	6.4
299.769	5.81
299.982	6.35
300.195	5.8
300.409	6.31
300.622	5.81
300.835	5.59
301.048	5.79
301.262	6.87
301.475	8.14
301.688	7.62
301.901	7.34
302.115	9.86
302.328	9.7
302.541	9.95
302.754	10.02
302.967	10.72
303.18	10.49
303.393	10.15
303.607	9.65
303.82	8.96
304.033	9.12
304.246	8.13
304.459	6.09
304.672	6.02
304.885	6.81
305.098	7.03
305.311	5.38
305.524	5.96
305.737	5.53
305.95	5.52
306.163	5.73
306.376	5.91
306.589	7.55
306.802	6.46
307.015	5.41
307.228	5.6
307.44	4.9
307.653	6.14
307.866	6.5
308.079	7.85
308.292	7.49
308.505	7.31
308.718	7.73
308.93	7.9
309.143	9.52
309.356	10.25
309.569	9.06
309.781	8.94
309.994	8.87
310.207	8.32
310.42	9.18
310.632	9.86
310.845	9.82
311.058	10.45
311.27	10.3
311.483	10.23
311.696	9.34
311.908	9.65
312.121	9.16
312.333	9.09
312.546	9.29
312.759	8.46
312.971	8.44
313.184	8.17
313.396	6.7
313.609	5.14
313.821	3.94
314.034	6.26
314.246	6.84
314.459	8.61
314.671	8.95
314.884	8.77
315.096	8.73
315.309	7.72
315.521	6.73
315.733	7.52
315.946	9.52
316.158	9.53
316.371	7.89
316.583	7.81
316.795	5.11
317.008	5.1
317.22	6.91
317.432	6.82
317.644	6.77
317.857	8.24
318.069	7.61
318.281	7.49
318.494	6.89
318.706	6.8
318.918	5.11
319.13	7.56
319.342	6.62
319.555	3.64
319.767	3.65
319.979	4.94
320.191	4.66
320.403	4.1
320.615	3.77
320.827	5.96
321.039	6.62
321.252	7.67
321.464	6.29
321.676	7.98
321.888	9.29
322.1	7.41
322.312	8.82
322.524	10.4
322.736	10.94
322.948	11.08
323.16	10.21
323.372	10.28
323.584	11
323.796	13.53
324.007	13.08
324.219	13.05
324.431	14.13
324.643	14.01
324.855	13.88
325.067	14.25
325.279	14.45
325.491	14.46
325.702	13.72
325.914	13.49
326.126	12.09
326.338	13.42
326.55	13.57
326.761	13.44
326.973	13.11
327.185	10.66
327.396	11.75
327.608	10.82
327.82	11.79
328.032	11.89
328.243	11.49
328.455	10.77
328.666	9.48
328.878	8.02
329.09	8.55
329.301	7.85
329.513	10.66
329.725	9.11
329.936	10.06
330.148	8.18
330.359	10.11
330.571	12.35
330.782	12.7
330.994	13.28
331.205	15.21
331.417	13.5
331.628	12.98
331.84	10.55
332.051	11.5
332.262	11.33
332.474	11.88
332.685	11.07
332.897	9.67
333.108	10.57
333.319	10.5
333.531	10.32
333.742	11.19
333.953	12.27
334.165	12.92
334.376	13.14
334.587	12.93
334.799	12.79
335.01	13.35
335.221	13.22
335.432	13.59
335.644	12.31
335.855	12.2
336.066	13.03
336.277	12.74
336.488	12.21
336.7	11.25
336.911	11.62
337.122	12.42
337.333	11.24
337.544	11.66
337.755	11.86
337.966	11.02
338.177	10.5
338.388	9.86
338.599	9.91
338.811	11.45
339.022	10.91
339.233	10.25
339.444	9
339.655	9.16
339.866	9.43
340.076	8.44
340.287	10.09
340.498	10.89
340.709	9.74
340.92	9.99
341.131	8.02
341.342	8.88
341.553	8.64
341.764	8.57
341.975	9.02
342.185	7.74
342.396	7.85
342.607	8.69
342.818	7.85
343.029	8.85
343.239	8.8
343.45	9.85
343.661	9.52
343.872	10.51
344.082	11.73
344.293	12.65
344.504	13
344.714	13.15
344.925	12.94
345.136	13.47
345.346	13.82
345.557	13.63
345.768	12.88
345.978	12.71
346.189	12.22
346.399	12.09
346.61	11.27
346.821	11.53
347.031	11.57
347.242	10.08
347.452	10.56
347.663	9.19
347.873	9.52
348.084	11.74
348.294	11.06
348.504	10.76
348.715	12.02
348.925	11.89
349.136	12.07
349.346	10.87
349.557	11.42
349.767	10.46
349.977	11.59
350.188	11.41
350.398	10.11
350.608	11.86
350.819	12.73
351.029	12.66
351.239	12.8
351.449	13.66
351.66	14.38
351.87	14.19
352.08	14.12
352.29	13.44
352.501	13.46
352.711	13.81
352.921	13.73
353.131	13.34
353.341	12.58
353.552	12.31
353.762	11.39
353.972	11.62
354.182	11.86
354.392	13.43
354.602	14.41
354.812	13.29
355.022	12.75
355.232	12.64
355.442	11.93
355.652	10.75
355.862	12.05
356.072	10.9
356.282	11.12
356.492	11.15
356.702	9.86
356.912	9.82
357.122	10.32
357.332	10.89
357.542	10.58
357.752	10.48
357.962	11.87
358.171	10.91
358.381	12.37
358.591	11.83
358.801	11.39
359.011	11.86
359.221	12.2
359.43	12.18
359.64	11.53
359.85	11.83
360.06	12.78
360.269	11.94
360.479	11.92
360.689	11.21
360.899	11.33
361.108	12.44
361.318	12.19
361.528	11.64
361.737	11.95
361.947	12.52
362.156	12.09
362.366	11.71
362.576	11.4
362.785	11.34
362.995	11.63
363.204	12.67
363.414	12.38
363.623	12.7
363.833	12.84
364.042	13.24
364.252	13.4
364.461	12.94
364.671	13.16
364.88	14.31
365.09	14.19
365.299	14.75
365.509	13.83
365.718	13.61
365.927	13.7
366.137	13.61
366.346	12.83
366.555	11.62
366.765	11.94
366.974	11.06
367.183	10.59
367.393	9.75
367.602	8.6
367.811	8.44
368.021	7.03
368.23	6.73
368.439	6.35
368.648	6.42
368.857	7.76
369.067	7.54
369.276	7.58
369.485	7.3
369.694	7.86
369.903	7.34
370.112	6.92
370.321	7.33
370.531	6.78
370.74	6.89
370.949	6.8
371.158	6.25
371.367	7.14
371.576	7.93
371.785	7.9
371.994	8.18
372.203	9.13
372.412	9.71
372.621	10.37
372.83	10.88
373.039	11.25
373.248	11.17
373.457	11.85
373.666	11.17
373.874	10.89
374.083	11.19
374.292	10.86
374.501	9.89
374.71	8.91
374.919	8.2
375.128	8.01
375.336	7.48
375.545	7.82
375.754	7.02
375.963	7.31
376.171	7.1
376.38	6.27
376.589	5.78
376.798	6.3
377.006	6.32
377.215	6.93
377.424	7.11
377.632	7.14
377.841	7.16
378.05	7.13
378.258	6.91
378.467	7.48
378.675	7.95
378.884	8.82
379.093	8.8
379.301	9.26
379.51	8.73
379.718	8.47
379.927	8.25
380.135	7.62
380.344	7.93
380.552	8.02
380.761	7.62
380.969	7.66
381.177	7.47
381.386	7.32
381.594	7.19
381.803	7.72
382.011	7.19
382.219	7.75
382.428	7.74
382.636	7.7
382.845	7.76
383.053	7.65
383.261	7.51
383.469	7.44
383.678	7.59
383.886	7.72
384.094	8.13
384.302	9.2
384.511	9.05
384.719	8.77
384.927	9.02
385.135	8.72
385.343	8.6
385.552	8.84
385.76	8.59
385.968	8.54
386.176	8.25
386.384	7.97
386.592	7.8
386.8	7.45
387.008	7.96
387.216	7.18
387.424	7.14
387.633	6.86
387.841	6.89
388.049	7.15
388.257	7.01
388.465	7.2
388.672	6.99
388.88	6.54
389.088	6.65
389.296	6.84
389.504	7.32
389.712	7.77
389.92	7.98
390.128	7.6
390.336	7.5
390.544	7.51
390.751	7.6
390.959	7.03
391.167	7.16
391.375	7.11
391.583	7.03
391.79	6.84
391.998	7.02
392.206	6.94
392.414	6.98
392.621	6.89
392.829	6.79
393.037	6.94
393.244	7.25
393.452	7.3
393.66	7.57
393.867	7.57
394.075	7.78
394.283	7.19
394.49	7.24
394.698	7.04
394.905	7.37
395.113	7.34
395.32	6.97
395.528	7.15
395.735	6.61
395.943	6.71
396.15	6.31
396.358	6.02
396.565	5.98
396.773	6.22
396.98	6.35
397.188	6.04
397.395	6.13
397.602	6.07
397.81	5.84
398.017	5.98
398.225	5.58
398.432	5.96
398.639	5.93
398.847	5.89
399.054	6.14
399.261	6.04
399.468	6.19
399.676	6.27
399.883	6.44
400.09	6.73
400.297	6.91
400.505	7.1
400.712	7.01
400.919	7.17
401.126	7.63
401.333	7.11
401.54	7.13
401.748	7.08
401.955	7.32
402.162	7.16
402.369	7
402.576	6.91
402.783	6.64
402.99	7.08
403.197	6.96
403.404	6.63
403.611	6.48
403.818	6.53
404.025	6.26
404.232	5.75
404.439	6.03
404.646	5.93
404.853	6.14
405.06	6.16
405.267	5.7
405.474	5.71
405.681	5.76
405.887	6.12
406.094	5.85
406.301	5.78
406.508	6.33
406.715	6.24
406.922	6.44
407.128	6.34
407.335	6.18
407.542	5.83
407.749	5.71
407.955	6.14
408.162	5.79
408.369	6.12
408.575	6.11
408.782	5.75
408.989	5.7
409.195	5.49
409.402	5.57
409.609	5.79
409.815	6.25
410.022	6.31
410.228	5.62
410.435	5.62
410.642	5.38
410.848	5.7
411.055	5.81
411.261	5.78
411.468	5.5
411.674	5.77
411.881	5.93
412.087	5.91
412.294	5.81
412.5	6.22
412.706	6.07
412.913	6.36
413.119	6.48
413.326	6.67
413.532	6.92
413.738	7.2
413.945	6.59
414.151	6.43
414.357	6.35
414.564	6.35
414.77	6.35
414.976	6.93
415.182	6.55
415.389	6.56
415.595	6.3
415.801	6.4
416.007	6.31
416.214	6.55
416.42	6.53
416.626	6.7
416.832	6.71
417.038	6.53
417.244	6.25
417.45	6.51
417.657	6.31
417.863	6.11
418.069	5.87
418.275	5.8
418.481	5.67
418.687	5.5
418.893	5.52
419.099	5.47
419.305	5.59
419.511	5.55
419.717	5.48
419.923	5.4
420.129	5.57
420.335	5.55
420.541	5.64
420.746	5.73
420.952	5.76
421.158	5.77
421.364	5.84
421.57	5.75
421.776	5.74
421.982	5.65
422.187	5.72
422.393	5.77
422.599	5.63
422.805	5.65
423.01	5.52
423.216	5.59
423.422	5.4
423.628	5.5
423.833	5.53
424.039	5.55
424.245	5.52
424.45	5.44
424.656	5.33
424.862	5.44
425.067	5.51
425.273	5.52
425.478	5.56
425.684	5.51
425.889	5.37
426.095	5.37
426.301	5.53
426.506	5.7
426.712	5.87
426.917	5.91
427.123	5.9
427.328	5.73
427.533	5.69
427.739	5.61
427.944	5.67
428.15	5.69
428.355	5.36
428.561	5.09
428.766	4.96
428.971	5.07
429.177	5.12
429.382	5.05
429.587	5.02
429.793	5.24
429.998	5.05
430.203	5.21
430.408	5.05
430.614	5.35
430.819	5.37
431.024	5.32
431.229	5.01
431.434	4.84
431.64	4.93
431.845	5.06
432.05	4.92
432.255	5.13
432.46	5.03
432.665	5.11
432.87	5.09
433.076	5.04
433.281	5.13
433.486	5.3
433.691	5.32
433.896	5.19
434.101	5.42
434.306	5.53
434.511	5.49
434.716	5.51
434.921	5.64
435.126	5.83
435.331	5.91
435.535	5.95
435.74	5.89
435.945	5.84
436.15	5.85
436.355	5.57
436.56	5.43
436.765	5.51
436.97	5.31
437.174	5.18
437.379	5.04
437.584	5.19
437.789	4.89
437.993	4.74
438.198	4.66
438.403	4.74
438.608	4.59
438.812	4.57
439.017	4.56
439.222	4.72
439.426	4.83
439.631	4.8
439.836	4.71
440.04	5.11
440.245	4.93
440.45	4.89
440.654	4.94
440.859	5.01
441.063	5.09
441.268	5.1
441.472	5.14
441.677	5.15
441.881	5.3
442.086	5.1
442.29	4.9
442.495	5.1
442.699	5.38
442.904	5.33
443.108	5.36
443.312	5.42
443.517	5.26
443.721	5.27
443.925	5.37
444.13	5.02
444.334	5.18
444.538	5.13
444.743	5.08
444.947	4.85
445.151	4.86
445.356	4.99
445.56	4.96
445.764	5.02
445.968	5
446.173	4.86
446.377	4.96
446.581	5.04
446.785	5.09
446.989	5.1
447.193	5.16
447.398	5.17
447.602	4.98
447.806	5.12
448.01	5.14
448.214	5.11
448.418	5.11
448.622	5.19
448.826	5.19
449.03	5.18
449.234	5.27
449.438	5.25
449.642	5.2
449.846	5.28
450.05	5.15
450.254	5.02
450.458	4.96
450.662	4.84
450.866	4.83
451.069	4.81
451.273	4.89
451.477	4.89
451.681	4.91
451.885	4.89
452.089	4.96
452.292	4.85
452.496	4.82
452.7	4.93
452.904	5.21
453.107	5.15
453.311	4.99
453.515	5
453.719	5.01
453.922	5.16
454.126	5.24
454.33	5.23
454.533	5.21
454.737	5.2
454.94	5.3
455.144	5.11
455.348	5.05
455.551	5.18
455.755	4.85
455.958	4.9
456.162	4.89
456.365	4.91
456.569	4.99
456.772	5.26
456.976	5.38
457.179	5.18
457.383	5.16
457.586	5.13
457.79	4.94
457.993	5.04
458.196	4.95
458.4	4.97
458.603	5.14
458.807	5.04
459.01	4.78
459.213	4.79
459.417	4.77
459.62	4.72
459.823	4.71
460.026	4.78
460.23	4.9
460.433	4.9
460.636	4.85
460.839	4.69
461.042	4.73
461.246	4.87
461.449	4.8
461.652	4.97
461.855	5.12
462.058	5.19
462.261	5.23
462.464	5.04
462.668	5.1
462.871	5.06
463.074	4.84
463.277	4.84
463.48	4.69
463.683	4.83
463.886	4.62
464.089	4.55
464.292	4.56
464.495	4.55
464.698	4.65
464.901	4.68
465.104	5.04
465.306	5.24
465.509	4.84
465.712	5.04
465.915	4.98
466.118	4.96
466.321	4.91
466.524	4.98
466.726	5.07
466.929	5.23
467.132	5.18
467.335	4.98
467.538	4.98
467.74	5.41
467.943	5.2
468.146	5.09
468.348	5.06
468.551	5.15
468.754	5.07
468.956	5.2
469.159	4.88
469.362	4.82
469.564	4.6
469.767	4.72
469.969	4.6
470.172	4.69
470.375	4.96
470.577	5.13
470.78	5.04
470.982	5.29
471.185	4.94
471.387	5.21
471.59	5.33
471.792	5.39
471.995	5.41
472.197	5.29
472.399	5.21
472.602	5.2
472.804	5.09
473.007	4.92
473.209	4.85
473.411	4.97
473.614	5.1
473.816	5.15
474.018	5.1
474.22	5.1
474.423	5.31
474.625	5.25
474.827	5.3
475.03	5.28
475.232	5.47
475.434	5.51
475.636	5.68
475.838	5.54
476.04	5.37
476.243	5.44
476.445	5.2
476.647	5.05
476.849	5.33
477.051	5.13
477.253	5.23
477.455	5.43
477.657	5.24
477.859	5.04
478.061	4.98
478.263	4.94
478.465	4.99
478.667	4.88
478.869	4.86
479.071	4.73
479.273	4.88
479.475	4.89
479.677	4.84
479.879	4.88
480.081	5.04
480.283	4.86
480.485	5.01
480.686	5.06
480.888	5.41
481.09	5.4
481.292	5.52
481.494	5.51
481.695	5.39
481.897	5.29
482.099	5.28
482.301	5.13
482.502	5.31
482.704	5.27
482.906	5.2
483.107	5.13
483.309	5.15
483.511	5.11
483.712	5.06
483.914	5.07
484.115	5.06
484.317	5.03
484.519	5.04
484.72	5.02
484.922	5.01
485.123	5.03
485.325	5.08
485.526	5.09
485.728	5.06
485.929	5.06
486.131	5.02
486.332	4.97
486.534	4.99
486.735	5.03
486.936	5.03
487.138	5.05
487.339	5.08
487.541	5
487.742	5
487.943	4.96
488.144	4.98
488.346	4.99
488.547	4.99
488.748	5.03
488.95	5.04
489.151	5.02
489.352	5.05
489.553	5.03
489.755	5.12
489.956	5.19
490.157	5.25
490.358	5.19
490.559	5.2
490.76	5.26
490.961	5.24
491.163	5.27
491.364	5.33
491.565	5.29
491.766	5.2
491.967	5.04
492.168	4.97
492.369	4.99
492.57	4.9
492.771	4.92
492.972	4.86
493.173	4.81
493.374	4.73
493.575	4.66
493.776	4.56
493.976	4.51
494.177	4.67
494.378	4.63
494.579	4.59
494.78	4.89
494.981	5.05
495.182	5.05
495.382	5.2
495.583	5.09
495.784	5.03
495.985	5.1
496.185	5.19
496.386	5.17
496.587	5.31
496.788	5.33
496.988	5.13
497.189	5.05
497.39	5.23
497.59	5.1
497.791	5.3
497.992	5.42
498.192	5.46
498.393	5.44
498.593	5.4
498.794	5.3
498.994	5.17
499.195	5.36
499.395	5.33
499.596	5.23
499.796	5.4
499.997	5.34
500.197	5.26
500.398	5.21
500.598	5.16
500.799	5.26
500.999	5.32
501.199	5.55
501.4	5.58
501.6	5.74
501.801	5.79
502.001	5.79
502.201	5.74
502.402	5.79
502.602	5.76
502.802	5.92
503.002	5.85
503.203	5.78
503.403	5.79
503.603	5.69
503.803	5.48
504.003	5.56
504.204	5.5
504.404	5.53
504.604	5.51
504.804	5.6
505.004	5.67
505.204	5.71
505.404	5.87
505.604	5.79
505.804	5.86
506.005	6
506.205	5.98
506.405	5.85
506.605	6.07
506.805	6
507.005	6.03
507.204	5.89
507.404	5.82
507.604	5.65
507.804	5.65
508.004	5.56
508.204	5.43
508.404	5.36
508.604	5.49
508.804	5.27
509.003	5.23
509.203	5.09
509.403	5.17
509.603	5.14
509.803	5.44
510.002	5.53
510.202	5.5
510.402	5.8
510.602	5.87
510.801	5.93
511.001	6.05
511.201	6.18
511.4	6.34
511.6	6.27
511.8	6.3
511.999	6.1
512.199	5.95
512.398	6.09
512.598	5.82
512.797	5.88
512.997	5.85
513.197	6.02
513.396	5.94
513.596	6.02
513.795	6.05
513.994	6.13
514.194	6.18
514.393	6.33
514.593	6.3
514.792	6.29
514.992	6.17
515.191	6.24
515.39	6.06
515.59	6.1
515.789	5.87
515.988	6.09
516.188	6.17
516.387	6.25
516.586	6.31
516.786	6.26
516.985	6.33
517.184	6.49
517.383	6.44
517.582	6.43
517.782	6.35
517.981	6.46
518.18	6.36
518.379	6.35
518.578	6.32
518.777	6.21
518.976	6.35
519.176	6.41
519.375	6.39
519.574	6.4
519.773	6.47
519.972	6.61
520.171	6.68
520.37	6.85
520.569	6.88
520.768	6.91
520.967	7.09
521.166	6.97
521.365	6.95
521.564	6.9
521.762	7.03
521.961	6.9
522.16	6.92
522.359	6.96
522.558	6.82
522.757	6.7
522.956	6.55
523.154	6.5
523.353	6.68
523.552	6.63
523.751	6.76
523.949	6.75
524.148	6.84
524.347	7.01
524.546	6.94
524.744	6.97
524.943	6.94
525.142	7.01
525.34	6.9
525.539	6.97
525.737	6.99
525.936	6.87
526.135	6.79
526.333	6.79
526.532	6.67
526.73	6.7
526.929	6.73
527.127	6.8
527.326	6.85
527.524	6.9
527.723	6.86
527.921	6.92
528.12	6.99
528.318	7.07
528.516	7.1
528.715	7.13
528.913	7.13
529.112	7.13
529.31	7.16
529.508	7.2
529.707	7.28
529.905	7.34
530.103	7.37
530.301	7.44
530.5	7.4
530.698	7.43
530.896	7.39
531.094	7.48
531.293	7.52
531.491	7.59
531.689	7.67
531.887	7.63
532.085	7.63
532.283	7.61
532.481	7.64
532.68	7.71
532.878	7.73
533.076	7.79
533.274	7.74
533.472	7.76
533.67	7.75
533.868	7.66
534.066	7.63
534.264	7.54
534.462	7.68
534.66	7.6
534.858	7.57
535.056	7.59
535.253	7.57
535.451	7.59
535.649	7.64
535.847	7.68
536.045	7.65
536.243	7.76
536.441	7.84
536.638	7.81
536.836	7.79
537.034	7.77
537.232	7.75
537.43	7.86
537.627	7.97
537.825	7.92
538.023	8.02
538.22	8.15
538.418	8.23
538.616	8.34
538.813	8.34
539.011	8.59
539.209	8.81
539.406	9.02
539.604	9.1
539.801	8.93
539.999	8.92
540.196	8.8
540.394	8.83
540.591	8.8
540.789	8.71
540.986	8.76
541.184	8.65
541.381	8.65
541.579	8.6
541.776	8.59
541.974	8.76
542.171	8.86
542.368	9.01
542.566	8.98
542.763	9.09
542.96	9.23
543.158	9.26
543.355	9.37
543.552	9.37
543.75	9.41
543.947	9.49
544.144	9.44
544.341	9.4
544.539	9.39
544.736	9.47
544.933	9.38
545.13	9.25
545.327	9.18
545.524	9.16
545.722	9.16
545.919	9.23
546.116	9.24
546.313	9.32
546.51	9.51
546.707	9.37
546.904	9.52
547.101	9.64
547.298	9.78
547.495	9.79
547.692	9.78
547.889	9.98
548.086	10.02
548.283	10.23
548.48	10.43
548.677	10.4
548.874	10.57
549.07	10.65
549.267	10.67
549.464	10.71
549.661	10.87
549.858	11.13
550.055	11.08
550.251	11.06
550.448	10.85
550.645	10.75
550.842	10.63
551.038	10.69
551.235	10.52
551.432	10.66
551.628	10.99
551.825	10.99
552.022	10.88
552.218	10.85
552.415	11.02
552.612	11.13
552.808	11.1
553.005	11.44
553.201	11.45
553.398	11.59
553.594	11.69
553.791	11.41
553.987	11.43
554.184	11.6
554.38	11.56
554.577	11.61
554.773	11.62
554.97	11.52
555.166	11.34
555.362	11.38
555.559	11.44
555.755	11.26
555.952	11.51
556.148	11.57
556.344	11.72
556.541	11.91
556.737	11.81
556.933	11.63
557.129	11.9
557.326	11.84
557.522	12.08
557.718	11.93
557.914	12.26
558.11	12.25
558.307	12.27
558.503	11.98
558.699	12.01
558.895	12.08
559.091	12.18
559.287	12.27
559.483	12.37
559.679	12.43
559.876	12.65
560.072	12.44
560.268	12.48
560.464	12.67
560.66	12.9
560.856	13.03
561.052	13.21
561.247	13.53
561.443	13.48
561.639	13.57
561.835	13.57
562.031	13.58
562.227	13.6
562.423	13.65
562.619	13.81
562.815	13.78
563.01	13.69
563.206	13.9
563.402	13.89
563.598	13.98
563.793	14.1
563.989	13.86
564.185	13.9
564.381	14.32
564.576	14.45
564.772	14.33
564.968	14.32
565.163	14.67
565.359	14.4
565.555	14.34
565.75	14.39
565.946	14.28
566.141	14.55
566.337	14.68
566.532	14.44
566.728	14.34
566.923	14.26
567.119	14.35
567.314	14.25
567.51	14.35
567.705	14.5
567.901	14.37
568.096	14.52
568.292	14.42
568.487	14.62
568.682	14.83
568.878	14.96
569.073	15.2
569.268	15.27
569.464	15.13
569.659	15.31
569.854	15.34
570.05	15.61
570.245	15.68
570.44	15.8
570.635	15.51
570.831	15.43
571.026	15.47
571.221	15.38
571.416	15.51
571.611	15.8
571.806	15.7
572.002	15.64
572.197	15.45
572.392	15.3
572.587	15.13
572.782	15.36
572.977	15.32
573.172	15.44
573.367	15.38
573.562	15.27
573.757	15.17
573.952	15.11
574.147	15.14
574.342	15.35
574.537	15.48
574.732	15.65
574.927	15.51
575.121	15.57
575.316	15.55
575.511	15.69
575.706	15.73
575.901	15.75
576.096	16.08
576.29	16.23
576.485	16.36
576.68	16.48
576.875	16.66
577.069	16.72
577.264	16.78
577.459	16.64
577.654	16.63
577.848	16.68
578.043	16.69
578.238	16.46
578.432	16.5
578.627	16.25
578.821	16.09
579.016	16
579.21	15.95
579.405	15.73
579.6	15.71
579.794	16.09
579.989	16.4
580.183	16.59
580.378	16.42
580.572	16.3
580.766	16.48
580.961	16.5
581.155	16.64
581.35	16.61
581.544	16.66
581.738	17.02
581.933	16.98
582.127	16.79
582.321	16.54
582.516	16.9
582.71	17.05
582.904	17.01
583.099	17
583.293	16.64
583.487	16.75
583.681	16.87
583.875	16.5
584.07	16.36
584.264	16.29
584.458	16.21
584.652	15.91
584.846	15.62
585.04	15.74
585.234	15.85
585.428	16.13
585.623	16.19
585.817	16.19
586.011	16.5
586.205	16.76
586.399	16.94
586.593	16.82
586.787	16.95
586.981	16.91
587.174	17.04
587.368	17.15
587.562	17.15
587.756	17.65
587.95	18.01
588.144	18.16
588.338	17.81
588.532	17.7
588.725	18
588.919	18.45
589.113	18.8
589.307	18.47
589.501	18.55
589.694	18.54
589.888	18.04
590.082	17.89
590.275	17.67
590.469	17.91
590.663	17.76
590.856	17.88
591.05	17.67
591.244	17.41
591.437	17.43
591.631	17.46
591.824	17.61
592.018	17.89
592.212	17.8
592.405	17.88
592.599	17.71
592.792	18.01
592.986	17.88
593.179	17.72
593.372	17.65
593.566	17.72
593.759	17.69
593.953	17.71
594.146	17.62
594.339	17.7
594.533	17.58
594.726	17.63
594.92	17.58
595.113	17.54
595.306	17.61
595.499	17.94
595.693	18.13
595.886	17.88
596.079	17.8
596.272	17.69
596.466	17.71
596.659	17.89
596.852	18.07
597.045	18.26
597.238	18.27
597.431	18.5
597.624	18.32
597.818	18.4
598.011	18.44
598.204	18.52
598.397	18.64
598.59	18.63
598.783	18.55
598.976	18.64
599.169	18.59
599.362	18.58
599.555	18.36
599.748	18.39
599.941	18.31
600.134	18.58
600.326	18.57
600.519	18.37
600.712	18.41
600.905	18.6
601.098	18.28
601.291	18.14
601.483	18.44
601.676	18.47
601.869	18.77
602.062	18.77
602.255	18.73
602.447	18.51
602.64	18.66
602.833	18.52
603.025	18.25
603.218	18.28
603.411	18.43
603.603	18.38
603.796	18.62
603.989	18.63
604.181	18.59
604.374	18.63
604.566	18.78
604.759	18.7
604.951	18.74
605.144	18.98
605.336	18.98
605.529	19.02
605.721	18.93
605.914	18.76
606.106	18.69
606.299	18.68
606.491	18.7
606.683	18.79
606.876	18.79
607.068	18.96
607.26	18.82
607.453	18.94
607.645	18.94
607.837	19.05
608.03	19.06
608.222	19.14
608.414	19.24
608.606	19.25
608.799	19.11
608.991	19.21
609.183	19.07
609.375	19.17
609.567	19.23
609.759	19.45
609.952	19.27
610.144	19.28
610.336	19.03
610.528	18.99
610.72	18.97
610.912	18.97
611.104	18.78
611.296	18.89
611.488	18.56
611.68	18.23
611.872	17.62
612.064	17.85
612.256	17.73
612.448	17.74
612.64	17.79
612.832	17.84
613.023	18.12
613.215	18.45
613.407	18.31
613.599	18.61
613.791	18.92
613.983	19.36
614.174	19.04
614.366	19.19
614.558	19.56
614.75	19.56
614.941	19.63
615.133	19.31
615.325	19.8
615.516	19.97
615.708	20.12
615.9	19.83
616.091	19.66
616.283	19.8
616.475	19.77
616.666	19.82
616.858	19.71
617.049	19.51
617.241	19.61
617.432	19.34
617.624	19.56
617.815	19.74
618.007	19.8
618.198	19.64
618.39	19.62
618.581	19.74
618.773	19.39
618.964	19.38
619.155	19.36
619.347	19.14
619.538	18.8
619.729	18.53
619.921	17.95
620.112	18.18
620.303	18.36
620.494	18.28
620.686	18.39
620.877	18.54
621.068	18.53
621.259	18.15
621.451	18.33
621.642	18.51
621.833	18.61
622.024	19.13
622.215	19.04
622.406	18.91
622.597	19.45
622.788	19.15
622.98	19.18
623.171	19.37
623.362	19.96
623.553	20.11
623.744	20.04
623.935	20.05
624.126	19.97
624.317	20.09
624.508	20.24
624.698	19.92
624.889	19.77
625.08	19.78
625.271	19.71
625.462	19.59
625.653	19.43
625.844	19.37
626.034	19.36
626.225	19.15
626.416	19.48
626.607	19.46
626.798	19.44
626.988	19.62
627.179	19.66
627.37	19.47
627.56	19.63
627.751	20.03
627.942	20.14
628.132	20.06
628.323	19.99
628.514	19.97
628.704	20.11
628.895	20.19
629.085	20.2
629.276	20.03
629.466	20.63
629.657	20.57
629.847	20.28
630.038	20.34
630.228	20.26
630.419	20.58
630.609	20.19
630.8	19.92
630.99	19.8
631.181	20.04
631.371	20.17
631.561	19.89
631.752	20.02
631.942	19.57
632.132	19.72
632.323	20.09
632.513	20.22
632.703	20.61
632.893	20.65
633.084	21.07
633.274	20.84
633.464	20.97
633.654	20.94
633.844	20.67
634.034	21
634.225	20.98
634.415	20.91
634.605	20.79
634.795	20.22
634.985	20.36
635.175	20.28
635.365	20.21
635.555	19.95
635.745	19.97
635.935	19.84
636.125	20.25
636.315	20.31
636.505	20.23
636.695	20.28
636.885	20.62
637.075	20.39
637.265	20.18
637.455	20.48
637.644	20.68
637.834	20.56
638.024	20.81
638.214	20.39
638.404	20
638.593	20.37
638.783	20.38
638.973	19.99
639.163	20.22
639.352	20.14
639.542	19.86
639.732	19.99
639.921	19.87
640.111	20.16
640.301	20.2
640.49	20.59
640.68	20.48
640.87	20.05
641.059	20.6
641.249	20.8
641.438	20.81
641.628	21.08
641.817	20.89
642.007	21.09
642.196	20.81
642.386	20.99
642.575	20.41
642.764	20.31
642.954	20.59
643.143	20.47
643.333	20.42
643.522	20.34
643.711	19.64
643.901	19.46
644.09	19.25
644.279	19.59
644.469	19.64
644.658	19.92
644.847	19.91
645.036	20.03
645.226	20.08
645.415	19.77
645.604	20.06
645.793	20.52
645.982	20.71
646.171	20.71
646.361	20.6
646.55	20.64
646.739	20.97
646.928	20.88
647.117	20.84
647.306	20.53
647.495	21.12
647.684	21.28
647.873	21.03
648.062	20.92
648.251	20.93
648.44	21.08
648.629	20.53
648.818	20.24
649.007	20.26
649.196	20.19
649.384	20.44
649.573	20.23
649.762	20.03
649.951	20.4
650.14	20.39
650.328	20.53
650.517	20.32
650.706	20.41
650.895	20.7
651.083	20.86
651.272	21.09
651.461	20.91
651.65	20.7
651.838	20.4
652.027	20.52
652.216	20.32
652.404	20.72
652.593	20.26
652.781	20.65
652.97	20.75
653.158	20.49
653.347	20.06
653.535	20.41
653.724	20.23
653.912	20.54
654.101	20.83
654.289	21.46
654.478	21.07
654.666	21.29
654.855	21.1
655.043	21.12
655.231	20.97
655.42	21.33
655.608	21.08
655.796	21.51
655.985	21.53
656.173	21.45
656.361	20.97
656.55	20.96
656.738	21.24
656.926	20.79
657.114	20.34
657.302	20.79
657.491	21.04
657.679	21.07
657.867	20.68
658.055	20.83
658.243	20.88
658.431	21.18
658.619	21.16
658.807	21.2
658.996	21.88
659.184	22.36
659.372	22.3
659.56	22.09
659.748	22.05
659.936	22.49
660.124	22.49
660.311	21.89
660.499	22.11
660.687	22.2
660.875	22.18
661.063	22.08
661.251	21.67
661.439	21.42
661.627	21.24
661.814	21.15
662.002	20.77
662.19	20.82
662.378	21.23
662.565	20.66
662.753	20.45
662.941	20.62
663.129	20.62
663.316	20.3
663.504	20.09
663.692	20.61
663.879	20.61
664.067	20.86
664.254	20.85
664.442	20.93
664.63	21.61
664.817	21.78
665.005	22.03
665.192	22.13
665.38	22.44
665.567	22.82
665.755	22.38
665.942	22.9
666.13	23.14
666.317	23.07
666.504	23.31
666.692	22.93
666.879	23.21
667.067	22.76
667.254	22.36
667.441	22.04
667.629	21.98
667.816	22.22
668.003	21.69
668.19	21.89
668.378	21.63
668.565	21.53
668.752	21.49
668.939	21.48
669.127	21.32
669.314	21.46
669.501	21.56
669.688	21.5
669.875	21.99
670.062	22.43
670.249	21.72
670.436	22.09
670.623	21.91
670.81	21.52
670.997	21.62
671.184	22.01
671.371	22.28
671.558	22.72
671.745	23.1
671.932	22.5
672.119	22.17
672.306	22.49
672.493	22
672.68	22.06
672.867	22.63
673.054	22.55
673.24	22.74
673.427	22.49
673.614	21.89
673.801	21.7
673.988	21.7
674.174	21.73
674.361	21.85
674.548	22.12
674.734	22.38
674.921	22.2
675.108	21.65
675.294	21.6
675.481	21.46
675.668	22.06
675.854	22.15
676.041	22.12
676.227	21.98
676.414	21.83
676.601	21.86
676.787	22.12
676.974	21.81
677.16	22.4
677.347	22
677.533	22.63
677.719	22.48
677.906	22.19
678.092	22.35
678.279	22.56
678.465	22.43
678.651	22.54
678.838	22.09
679.024	22.63
679.21	22.7
679.397	22.35
679.583	21.69
679.769	21.78
679.955	22.13
680.142	21.94
680.328	22.11
680.514	22.38
680.7	22.48
680.886	22.59
681.073	22.2
681.259	22.24
681.445	22.39
681.631	22.86
681.817	22.57
682.003	22.47
682.189	22.9
682.375	23.11
682.561	22.87
682.747	22.94
682.933	22.5
683.119	22.49
683.305	21.92
683.491	22.06
683.677	22.08
683.863	21.87
684.049	21.94
684.235	22.14
684.42	21.61
684.606	21.57
684.792	20.97
684.978	21.49
685.164	21.85
685.349	22.34
685.535	22.28
685.721	21.89
685.907	22.48
686.092	22.34
686.278	22.23
686.464	22.78
686.649	23.2
686.835	23.03
687.021	22.67
687.206	23.04
687.392	23.02
687.577	22.91
687.763	23
687.948	23.74
688.134	24.15
688.319	23.76
688.505	23.82
688.69	23.51
688.876	24.03
689.061	23.99
689.247	24.12
689.432	24.13
689.618	24.64
689.803	24.85
689.988	23.92
690.174	23.47
690.359	23.81
690.544	23.2
690.73	23.21
690.915	23.86
691.1	24.4
691.285	24.16
691.471	23.7
691.656	23.72
691.841	23.36
692.026	23.47
692.211	23.63
692.396	23.11
692.582	22.89
692.767	23.27
692.952	22.52
693.137	21.85
693.322	21.66
693.507	22.09
693.692	21.93
693.877	22.05
694.062	22.24
694.247	22.32
694.432	22.62
694.617	23.27
694.802	23.27
694.987	23.09
695.172	23.37
695.357	23.41
695.541	23.26
695.726	22.85
695.911	22.87
696.096	22.94
696.281	22.78
696.466	22.95
696.65	23.46
696.835	23.52
697.02	23.89
697.204	24.27
697.389	23.92
697.574	24.06
697.759	24.11
697.943	24.62
698.128	24.45
698.312	24.25
698.497	24.14
698.682	24.04
698.866	23.88
699.051	23.34
699.235	22.76
699.42	23.15
699.604	23.23
699.789	23.25
699.973	22.84
700.158	22.82
700.342	23
700.527	23.09
700.711	22.95
700.895	22.82
701.08	23.49
701.264	23.55
701.448	22.21
701.633	22.18
701.817	22.3
702.001	22.61
702.186	23.02
702.37	22.93
702.554	22.09
702.738	21.82
702.923	21.89
703.107	21.46
703.291	21.97
703.475	22.75
703.659	22.26
703.843	22.37
704.027	22.05
704.212	21.74
704.396	21.81
704.58	22.04
704.764	22.08
704.948	22.14
705.132	22.8
705.316	22.69
705.5	23.36
705.684	22.54
705.868	22.46
706.052	21.67
706.235	21.16
706.419	20.93
706.603	21.17
706.787	21.31
706.971	20.77
707.155	20.8
707.339	21.36
707.522	21.57
707.706	22.89
707.89	22.76
708.074	23.55
708.257	24.89
708.441	24.99
708.625	24.79
708.808	24.43
708.992	25.05
709.176	24.71
709.359	24.36
709.543	24.61
709.727	24.06
709.91	25.16
710.094	25.53
710.277	25.12
710.461	25.32
710.644	26.26
710.828	26.03
711.011	24.96
711.195	25.39
711.378	25.7
711.562	25.97
711.745	26.17
711.928	25.4
712.112	24.56
712.295	24.14
712.478	23.84
712.662	23.14
712.845	23.68
713.028	24.55
713.212	23.91
713.395	23.55
713.578	22.79
713.761	23.02
713.945	23.21
714.128	23.96
714.311	23.92
714.494	23.82
714.677	23.91
714.86	23.5
715.043	23.78
715.227	24.13
715.41	24.14
715.593	24.77
715.776	24.32
715.959	23.86
716.142	23.23
716.325	23.18
716.508	24.05
716.691	24.33
716.874	24.99
717.057	24.85
717.239	24.81
717.422	24.5
717.605	24.22
717.788	24.35
717.971	24.48
718.154	24.26
718.337	24.04
718.519	24.39
718.702	24.33
718.885	24.44
719.068	24.48
719.25	23.26
719.433	25.18
719.616	24.56
719.798	25.72
719.981	25.79
720.164	25.87
720.346	26.13
720.529	26.55
720.712	25.73
720.894	24.53
721.077	24.12
721.259	26.15
721.442	25.49
721.624	25.87
721.807	25.09
721.989	25.27
722.172	25.62
722.354	26.49
722.537	24.49
722.719	25.73
722.901	26.63
723.084	26.96
723.266	26.1
723.448	25.41
723.631	25.13
723.813	24.44
723.995	23.39
724.178	23.48
724.36	22.7
724.542	23.71
724.724	22.41
724.907	22.65
725.089	23.37
725.271	23.05
725.453	22.66
725.635	22.83
725.817	23.27
725.999	24.37
726.181	24.45
726.364	24.96
726.546	24.5
726.728	26.1
726.91	25.98
727.092	26.29
727.274	27.03
727.456	27.81
727.638	27.63
727.819	27.92
728.001	28.48
728.183	28.75
728.365	28.62
728.547	28.59
728.729	27.74
728.911	27.52
729.093	26.93
729.274	26.29
729.456	25.9
729.638	25.18
729.82	25.17
730.001	24.65
730.183	24.68
730.365	24.09
730.546	24.38
730.728	24.81
730.91	25.66
731.091	24.27
731.273	24.75
731.455	25.05
731.636	24.87
731.818	25.08
731.999	25.78
732.181	25.75
732.362	25.81
732.544	25.02
732.725	24.98
732.907	24.52
733.088	24.6
733.27	23.57
733.451	22.78
733.633	24.33
733.814	23.89
733.995	22.94
734.177	24.22
734.358	24.31
734.539	25.14
734.721	24.36
734.902	23.62
735.083	24.31
735.264	25.71
735.446	26.06
735.627	25.49
735.808	25.08
735.989	25.48
736.17	23.46
736.351	23.79
736.533	23.43
736.714	24.49
736.895	25.12
737.076	25.04
737.257	23.64
737.438	23.49
737.619	23.38
737.8	23.6
737.981	23.81
738.162	23.87
738.343	23.69
738.524	24.85
738.705	24.72
738.886	24.35
739.067	23.77
739.247	24.72
739.428	24.46
739.609	24.46
739.79	24.93
739.971	24.8
740.151	24.22
740.332	23.97
740.513	23.25
740.694	22.74
740.874	22.88
741.055	23.17
741.236	25.05
741.417	25.44
741.597	26.01
741.778	26.05
741.958	24.87
742.139	25.97
742.32	25.8
742.5	26.78
742.681	26.83
742.861	27.66
743.042	28.15
743.222	25.66
743.403	27.28
743.583	26.4
743.764	26.23
743.944	26.62
744.124	26.53
744.305	27.09
744.485	27.53
744.666	27.95
744.846	27.43
745.026	27.44
745.207	26.88
745.387	25.09
745.567	25.28
745.747	25.26
745.928	27.28
746.108	27.82
746.288	27.91
746.468	26.71
746.648	26.24
746.829	25.89
747.009	25.92
747.189	26.64
747.369	26.75
747.549	27.48
747.729	28.1
747.909	25.77
748.089	26.2
748.269	27.23
748.449	27.97
748.629	28.82
748.809	28.99
748.989	29.01
749.169	28.24
749.349	28.99
749.529	28.69
749.709	29.66
749.889	30.76
750.068	29.61
750.248	28.03
750.428	28.15
750.608	28.9
750.788	27.67
750.967	26.96
751.147	27.68
751.327	28.15
751.507	29.44
751.686	29.17
751.866	28.19
752.046	28.41
752.225	29.58
752.405	27.63
752.585	26.22
752.764	27.67
752.944	28.92
753.123	29.84
753.303	28.71
753.482	27.34
753.662	26.72
753.841	27.36
754.021	27.58
754.2	28.1
754.38	27.98
754.559	28.09
754.739	27.51
754.918	25.88
755.097	25.34
755.277	24.63
755.456	24.48
755.635	24.39
755.815	24.96
755.994	24.03
756.173	23.95
756.352	24.51
756.532	23.71
756.711	24.06
756.89	25.54
757.069	24.04
757.248	24.93
757.427	25.09
757.607	25.06
757.786	25.49
757.965	26.32
758.144	25.42
758.323	25.48
758.502	25.12
758.681	24.18
758.86	24.3
759.039	25.73
759.218	25.56
759.397	25.41
759.576	25.32
759.755	25.38
759.934	26.26
760.113	25.8
760.291	26.88
760.47	27.36
760.649	26.43
760.828	26.38
761.007	25.74
761.186	26.53
761.364	25.52
761.543	25.46
761.722	25.49
761.901	25.25
762.079	25.13
762.258	24.08
762.437	25.75
762.615	27.03
762.794	27.14
762.972	27.81
763.151	26.97
763.33	27.57
763.508	27.63
763.687	27.12
763.865	25.93
764.044	26.11
764.222	26.56
764.401	26.24
764.579	27.41
764.758	27.9
764.936	27.45
765.114	27.65
765.293	28.3
765.471	28.38
765.65	29.04
765.828	29.98
766.006	30.75
766.184	30.14
766.363	29.29
766.541	28.14
766.719	26.78
766.898	28.94
767.076	29.49
767.254	29.5
767.432	28.91
767.61	27.81
767.788	28.49
767.967	28.64
768.145	30.29
768.323	29.68
768.501	29.52
768.679	30.65
768.857	26.75
769.035	27.03
769.213	24.47
769.391	24.92
769.569	25.09
769.747	26.09
769.925	25.73
770.103	23.93
770.281	24.89
770.459	26.29
770.636	26.45
770.814	27.99
770.992	27.18
771.17	28.15
771.348	27.38
771.525	26.56
771.703	26.47
771.881	25.72
772.059	27.51
772.236	28.91
772.414	28.85
772.592	28.59
772.769	30.41
772.947	31.62
773.125	31.23
773.302	33.84
773.48	35.52
773.657	34.44
773.835	35.27
774.013	34.71
774.19	33.9
774.368	33.46
774.545	33.42
774.723	34.86
774.9	31.67
775.077	33.23
775.255	30.39
775.432	29.79
775.61	29.82
775.787	27.97
775.964	28.03
776.142	26.07
776.319	25.39
776.496	24.95
776.674	22.01
776.851	25.6
777.028	27.07
777.205	27.95
777.382	29.79
777.56	31.93
777.737	31.26
777.914	32.46
778.091	35.61
778.268	34.62
778.445	36.17
778.622	36.17
778.8	34.11
778.977	32.5
779.154	32.22
779.331	32.78
779.508	31.92
779.685	33.23
779.862	31.34
780.038	29.83
780.215	32.36
780.392	30.26
780.569	30.48
780.746	29.79
780.923	31.2
781.1	28.97
781.277	24.54
781.453	21.69
781.63	23.47
781.807	24.56
781.984	24.68
782.16	23.99
782.337	25.39
782.514	25.46
782.691	27.04
782.867	28.02
783.044	30.2
783.221	33.28
783.397	34.02
783.574	32.65
783.75	31.33
783.927	30.87
784.103	29.91
784.28	32.53
784.456	32.81
784.633	32.28
784.809	29.62
784.986	32.73
785.162	31.54
785.339	33.29
785.515	33.2
785.692	34.13
785.868	34.55
786.044	37.02
786.221	34.26
786.397	35.31
786.573	33.66
786.749	34.6
786.926	34.64
787.102	34.42
787.278	32.07
787.454	32.58
787.631	32.31
787.807	33.24
787.983	29.22
788.159	27.91
788.335	26.01
788.511	29.99
788.687	30.16
788.863	29.82
789.039	29.23
789.216	31.24
789.392	30.61
789.568	29.67
789.744	28.14
789.919	30.28
790.095	31.68
790.271	34.18
790.447	33.55
790.623	31.27
790.799	30.61
790.975	31.46
791.151	30.12
791.327	31.44
791.502	33.88
791.678	35.19
791.854	32.48
792.03	29.1
792.205	24.13
792.381	24.29
792.557	24.46
792.733	23.85
792.908	22.68
793.084	18.99
793.259	13.65
793.435	11.08
793.611	9.17
793.786	14.88
793.962	16.24
794.137	18.42
794.313	13.84
794.488	16.56
794.664	17.4
794.839	18.91
795.015	22.61
795.19	26.71
795.366	23.19
795.541	21.36
795.716	20.34
795.892	19.43
796.067	20.95
796.242	25.53
796.418	24.14
796.593	22.11
796.768	22.68
796.944	21.92
797.119	22.26
797.294	26.7
797.469	25.17
797.644	21.61
797.82	25.92
797.995	24.91
798.17	25.76
798.345	29.1
798.52	29.73
798.695	29.19
798.87	30.55
799.045	25.7
799.22	24.06
799.395	27.47
799.57	29.82
799.745	28.19
799.92	27.85
800.095	23.09
800.27	19.82
800.445	17.08
800.62	18.99
800.795	17.04
800.97	19.89
801.145	22.36
801.319	22.84
801.494	16.42
801.669	20.16
801.844	23.25
802.018	25.46
802.193	25.91
802.368	23.58
802.543	21.06
802.717	22.92
802.892	24.38
803.067	19.95
803.241	22.48
803.416	30.87
803.59	28.28
803.765	26.9
803.94	27.68
804.114	28.55
804.289	32.73
804.463	35.16
804.638	37.09
804.812	36.07
804.986	37.18
805.161	32.15
805.335	31.72
805.51	31.98
805.684	33.39
805.858	31.52
806.033	33.61
806.207	34.98
806.381	36.08
806.556	32
806.73	31.09
806.904	30.93
807.078	31.93
807.253	33.99
807.427	29.27
807.601	27.94
807.775	28.23
807.949	26.19
808.123	26.92
808.298	26.18
808.472	27.27
808.646	24.42
808.82	25.67
808.994	27.85
809.168	22.78
809.342	25.82
809.516	24.22
809.69	25.65
809.864	25.19
810.038	23.7
810.212	17.66
810.385	20.48
810.559	29.02
810.733	27.54
810.907	28.05
811.081	23.14
811.255	25.44
811.428	23.63
811.602	23.62
811.776	27.95
811.95	30.85
812.123	36.08
812.297	36.5
812.471	30.91
812.644	31.05
812.818	27.5
812.992	30.85
813.165	29.47
813.339	33.21
813.512	35.94
813.686	32.38
813.86	33.71
814.033	33.77
814.207	32.45
814.38	33.93
814.554	37.42
814.727	36.87
814.9	42.2
815.074	41.61
815.247	36.62
815.421	33.67
815.594	32.94
815.767	30.28
815.941	31.97
816.114	27.73
816.287	26.3
816.46	18.88
816.634	30.68
816.807	24.68
816.98	19.06
817.153	27.92
817.327	32.04
817.5	33.29
817.673	31.14
817.846	23.36
818.019	28.73
818.192	31.83
818.365	38.4
818.538	30.97
818.711	28.82
818.884	32.14
819.057	26.44
819.23	24.98
819.403	24.41
819.576	20.72
819.749	26.18
819.922	28.88
820.095	30.82
820.268	28.65
820.441	27.69
820.614	30.22
820.786	31.33
820.959	31.67
821.132	31.63
821.305	31.6
821.477	32.93
821.65	32.11
821.823	31.47
821.996	29.94
822.168	29.91
822.341	29.87
822.514	29.82
822.686	30.3
822.859	30.04
823.031	28.92
823.204	29.12
823.376	29.79
823.549	29.63
823.722	29.52
823.894	29.99
824.067	29.92
824.239	30.89
824.411	30.24
824.584	29.79
824.756	30.81
824.929	31.87
825.101	30.74
825.273	30.22
825.446	29.9
825.618	29.96
825.79	29.29
825.963	28.63
826.135	27.29
826.307	27.83
826.479	27.74
826.652	25.98
826.824	25.89
826.996	26.32
827.168	25.61
827.34	24.95
827.512	24.01
827.684	23.99
827.856	24.4
828.029	24.39
828.201	24.58
828.373	24.83
828.545	25.36
828.717	25.12
828.889	26.79
829.061	27.29
829.232	27.21
829.404	27.28
829.576	28.58
829.748	29.78
829.92	30.08
830.092	30.9
830.264	31.87
830.436	32.44
830.607	33.53
830.779	31.25
830.951	32.82
831.123	33.44
831.294	31.84
831.466	33.87
831.638	35.47
831.809	36.22
831.981	36.15
832.153	31.42
832.324	31.59
832.496	29.12
832.667	27.04
832.839	21.78
833.011	22.62
833.182	23.21
833.354	20.5
833.525	18.91
833.697	19.51
833.868	18.84
834.039	22.68
834.211	25.13
834.382	25.24
834.554	27.77
834.725	28.28
834.896	28.9
835.068	30.14
835.239	32.74
835.41	32.89
835.581	31.8
835.753	31.22
835.924	30.33
836.095	25.07
836.266	24.85
836.438	23.88
836.609	28.82
836.78	27.36
836.951	29.21
837.122	28.27
837.293	25.98
837.464	29.67
837.635	27.23
837.806	27.63
837.977	33.13
838.148	36.88
838.319	40.5
838.49	34.51
838.661	30.96
838.832	23.12
839.003	15.75
839.174	19.72
839.345	14.28
839.516	18.33
839.687	15.13
839.857	14.45
840.028	16.03
840.199	13.25
840.37	16.19
840.54	27.17
840.711	35.79
840.882	37.22
841.053	30.62
841.223	34.5
841.394	31.55
841.564	33.72
841.735	33.47
841.906	29.05
842.076	30.2
842.247	28.18
842.417	12.1
842.588	-3.63
842.758	-0.35
842.929	-1.32
843.099	-2.16
843.27	16.8
843.44	13.75
843.611	10.08
843.781	-9
843.951	-19.53
844.122	-1.32
844.292	8.02
844.462	16.4
844.633	32.71
844.803	54.18
844.973	62.24
845.144	57.35
845.314	61.74
845.484	84.84
845.654	96.07
845.824	90.47
845.995	82.85
846.165	88.74
846.335	96.92
846.505	80.6
846.675	62.59
846.845	57.68
847.015	65.35
847.185	51.44
847.355	35.99
847.525	34.9
847.695	31.63
847.865	20.48
848.035	0.22
848.205	-22.36
848.375	1.66
848.545	5.48
848.715	19.35
848.884	-4.25
849.054	7.61
849.224	9.44
849.394	19.27
849.564	12.36
849.733	11.09
849.903	17.18
850.073	12.43
850.243	12.84
850.412	11.43
850.582	0.82
850.752	14.49
850.921	10.04
851.091	25.21
851.26	35.19
851.43	41.94
851.599	43.5
851.769	57.43
851.939	86.48
852.108	78.81
852.278	71.82
852.447	74.88
852.616	79.75
852.786	77.98
852.955	66.44
853.125	63.69
853.294	62.79
853.463	56.58
853.633	55.51
853.802	41.56
853.971	52.24
854.141	60.25
854.31	60.4
854.479	48.35
854.648	34.09
854.818	39.91
854.987	41.37
855.156	39.91
855.325	48.33
855.494	24.25
855.663	19.07
855.832	20.57
856.001	13.32
856.171	-3.29
856.34	-6.74
856.509	22.45
856.678	22.87
856.847	19.14
857.016	34.74
857.185	23.48
857.353	61.47
857.522	43.59
857.691	9.62
857.86	-8.56
858.029	-5.33
858.198	-11.77
858.367	-12.23
858.535	-27.59
858.704	-42.43
858.873	-48.29
859.042	-55.4
859.21	-65.33
859.379	-63.83
859.548	-42.42
859.717	-32.75
859.885	-0.66
860.054	8.42
860.222	-3.47
860.391	7.62
860.56	55.7
860.728	50.34
860.897	57.19
861.065	52.98
861.234	70.83
861.402	64.49
861.571	85.49
861.739	83.46
861.908	81.92
862.076	98.14
862.244	97.03
862.413	65.9
862.581	78.07
862.749	89.86
862.918	76.45
863.086	82.28
863.254	88.52
863.423	71.65
863.591	71.11
863.759	81.25
863.927	37.77
864.096	27.35
864.264	25.84
864.432	24.1
864.6	19.36
864.768	27.75
864.936	21.1
865.104	18.01
865.272	5.55
865.44	10.67
865.608	-6.48
865.776	1.96
865.944	22.46
866.112	17.26
866.28	32.79
866.448	45.3
866.616	47.93
866.784	64.67
866.952	70.18
867.12	86.79
867.288	88.13
867.455	101.4
867.623	111.5
867.791	87.85
867.959	97.7
868.127	125.23
868.294	49.77
868.462	-3.58
868.63	-22.15
868.797	21.1
868.965	-788.76
869.133	23.27
869.3	43.08
869.468	10.18
869.636	30.12
869.803	37.3
869.971	50.3
870.138	71.44
870.306	86.98
870.473	62.12
870.641	12.98
870.808	14.04
870.975	-27.23
871.143	10.62
871.31	52.26
871.478	77.67
871.645	59.32
871.812	48.74
871.98	26.93
872.147	64.42
872.314	73.38
872.482	108.56
872.649	89.28
872.816	62.17
872.983	37.92
873.15	46.8
873.318	25.34
873.485	35.66
873.652	26.7
873.819	26.93
873.986	17.35
874.153	14.55
874.32	10.23
874.487	13.91
874.654	38.44
874.821	45.55
874.988	15.41
875.155	42.01
875.322	21.91
875.489	10.65
875.656	24.76
875.823	52.87
875.99	62.28
876.157	115.38
876.324	53.53
876.49	26.61
876.657	30.85
876.824	66.65
876.991	74.75
877.157	111.6
877.324	139.18
877.491	214.95
877.658	88.17
877.824	-7.6
877.991	-0.46
878.157	62.39
878.324	73.31
878.491	91.67
878.657	31.19
878.824	25.66
878.99	37.61
879.157	30.3
879.323	14.58
879.49	41.79
879.656	54.96
879.823	44.28
879.989	15.55
880.156	8.35
880.322	7.18
880.488	26.97
880.655	20.11
880.821	11.02
880.987	1.73
881.154	15.92
881.32	5.87
881.486	7.79
881.652	18.13
881.819	22.27
881.985	27.05
882.151	20.59
882.317	17.99
882.483	21.28
882.649	23.48
882.816	30.45
882.982	29.14
883.148	33.22
883.314	33.13
883.48	29.95
883.646	31.29
883.812	33.55
883.978	33.8
884.144	37.63
884.31	33.98
884.476	36.33
884.642	35.42
884.807	36.1
884.973	31.84
885.139	29.36
885.305	31.18
885.471	29.85
885.637	29.43
885.802	31.01
885.968	25.45
886.134	27.89
886.3	22.82
886.465	25.95
886.631	24.87
886.797	38.05
886.962	48.06
887.128	47.35
887.293	47.02
887.459	47.44
887.625	50.74
887.79	60.67
887.956	72.41
888.121	83.49
888.287	80.09
888.452	83.87
888.618	67.45
888.783	60.04
