Data from 2937867_Reflection_1.txt Node
Date: Wed Jul 15 15:07:15 EDT 2015
User: robert
Spectrometer: USB4E03001
Autoset integration time: false
Trigger mode: 4
Integration Time (sec): 1.000000E-1
Scans to average: 10
Electric dark correction enabled: true
Nonlinearity correction enabled: false
Boxcar width: 5
Stray light correction enabled: false
XAxis mode: Wavelengths
Stop averaging: false
Number of Pixels in Spectrum: 3648
>>>>>Begin Spectral Data<<<<<
177.566	-1284.3
177.785	-577.16
178.005	1709.31
178.225	729.51
178.445	327.09
178.665	582.37
178.885	175.08
179.105	1160
179.324	-123.34
179.544	-55.54
179.764	-43.19
179.984	-12.01
180.204	-9.55
180.423	-24.52
180.643	-7.75
180.863	-35.14
181.083	-91.2
181.302	-94.68
181.522	14.06
181.742	15.59
181.961	-437.06
182.181	-139.09
182.401	-90.84
182.621	-3.81
182.84	-32.74
183.06	-11.52
183.279	-14.6
183.499	-54.83
183.719	-65.26
183.938	-41.22
184.158	-47.64
184.377	-53.91
184.597	-35.34
184.816	-5.17
185.036	-32.38
185.256	-49.5
185.475	-4.97
185.695	341.43
185.914	94.73
186.134	13.82
186.353	50.9
186.572	-15.34
186.792	-10.67
187.011	43.61
187.231	62.87
187.45	63.8
187.67	-15.94
187.889	16.99
188.108	69.61
188.328	57.45
188.547	56.83
188.766	178.78
188.986	72.49
189.205	102.3
189.424	60.06
189.644	110.06
189.863	231.8
190.082	98.08
190.302	-6900
190.521	-182.74
190.74	49.69
190.959	104.1
191.178	84.14
191.398	83.03
191.617	75.45
191.836	53.76
192.055	35.59
192.274	34.98
192.494	65.7
192.713	7.91
192.932	-20.72
193.151	-58.48
193.37	-71.03
193.589	-512.57
193.808	-1314.98
194.027	143.18
194.246	94.15
194.465	92.49
194.685	72.12
194.904	129.04
195.123	67.84
195.342	57.51
195.561	87.82
195.78	89.12
195.999	79.54
196.218	41.88
196.436	42.53
196.655	24.91
196.874	-13.75
197.093	26.14
197.312	-0.95
197.531	-1.03
197.75	-20.26
197.969	-29.19
198.188	-39.36
198.407	-11.48
198.625	-4.98
198.844	-57.75
199.063	-36.97
199.282	-10.7
199.501	-50.11
199.719	18.28
199.938	42.2
200.157	240.99
200.376	67.77
200.594	90.76
200.813	43.97
201.032	221.07
201.251	1150.97
201.469	-273.67
201.688	112.45
201.907	171.56
202.125	188.78
202.344	217.48
202.563	145.12
202.781	198.68
203	205.53
203.218	296.95
203.437	223.53
203.656	1024.12
203.874	-1084.77
204.093	-280.14
204.311	-111.89
204.53	-46.2
204.748	-58.97
204.967	-73.58
205.185	-28.08
205.404	-22.58
205.622	-64.39
205.841	-131.64
206.059	-451.23
206.278	4739.06
206.496	330.58
206.715	152.97
206.933	988.35
207.151	-914.77
207.37	-753.62
207.588	-203.56
207.806	-62.12
208.025	-121.64
208.243	2038.28
208.461	1109.46
208.68	225.34
208.898	331.5
209.116	254.16
209.335	0.91
209.553	192.51
209.771	1100.86
209.989	135.34
210.208	-63
210.426	-905.56
210.644	90.88
210.862	657.98
211.081	255.1
211.299	-1608.24
211.517	-566.42
211.735	-72.14
211.953	-75.98
212.171	-25.32
212.39	12.68
212.608	69.74
212.826	95.06
213.044	-111.11
213.262	-108.68
213.48	1148.8
213.698	-311.95
213.916	-48.49
214.134	-52.44
214.352	-59.46
214.57	28.58
214.788	46.04
215.006	153.6
215.224	55.49
215.442	22.14
215.66	49.59
215.878	63.39
216.096	132.96
216.314	107.51
216.532	129.73
216.75	73.44
216.968	116.89
217.185	97.06
217.403	123.97
217.621	381.95
217.839	428.34
218.057	347.84
218.275	-64.18
218.492	-90.08
218.71	-18.99
218.928	55.88
219.146	76.73
219.363	106.54
219.581	124.78
219.799	148.56
220.017	135.84
220.234	155.41
220.452	204.98
220.67	212.35
220.887	182.93
221.105	207.74
221.323	614.36
221.54	-504.86
221.758	-64.46
221.976	-9.8
222.193	15.27
222.411	0.52
222.629	-12.71
222.846	-8.64
223.064	11.65
223.281	-2.65
223.499	16.73
223.716	80.51
223.934	103.6
224.151	127.45
224.369	66.19
224.586	47.11
224.804	-66.46
225.021	17.59
225.239	31.88
225.456	68.03
225.674	115.07
225.891	68.87
226.108	-39.17
226.326	-139.63
226.543	-347.32
226.76	-297.72
226.978	-161.03
227.195	-48.65
227.413	-27.81
227.63	-10.97
227.847	-38.83
228.064	-14.05
228.282	-5.21
228.499	9.27
228.716	9.42
228.934	7.63
229.151	15.1
229.368	17.55
229.585	20.54
229.802	18.54
230.02	18.33
230.237	21.81
230.454	17.38
230.671	18.63
230.888	16.77
231.105	23.68
231.323	20.49
231.54	13.42
231.757	15.19
231.974	7.99
232.191	13.55
232.408	7.51
232.625	-2.2
232.842	-4.06
233.059	-7.17
233.276	-20.7
233.493	-24.36
233.71	-3.3
233.927	-1.6
234.144	2.29
234.361	10.69
234.578	15.92
234.795	20.98
235.012	23.55
235.229	29.08
235.446	38.44
235.663	43.75
235.879	43.18
236.096	39.02
236.313	43.21
236.53	43.84
236.747	43.51
236.964	36.66
237.181	33.22
237.397	37.09
237.614	29.15
237.831	14.69
238.048	9.64
238.264	8.44
238.481	-6.43
238.698	-4.22
238.915	-11.35
239.131	-10.06
239.348	3.7
239.565	12.69
239.781	9.7
239.998	8.98
240.215	12.95
240.431	11.33
240.648	9.28
240.865	15.48
241.081	14.11
241.298	14.26
241.514	15.76
241.731	12.72
241.947	10.9
242.164	12.13
242.38	12.52
242.597	12.32
242.814	14.52
243.03	18.26
243.246	17.07
243.463	17.22
243.679	20.11
243.896	18.71
244.112	18.65
244.329	20.83
244.545	20.46
244.762	22.18
244.978	21.17
245.194	20.58
245.411	17.64
245.627	19.37
245.843	20.3
246.06	18.16
246.276	17.57
246.492	17.67
246.709	17.11
246.925	17.21
247.141	16.73
247.357	17.12
247.574	16.58
247.79	17.55
248.006	17.93
248.222	16.97
248.439	16.5
248.655	16.77
248.871	16.98
249.087	17.27
249.303	16.79
249.519	18
249.736	21.64
249.952	22.6
250.168	20.11
250.384	19.98
250.6	19.88
250.816	20.59
251.032	20.4
251.248	18.23
251.464	17.28
251.68	16.07
251.896	14.12
252.112	9.69
252.328	7.5
252.544	8.42
252.76	7.49
252.976	7.72
253.192	8.13
253.408	6.8
253.624	10.89
253.84	10.63
254.056	10.23
254.272	9.03
254.487	10.92
254.703	14.41
254.919	14.02
255.135	12.49
255.351	15.21
255.567	15.89
255.782	20.1
255.998	16.79
256.214	16.05
256.43	18.57
256.646	21.43
256.861	16.47
257.077	14.43
257.293	14.23
257.508	15.69
257.724	11
257.94	8.15
258.155	3.37
258.371	4.89
258.587	7.18
258.802	9.77
259.018	10.69
259.234	12.42
259.449	12.63
259.665	12.13
259.88	11.48
260.096	12.14
260.312	12.63
260.527	14.02
260.743	13.77
260.958	12.63
261.174	11.16
261.389	11.1
261.605	9.74
261.82	9.9
262.036	10.87
262.251	11.56
262.466	11.34
262.682	10.17
262.897	9.49
263.113	9.15
263.328	10.01
263.543	11.87
263.759	9.72
263.974	9.15
264.189	5.98
264.405	1.56
264.62	-1.21
264.835	-3.65
265.051	-0.75
265.266	-0.07
265.481	-4.64
265.696	-5.32
265.912	-5.62
266.127	-3.01
266.342	0.74
266.557	2.46
266.773	4.03
266.988	7.92
267.203	8.93
267.418	7.04
267.633	8.32
267.848	13.07
268.064	14.38
268.279	13.81
268.494	12.76
268.709	12.21
268.924	13.29
269.139	14.33
269.354	12.33
269.569	14.31
269.784	15.35
269.999	13.22
270.214	11.59
270.429	11.59
270.644	11.13
270.859	10.38
271.074	11.12
271.289	12.12
271.504	11.75
271.719	12.53
271.934	12.21
272.149	11.48
272.363	12.45
272.578	13.29
272.793	12.42
273.008	11.47
273.223	12.03
273.438	11.83
273.653	9.86
273.867	9.07
274.082	7.8
274.297	5.99
274.512	6.61
274.726	4.1
274.941	2.88
275.156	3.12
275.371	3.17
275.585	2.62
275.8	3.24
276.015	5.23
276.229	5.69
276.444	5.63
276.659	5.88
276.873	3.62
277.088	5.94
277.302	4.44
277.517	4.58
277.732	6.91
277.946	7.63
278.161	8.51
278.375	5.56
278.59	8.54
278.804	8.07
279.019	7.58
279.233	10.2
279.448	8.84
279.662	9.27
279.877	11.22
280.091	12.26
280.306	14.61
280.52	10.56
280.735	12.23
280.949	10.08
281.163	11.16
281.378	11.02
281.592	10.18
281.806	11.63
282.021	10.47
282.235	8.82
282.449	8.66
282.664	7.96
282.878	10.08
283.092	9.27
283.307	10.05
283.521	10.3
283.735	11.54
283.949	11.41
284.164	11.11
284.378	12.29
284.592	12.34
284.806	10.43
285.02	10.18
285.234	10.9
285.449	10.48
285.663	9.77
285.877	9.47
286.091	8.61
286.305	8.17
286.519	7.37
286.733	8.15
286.947	7.19
287.161	8.49
287.375	8.48
287.589	7.63
287.803	8.42
288.017	9.18
288.231	7.78
288.445	9.52
288.659	11.53
288.873	11.66
289.087	11.85
289.301	13.25
289.515	12.33
289.729	11.16
289.943	12.69
290.157	12.93
290.371	12.61
290.584	13.73
290.798	13.96
291.012	12.54
291.226	12.64
291.44	13.06
291.654	11.72
291.867	11.48
292.081	11.69
292.295	8.46
292.509	8.79
292.722	8.76
292.936	8.06
293.15	5.97
293.364	6.32
293.577	6.3
293.791	4.76
294.005	6.34
294.218	6.53
294.432	7.77
294.645	8.59
294.859	8.5
295.073	7.14
295.286	7.97
295.5	8.3
295.713	8.05
295.927	9.39
296.14	9.33
296.354	8.74
296.568	9.63
296.781	11.02
296.994	11.43
297.208	12.28
297.421	13.58
297.635	12.5
297.848	12.53
298.062	12.94
298.275	13.46
298.489	13.84
298.702	14.39
298.915	14.16
299.129	11.51
299.342	10.74
299.555	10.09
299.769	8.7
299.982	11.33
300.195	10.17
300.409	9.57
300.622	8.2
300.835	7.95
301.048	7.48
301.262	6.51
301.475	8.07
301.688	10.16
301.901	9.33
302.115	10.78
302.328	9.32
302.541	11.81
302.754	11.45
302.967	12.89
303.18	14.62
303.393	14.35
303.607	15.08
303.82	14.53
304.033	15.09
304.246	15.44
304.459	16.86
304.672	17.98
304.885	15.65
305.098	17.56
305.311	15.92
305.524	14.08
305.737	14.84
305.95	16.37
306.163	18.32
306.376	15.96
306.589	15.93
306.802	13.6
307.015	11.67
307.228	12.46
307.44	12.66
307.653	13.51
307.866	15.24
308.079	15.25
308.292	14.01
308.505	13.97
308.718	14.96
308.93	16.64
309.143	16.14
309.356	17.33
309.569	16.88
309.781	15.05
309.994	15.13
310.207	14.05
310.42	15.28
310.632	15.79
310.845	14.95
311.058	14.77
311.27	12.5
311.483	11.79
311.696	10.64
311.908	11.28
312.121	11.18
312.333	10.26
312.546	10.77
312.759	9.88
312.971	9.56
313.184	6.18
313.396	5.92
313.609	7.57
313.821	8.8
314.034	7.69
314.246	6.29
314.459	7.34
314.671	6.92
314.884	4.56
315.096	3.48
315.309	3.43
315.521	7.44
315.733	5.59
315.946	5.04
316.158	5.84
316.371	9.01
316.583	10.26
316.795	9.37
317.008	9.58
317.22	12.14
317.432	12.66
317.644	11.34
317.857	10.48
318.069	9.99
318.281	10.08
318.494	10.44
318.706	10.9
318.918	11.77
319.13	10.64
319.342	9.36
319.555	9.17
319.767	6.3
319.979	5.91
320.191	6.73
320.403	9.36
320.615	7.6
320.827	8.09
321.039	6.45
321.252	5.5
321.464	7.38
321.676	10.64
321.888	7.95
322.1	12.51
322.312	14.43
322.524	14.51
322.736	11.3
322.948	11.59
323.16	9.28
323.372	9.54
323.584	8.45
323.796	10.24
324.007	9.56
324.219	11.12
324.431	10.98
324.643	9.8
324.855	9.47
325.067	11.8
325.279	11.69
325.491	13.44
325.702	14.52
325.914	16.05
326.126	15.37
326.338	15.16
326.55	16.5
326.761	14.61
326.973	13.94
327.185	12.44
327.396	11.94
327.608	13.37
327.82	12.36
328.032	12.97
328.243	13.72
328.455	13.44
328.666	12.58
328.878	11.88
329.09	12.75
329.301	14.33
329.513	17.26
329.725	20.29
329.936	21.07
330.148	21.39
330.359	21.24
330.571	20.22
330.782	18.97
330.994	20.29
331.205	19.43
331.417	20.78
331.628	20.42
331.84	20.58
332.051	18.88
332.262	17.48
332.474	18.5
332.685	16.78
332.897	17.27
333.108	20.4
333.319	20.5
333.531	22.84
333.742	22.71
333.953	21.68
334.165	20.63
334.376	21.73
334.587	22.28
334.799	22.18
335.01	22.86
335.221	24.48
335.432	23.07
335.644	22.72
335.855	21.86
336.066	22.49
336.277	24.16
336.488	24.19
336.7	23.67
336.911	23.47
337.122	23.77
337.333	23.67
337.544	23.26
337.755	23.03
337.966	23.65
338.177	23.77
338.388	23.66
338.599	24.7
338.811	23.01
339.022	22.19
339.233	22.93
339.444	21.59
339.655	22.49
339.866	21.86
340.076	21.92
340.287	21.8
340.498	20.92
340.709	19.39
340.92	17.5
341.131	19.42
341.342	19.97
341.553	18.83
341.764	20.88
341.975	20.05
342.185	20.63
342.396	20.11
342.607	20.88
342.818	20.21
343.029	21.38
343.239	21.42
343.45	20.35
343.661	19.42
343.872	19.15
344.082	18.19
344.293	17.83
344.504	17.3
344.714	18.64
344.925	17.6
345.136	17.91
345.346	17.74
345.557	19.38
345.768	20.33
345.978	21.54
346.189	22.64
346.399	23.77
346.61	24.79
346.821	25.12
347.031	25.27
347.242	26.29
347.452	25.2
347.663	25.65
347.873	24.92
348.084	24.47
348.294	22.84
348.504	21.79
348.715	21.03
348.925	18.5
349.136	17.67
349.346	15.68
349.557	14.47
349.767	16.25
349.977	16.02
350.188	15.25
350.398	15.37
350.608	16.25
350.819	16.38
351.029	15.28
351.239	16.99
351.449	17.33
351.66	18.75
351.87	18.13
352.08	19.94
352.29	20.27
352.501	19.72
352.711	19.5
352.921	20.66
353.131	20.49
353.341	20.34
353.552	20.92
353.762	20.02
353.972	19.32
354.182	19.87
354.392	19.27
354.602	18.54
354.812	19.45
355.022	20.35
355.232	19.67
355.442	19.71
355.652	20.12
355.862	20.2
356.072	21
356.282	20.4
356.492	19.36
356.702	18.56
356.912	17.49
357.122	16.43
357.332	16.52
357.542	15.96
357.752	16.43
357.962	15.76
358.171	16.81
358.381	16.34
358.591	17.1
358.801	18.44
359.011	19.33
359.221	21.03
359.43	21.76
359.64	21.59
359.85	22.21
360.06	22.1
360.269	22.77
360.479	21.35
360.689	21.74
360.899	21.39
361.108	21.68
361.318	21.01
361.528	20.42
361.737	21.37
361.947	20.89
362.156	20.64
362.366	21.06
362.576	21.17
362.785	21.77
362.995	21.34
363.204	21.69
363.414	21.14
363.623	21.98
363.833	21.5
364.042	20.72
364.252	20.76
364.461	20.34
364.671	20.66
364.88	20.71
365.09	20.07
365.299	20.16
365.509	20.01
365.718	20.29
365.927	18.77
366.137	19.69
366.346	18.93
366.555	18.89
366.765	19.76
366.974	18.66
367.183	17.78
367.393	17.26
367.602	18.25
367.811	17.61
368.021	17.35
368.23	18.45
368.439	18.11
368.648	18.4
368.857	17.92
369.067	17.01
369.276	16.9
369.485	16.76
369.694	17.01
369.903	15.75
370.112	16.03
370.321	16.04
370.531	16.05
370.74	15.28
370.949	16.2
371.158	16.82
371.367	16.98
371.576	17.54
371.785	18.36
371.994	18.32
372.203	19.48
372.412	20.14
372.621	20.03
372.83	19.63
373.039	19.93
373.248	18.7
373.457	18.8
373.666	18.88
373.874	18.27
374.083	17.37
374.292	17.36
374.501	16.71
374.71	15.74
374.919	15.54
375.128	15.72
375.336	15.79
375.545	15.95
375.754	16.57
375.963	15.65
376.171	16.11
376.38	16.78
376.589	16.4
376.798	16
377.006	16.72
377.215	16.67
377.424	16.26
377.632	15.97
377.841	15.84
378.05	14.88
378.258	15.71
378.467	15.51
378.675	15.15
378.884	15.59
379.093	15.59
379.301	14.85
379.51	14.56
379.718	14.34
379.927	14.74
380.135	14.92
380.344	15.1
380.552	13.34
380.761	13.76
380.969	13.67
381.177	13.15
381.386	13.28
381.594	13.47
381.803	13.02
382.011	13.08
382.219	12.63
382.428	12.8
382.636	12.06
382.845	13.32
383.053	12.74
383.261	12.47
383.469	12.75
383.678	12.33
383.886	11.94
384.094	12.56
384.302	12.68
384.511	13.02
384.719	12.14
384.927	12.84
385.135	13.09
385.343	13.04
385.552	13.2
385.76	13.23
385.968	12.85
386.176	12.65
386.384	12.19
386.592	11.84
386.8	11.52
387.008	11.67
387.216	11.41
387.424	11.3
387.633	11.13
387.841	10.79
388.049	10.47
388.257	10.78
388.465	11.23
388.672	11.47
388.88	11.57
389.088	11.53
389.296	11.62
389.504	11.89
389.712	11.54
389.92	11.71
390.128	11.86
390.336	12.05
390.544	12.09
390.751	12.5
390.959	12.2
391.167	12.22
391.375	11.95
391.583	12.06
391.79	11.7
391.998	12.03
392.206	11.87
392.414	11.98
392.621	11.77
392.829	11.79
393.037	11.41
393.244	11.65
393.452	11.19
393.66	11.19
393.867	11.22
394.075	10.96
394.283	10.41
394.49	10.4
394.698	10.28
394.905	10.19
395.113	10.13
395.32	9.83
395.528	9.39
395.735	9.86
395.943	9.99
396.15	9.97
396.358	9.94
396.565	10.06
396.773	10.22
396.98	9.72
397.188	9.9
397.395	9.76
397.602	10.08
397.81	10.08
398.017	10.4
398.225	10.62
398.432	10.35
398.639	10.67
398.847	10.55
399.054	10.13
399.261	10.39
399.468	10.45
399.676	10.42
399.883	10.05
400.09	10.39
400.297	10.12
400.505	9.99
400.712	10.11
400.919	10.33
401.126	10.47
401.333	10.66
401.54	10.62
401.748	10.45
401.955	10.27
402.162	10.38
402.369	10.4
402.576	10.37
402.783	10.26
402.99	10.18
403.197	10.01
403.404	10.47
403.611	10.55
403.818	10.86
404.025	10.8
404.232	11.07
404.439	11.2
404.646	11
404.853	10.97
405.06	10.94
405.267	11.24
405.474	11.4
405.681	10.82
405.887	10.59
406.094	10.43
406.301	10.65
406.508	10.59
406.715	10.44
406.922	10.36
407.128	10.31
407.335	10.36
407.542	10.23
407.749	9.93
407.955	10.19
408.162	9.94
408.369	9.75
408.575	9.69
408.782	9.3
408.989	9.39
409.195	9.04
409.402	8.93
409.609	8.9
409.815	8.86
410.022	8.76
410.228	9.11
410.435	9.28
410.642	9.36
410.848	8.93
411.055	9.1
411.261	8.94
411.468	9.45
411.674	9.65
411.881	9.77
412.087	9.69
412.294	9.89
412.5	9.38
412.706	9.78
412.913	9.61
413.119	10.03
413.326	9.9
413.532	9.86
413.738	9.9
413.945	10.03
414.151	10.08
414.357	9.94
414.564	10.02
414.77	9.96
414.976	9.62
415.182	9.94
415.389	9.49
415.595	9.68
415.801	9.85
416.007	9.9
416.214	9.44
416.42	9.15
416.626	9.22
416.832	9.26
417.038	9.33
417.244	9.39
417.45	9.24
417.657	9.57
417.863	9.74
418.069	9.79
418.275	9.66
418.481	9.74
418.687	9.85
418.893	10.06
419.099	9.99
419.305	9.75
419.511	9.59
419.717	9.66
419.923	9.62
420.129	9.57
420.335	9.61
420.541	9.45
420.746	9.49
420.952	9.4
421.158	9.26
421.364	9.09
421.57	9.17
421.776	9.26
421.982	9.08
422.187	8.98
422.393	9.07
422.599	8.89
422.805	9.17
423.01	9.18
423.216	9.26
423.422	9.26
423.628	9.36
423.833	9.62
424.039	9.64
424.245	9.81
424.45	9.91
424.656	9.67
424.862	9.65
425.067	9.44
425.273	9.48
425.478	9.45
425.684	9.39
425.889	9.42
426.095	9.22
426.301	9.12
426.506	9.06
426.712	9.01
426.917	9.22
427.123	9.34
427.328	9.37
427.533	9.07
427.739	9.16
427.944	9.12
428.15	9.18
428.355	9.28
428.561	9.67
428.766	9.61
428.971	9.52
429.177	9.34
429.382	9.14
429.587	9.31
429.793	9.44
429.998	9.39
430.203	9.3
430.408	8.99
430.614	8.81
430.819	8.64
431.024	8.79
431.229	8.68
431.434	8.55
431.64	8.71
431.845	8.83
432.05	8.96
432.255	8.84
432.46	8.76
432.665	8.83
432.87	9.06
433.076	9.04
433.281	9.15
433.486	9.35
433.691	9.58
433.896	9.57
434.101	9.59
434.306	9.63
434.511	9.7
434.716	9.91
434.921	9.88
435.126	9.64
435.331	9.8
435.535	9.73
435.74	9.81
435.945	9.72
436.15	9.6
436.355	9.27
436.56	9.37
436.765	9.47
436.97	9.52
437.174	9.7
437.379	9.98
437.584	9.76
437.789	9.5
437.993	9.44
438.198	9.29
438.403	9.57
438.608	9.79
438.812	9.71
439.017	9.77
439.222	9.65
439.426	9.68
439.631	9.64
439.836	9.72
440.04	9.86
440.245	9.93
440.45	9.97
440.654	9.76
440.859	9.79
441.063	9.68
441.268	9.62
441.472	9.67
441.677	9.54
441.881	9.26
442.086	9.12
442.29	9.1
442.495	8.94
442.699	8.97
442.904	9.1
443.108	8.91
443.312	8.77
443.517	8.74
443.721	8.73
443.925	8.83
444.13	9.13
444.334	9.05
444.538	8.98
444.743	8.99
444.947	9.24
445.151	9.02
445.356	8.93
445.56	9.02
445.764	9.04
445.968	8.94
446.173	8.83
446.377	8.91
446.581	9.04
446.785	9.02
446.989	8.99
447.193	8.6
447.398	8.64
447.602	8.8
447.806	8.74
448.01	8.62
448.214	8.66
448.418	8.71
448.622	8.72
448.826	8.47
449.03	8.51
449.234	8.53
449.438	8.52
449.642	8.62
449.846	8.44
450.05	8.52
450.254	8.43
450.458	8.45
450.662	8.41
450.866	8.03
451.069	8.33
451.273	8.59
451.477	8.63
451.681	9.05
451.885	9.16
452.089	9.29
452.292	9.02
452.496	9.17
452.7	9.12
452.904	9.12
453.107	9.25
453.311	9.3
453.515	9
453.719	8.9
453.922	8.8
454.126	8.58
454.33	8.74
454.533	9.1
454.737	9.01
454.94	9.14
455.144	9.08
455.348	8.92
455.551	8.65
455.755	8.76
455.958	8.76
456.162	8.91
456.365	8.91
456.569	8.65
456.772	8.66
456.976	8.7
457.179	8.58
457.383	8.51
457.586	8.61
457.79	8.74
457.993	8.57
458.196	8.59
458.4	8.5
458.603	8.55
458.807	8.63
459.01	8.56
459.213	8.64
459.417	8.81
459.62	8.78
459.823	8.66
460.026	8.74
460.23	8.77
460.433	8.78
460.636	8.67
460.839	8.7
461.042	8.69
461.246	8.71
461.449	8.72
461.652	8.58
461.855	8.69
462.058	9.02
462.261	9.07
462.464	8.99
462.668	9.01
462.871	9.03
463.074	8.85
463.277	8.83
463.48	8.75
463.683	8.48
463.886	8.35
464.089	8.23
464.292	7.93
464.495	7.8
464.698	8.05
464.901	7.9
465.104	7.82
465.306	8.07
465.509	7.91
465.712	7.92
465.915	8.22
466.118	8.23
466.321	8.18
466.524	8.44
466.726	8.4
466.929	8.28
467.132	8.37
467.335	8.27
467.538	8.06
467.74	8.25
467.943	8.33
468.146	8.12
468.348	8.26
468.551	8.46
468.754	8.27
468.956	8.18
469.159	8.08
469.362	8.22
469.564	8.26
469.767	8.39
469.969	8.21
470.172	8.04
470.375	8.14
470.577	8.22
470.78	8.12
470.982	8.16
471.185	8.25
471.387	8.46
471.59	8.33
471.792	8.59
471.995	8.53
472.197	8.53
472.399	8.44
472.602	8.34
472.804	8.38
473.007	8.28
473.209	8.2
473.411	8.16
473.614	8.03
473.816	7.99
474.018	7.83
474.22	7.88
474.423	7.75
474.625	8
474.827	7.93
475.03	7.82
475.232	7.93
475.434	8.17
475.636	8.38
475.838	8.33
476.04	8.34
476.243	8.33
476.445	8.24
476.647	8.47
476.849	8.37
477.051	8.38
477.253	8.27
477.455	8.46
477.657	8.36
477.859	8.25
478.061	8.36
478.263	8.31
478.465	8.17
478.667	8.27
478.869	8.31
479.071	8.48
479.273	8.7
479.475	8.76
479.677	8.66
479.879	8.59
480.081	8.62
480.283	8.63
480.485	8.79
480.686	9.09
480.888	9.06
481.09	9.11
481.292	8.93
481.494	8.7
481.695	8.74
481.897	8.61
482.099	8.6
482.301	8.56
482.502	8.61
482.704	8.5
482.906	8.46
483.107	8.54
483.309	8.42
483.511	8.45
483.712	8.51
483.914	8.46
484.115	8.49
484.317	8.56
484.519	8.55
484.72	8.57
484.922	8.56
485.123	8.58
485.325	8.57
485.526	8.61
485.728	8.63
485.929	8.72
486.131	8.82
486.332	8.9
486.534	8.92
486.735	8.95
486.936	8.9
487.138	9
487.339	8.94
487.541	8.92
487.742	9.05
487.943	9.01
488.144	8.95
488.346	8.92
488.547	8.88
488.748	8.86
488.95	8.89
489.151	8.86
489.352	8.91
489.553	8.94
489.755	8.88
489.956	8.75
490.157	8.74
490.358	8.73
490.559	8.76
490.76	8.67
490.961	8.63
491.163	8.65
491.364	8.67
491.565	8.62
491.766	8.63
491.967	8.7
492.168	8.71
492.369	8.77
492.57	8.77
492.771	8.73
492.972	8.8
493.173	8.75
493.374	8.71
493.575	8.66
493.776	8.62
493.976	8.64
494.177	8.52
494.378	8.48
494.579	8.59
494.78	8.69
494.981	8.69
495.182	8.78
495.382	8.76
495.583	8.76
495.784	8.83
495.985	8.94
496.185	9.01
496.386	9.18
496.587	9.35
496.788	9.29
496.988	9.13
497.189	9.1
497.39	9.08
497.59	9.08
497.791	9
497.992	9.05
498.192	8.97
498.393	8.85
498.593	8.77
498.794	8.65
498.994	8.66
499.195	8.74
499.395	8.83
499.596	8.66
499.796	8.7
499.997	8.89
500.197	8.88
500.398	8.99
500.598	8.97
500.799	8.92
500.999	8.91
501.199	8.85
501.4	8.85
501.6	8.78
501.801	8.71
502.001	8.85
502.201	8.6
502.402	8.64
502.602	8.54
502.802	8.61
503.002	8.58
503.203	8.68
503.403	8.58
503.603	8.57
503.803	8.49
504.003	8.53
504.204	8.44
504.404	8.73
504.604	8.73
504.804	8.63
505.004	8.61
505.204	8.78
505.404	8.7
505.604	8.69
505.804	8.78
506.005	8.69
506.205	8.8
506.405	8.78
506.605	8.58
506.805	8.62
507.005	8.54
507.204	8.53
507.404	8.5
507.604	8.47
507.804	8.73
508.004	8.74
508.204	8.81
508.404	8.73
508.604	8.73
508.804	8.76
509.003	8.63
509.203	8.8
509.403	8.84
509.603	8.69
509.803	8.67
510.002	8.31
510.202	8.17
510.402	8.27
510.602	8.42
510.801	8.7
511.001	8.75
511.201	8.81
511.4	8.8
511.6	8.76
511.8	8.85
511.999	8.99
512.199	9.1
512.398	9.2
512.598	9.26
512.797	9.21
512.997	9
513.197	8.95
513.396	8.94
513.596	8.9
513.795	9.1
513.994	9.2
514.194	9.28
514.393	9.34
514.593	9.24
514.792	9.4
514.992	9.28
515.191	9.23
515.39	9.33
515.59	9.33
515.789	9.35
515.988	9.31
516.188	9.29
516.387	9.25
516.586	9.21
516.786	9.43
516.985	9.35
517.184	9.5
517.383	9.62
517.582	9.43
517.782	9.54
517.981	9.57
518.18	9.61
518.379	9.67
518.578	9.59
518.777	9.68
518.976	9.63
519.176	9.48
519.375	9.45
519.574	9.46
519.773	9.71
519.972	9.7
520.171	9.77
520.37	9.6
520.569	9.58
520.768	9.6
520.967	9.61
521.166	9.42
521.365	9.54
521.564	9.68
521.762	9.56
521.961	9.44
522.16	9.38
522.359	9.31
522.558	9.44
522.757	9.53
522.956	9.68
523.154	9.6
523.353	9.81
523.552	9.75
523.751	9.76
523.949	9.78
524.148	9.93
524.347	9.9
524.546	9.87
524.744	9.83
524.943	9.79
525.142	9.77
525.34	9.88
525.539	9.9
525.737	10.05
525.936	9.99
526.135	10.12
526.333	10.04
526.532	10.18
526.73	10.28
526.929	10.36
527.127	10.37
527.326	10.34
527.524	10.4
527.723	10.37
527.921	10.35
528.12	10.46
528.318	10.45
528.516	10.51
528.715	10.53
528.913	10.58
529.112	10.54
529.31	10.56
529.508	10.61
529.707	10.57
529.905	10.61
530.103	10.6
530.301	10.61
530.5	10.61
530.698	10.57
530.896	10.52
531.094	10.45
531.293	10.58
531.491	10.62
531.689	10.55
531.887	10.7
532.085	10.7
532.283	10.81
532.481	10.77
532.68	10.82
532.878	10.83
533.076	10.88
533.274	10.92
533.472	10.96
533.67	10.99
533.868	11.01
534.066	10.93
534.264	10.96
534.462	10.95
534.66	10.9
534.858	10.91
535.056	10.95
535.253	10.95
535.451	10.94
535.649	10.98
535.847	10.97
536.045	11.06
536.243	11.11
536.441	11.25
536.638	11.19
536.836	11.32
537.034	11.39
537.232	11.44
537.43	11.48
537.627	11.6
537.825	11.42
538.023	11.51
538.22	11.46
538.418	11.38
538.616	11.22
538.813	11.25
539.011	11.26
539.209	11.33
539.406	11.48
539.604	11.45
539.801	11.57
539.999	11.68
540.196	11.69
540.394	11.78
540.591	11.85
540.789	12.04
540.986	12.26
541.184	12.32
541.381	12.2
541.579	12.24
541.776	12.35
541.974	12.33
542.171	12.32
542.368	12.36
542.566	12.44
542.763	12.54
542.96	12.49
543.158	12.42
543.355	12.39
543.552	12.53
543.75	12.51
543.947	12.56
544.144	12.56
544.341	12.57
544.539	12.61
544.736	12.77
544.933	12.74
545.13	12.8
545.327	12.82
545.524	12.88
545.722	13.03
545.919	12.99
546.116	13.05
546.313	13.1
546.51	13.36
546.707	13.3
546.904	13.21
547.101	13.37
547.298	13.52
547.495	13.66
547.692	13.76
547.889	13.64
548.086	13.82
548.283	13.68
548.48	13.89
548.677	13.97
548.874	14.11
549.07	14.17
549.267	14.26
549.464	14.31
549.661	14.38
549.858	14.48
550.055	14.72
550.251	14.57
550.448	14.79
550.645	14.81
550.842	14.87
551.038	15.09
551.235	15.18
551.432	15.34
551.628	15.41
551.825	15.34
552.022	15.39
552.218	15.48
552.415	15.79
552.612	15.85
552.808	15.88
553.005	15.84
553.201	15.86
553.398	15.84
553.594	15.9
553.791	15.89
553.987	15.94
554.184	15.98
554.38	15.96
554.577	15.95
554.773	16.02
554.97	16.03
555.166	16.18
555.362	16.25
555.559	16.48
555.755	16.53
555.952	16.75
556.148	16.88
556.344	17.2
556.541	17.42
556.737	17.48
556.933	17.74
557.129	17.71
557.326	17.58
557.522	17.54
557.718	17.61
557.914	17.6
558.11	17.51
558.307	17.78
558.503	17.72
558.699	17.62
558.895	17.63
559.091	17.67
559.287	17.94
559.483	18.21
559.679	18.5
559.876	18.51
560.072	18.46
560.268	18.41
560.464	18.57
560.66	18.73
560.856	18.97
561.052	19.2
561.247	19.28
561.443	19.43
561.639	19.51
561.835	19.45
562.031	19.59
562.227	19.93
562.423	20.21
562.619	19.98
562.815	20.11
563.01	20.24
563.206	20.32
563.402	20.29
563.598	20.33
563.793	20.41
563.989	20.75
564.185	20.85
564.381	20.72
564.576	20.94
564.772	21.18
564.968	20.96
565.163	20.88
565.359	20.7
565.555	20.87
565.75	21.07
565.946	21.16
566.141	21.02
566.337	21.03
566.532	21.12
566.728	21.01
566.923	20.94
567.119	21.3
567.314	21.44
567.51	21.65
567.705	21.73
567.901	21.79
568.096	21.77
568.292	22.04
568.487	22.04
568.682	22.14
568.878	22.36
569.073	22.56
569.268	22.49
569.464	22.62
569.659	22.91
569.854	22.73
570.05	22.6
570.245	22.94
570.44	23.03
570.635	23.44
570.831	23.57
571.026	23.69
571.221	23.84
571.416	23.92
571.611	23.85
571.806	23.93
572.002	24.28
572.197	24.5
572.392	24.45
572.587	24.43
572.782	24.4
572.977	24.67
573.172	24.66
573.367	24.71
573.562	24.81
573.757	24.96
573.952	24.74
574.147	24.78
574.342	24.84
574.537	24.81
574.732	24.87
574.927	24.82
575.121	24.65
575.316	24.49
575.511	24.66
575.706	24.71
575.901	24.7
576.096	25.08
576.29	25.2
576.485	25.46
576.68	25.75
576.875	25.9
577.069	26.02
577.264	26.3
577.459	26.72
577.654	26.6
577.848	26.53
578.043	26.66
578.238	26.6
578.432	26.37
578.627	26.1
578.821	25.96
579.016	25.8
579.21	25.83
579.405	25.84
579.6	25.68
579.794	25.87
579.989	25.98
580.183	26.34
580.378	26.14
580.572	26.33
580.766	26.42
580.961	26.77
581.155	27.11
581.35	27.18
581.544	27.08
581.738	27.34
581.933	27.4
582.127	27.23
582.321	27.33
582.516	27.25
582.71	27.4
582.904	27.78
583.099	27.54
583.293	27.58
583.487	27.62
583.681	27.75
583.875	27.65
584.07	27.58
584.264	27.94
584.458	27.77
584.652	28.26
584.846	28.12
585.04	27.89
585.234	28
585.428	27.7
585.623	27.68
585.817	27.56
586.011	27.55
586.205	27.79
586.399	27.82
586.593	27.62
586.787	27.55
586.981	27.59
587.174	27.61
587.368	27.86
587.562	28.1
587.756	28.39
587.95	28.76
588.144	28.89
588.338	28.76
588.532	29.07
588.725	29.44
588.919	29.7
589.113	30.01
589.307	30.06
589.501	29.98
589.694	30.29
589.888	30.12
590.082	30.19
590.275	30.25
590.469	30.15
590.663	29.94
590.856	30.18
591.05	30.01
591.244	30
591.437	30.24
591.631	30.26
591.824	30.04
592.018	30.13
592.212	29.99
592.405	30
592.599	30.43
592.792	30.43
592.986	30.25
593.179	30.23
593.372	30.2
593.566	29.91
593.759	29.92
593.953	30.03
594.146	29.95
594.339	30.12
594.533	30.17
594.726	30.05
594.92	30.24
595.113	30.37
595.306	30.64
595.499	30.85
595.693	30.88
595.886	30.89
596.079	30.9
596.272	31.05
596.466	31.04
596.659	31.18
596.852	31.27
597.045	31.23
597.238	31.03
597.431	30.99
597.624	30.65
597.818	30.72
598.011	30.8
598.204	30.73
598.397	30.83
598.59	30.8
598.783	30.66
598.976	30.66
599.169	30.8
599.362	31.1
599.555	31.29
599.748	31.41
599.941	31.48
600.134	31.42
600.326	31.31
600.519	31.42
600.712	31.47
600.905	31.46
601.098	31.54
601.291	31.64
601.483	31.65
601.676	31.44
601.869	31.57
602.062	31.8
602.255	32.06
602.447	32.11
602.64	32
602.833	31.74
603.025	31.97
603.218	31.84
603.411	31.66
603.603	31.54
603.796	31.94
603.989	31.78
604.181	31.95
604.374	31.76
604.566	31.97
604.759	32
604.951	32.05
605.144	31.88
605.336	31.85
605.529	31.79
605.721	32.01
605.914	31.55
606.106	31.82
606.299	31.63
606.491	31.6
606.683	31.67
606.876	31.71
607.068	31.71
607.26	31.63
607.453	31.71
607.645	31.87
607.837	31.5
608.03	31.92
608.222	32
608.414	31.7
608.606	31.59
608.799	31.8
608.991	31.84
609.183	31.98
609.375	32.39
609.567	32.33
609.759	32.29
609.952	32.08
610.144	31.78
610.336	31.48
610.528	31.62
610.72	31.7
610.912	31.01
611.104	31.08
611.296	30.97
611.488	30.66
611.68	30.84
611.872	30.76
612.064	31.36
612.256	31.62
612.448	31.58
612.64	31.62
612.832	31.51
613.023	31.75
613.215	31.46
613.407	31.53
613.599	31.54
613.791	31.51
613.983	31.66
614.174	31.23
614.366	31.02
614.558	31.34
614.75	31.63
614.941	31.83
615.133	32.52
615.325	32.51
615.516	32.83
615.708	32.82
615.9	32.66
616.091	32.71
616.283	32.87
616.475	33.18
616.666	33.36
616.858	33.39
617.049	33.3
617.241	32.99
617.432	33.06
617.624	32.65
617.815	33.06
618.007	33.23
618.198	33.19
618.39	33.26
618.581	32.93
618.773	33.14
618.964	32.98
619.155	33.31
619.347	33.26
619.538	33.21
619.729	33.27
619.921	33.17
620.112	33.46
620.303	33.49
620.494	33.49
620.686	33.9
620.877	33.91
621.068	34.03
621.259	34.47
621.451	34.81
621.642	35.1
621.833	35.12
622.024	35.27
622.215	35.34
622.406	35.19
622.597	35.23
622.788	34.73
622.98	34.48
623.171	34.43
623.362	34.14
623.553	34.03
623.744	33.81
623.935	33.71
624.126	33.5
624.317	33.39
624.508	33.42
624.698	33.11
624.889	33.4
625.08	33.29
625.271	33.4
625.462	33.22
625.653	33.1
625.844	33.43
626.034	33.61
626.225	33.75
626.416	33.75
626.607	34.1
626.798	34.43
626.988	34.67
627.179	34.82
627.37	34.59
627.56	34.6
627.751	34.84
627.942	34.77
628.132	35.11
628.323	35.08
628.514	34.74
628.704	34.41
628.895	34.01
629.085	33.48
629.276	33.41
629.466	33.57
629.657	33.79
629.847	33.58
630.038	33.35
630.228	33.1
630.419	33.15
630.609	33.46
630.8	33.25
630.99	33.91
631.181	34.09
631.371	34.39
631.561	34.01
631.752	34.04
631.942	33.97
632.132	34.31
632.323	34.36
632.513	34.16
632.703	33.89
632.893	34.14
633.084	33.52
633.274	33.91
633.464	33.55
633.654	33.64
633.844	33.61
634.034	33.59
634.225	33.4
634.415	33.5
634.605	33.27
634.795	33.71
634.985	33.76
635.175	33.9
635.365	33.83
635.555	33.96
635.745	34.08
635.935	34.02
636.125	34.44
636.315	34.21
636.505	34.36
636.695	34.65
636.885	34.57
637.075	34.92
637.265	35.15
637.455	34.91
637.644	35.08
637.834	35.16
638.024	35.14
638.214	34.92
638.404	35.23
638.593	34.92
638.783	35.04
638.973	34.67
639.163	34.36
639.352	34.3
639.542	34.55
639.732	34.55
639.921	34.96
640.111	35.02
640.301	34.7
640.49	34.78
640.68	34.63
640.87	34.61
641.059	34.79
641.249	35.03
641.438	34.85
641.628	34.94
641.817	35.12
642.007	34.43
642.196	34.62
642.386	34.65
642.575	35.1
642.764	35.27
642.954	35.03
643.143	35.37
643.333	35.5
643.522	35.76
643.711	35.42
643.901	34.79
644.09	35.19
644.279	34.8
644.469	34.92
644.658	34.23
644.847	34.17
645.036	34.28
645.226	33.77
645.415	33.97
645.604	34.06
645.793	34.17
645.982	34.31
646.171	34.4
646.361	34.19
646.55	34.16
646.739	34.78
646.928	34.69
647.117	34.59
647.306	34.81
647.495	34.74
647.684	34.47
647.873	34.39
648.062	34.78
648.251	34.51
648.44	34.65
648.629	34.7
648.818	33.9
649.007	34.39
649.196	34.41
649.384	34.42
649.573	33.93
649.762	34.08
649.951	34.75
650.14	34.54
650.328	34.82
650.517	35.35
650.706	35.45
650.895	36.05
651.083	36.1
651.272	36.26
651.461	36.27
651.65	36.67
651.838	36.8
652.027	36.09
652.216	36.13
652.404	35.94
652.593	35.27
652.781	35.33
652.97	34.82
653.158	34.42
653.347	34.77
653.535	34.86
653.724	35.05
653.912	35.17
654.101	35.22
654.289	35.55
654.478	35.48
654.666	35.34
654.855	35.22
655.043	35.96
655.231	35.93
655.42	35.97
655.608	35.9
655.796	35.66
655.985	35.69
656.173	35.78
656.361	35.31
656.55	35.76
656.738	36.63
656.926	36.8
657.114	36.76
657.302	36.98
657.491	36.08
657.679	36.48
657.867	36.24
658.055	36.25
658.243	36.76
658.431	36.82
658.619	36.62
658.807	36.24
658.996	36.23
659.184	35.99
659.372	36.06
659.56	36.61
659.748	36.12
659.936	36.05
660.124	35.67
660.311	35.03
660.499	35.4
660.687	35.62
660.875	35.49
661.063	35.38
661.251	35.18
661.439	34.87
661.627	34.53
661.814	34.7
662.002	34.81
662.19	35.04
662.378	35.38
662.565	34.87
662.753	34.29
662.941	34.4
663.129	34.48
663.316	34.61
663.504	34.44
663.692	34.7
663.879	34.93
664.067	34.98
664.254	35.02
664.442	35.32
664.63	35.44
664.817	35.57
665.005	35.66
665.192	35.33
665.38	35.51
665.567	36.13
665.755	36.52
665.942	36.1
666.13	36.04
666.317	36.18
666.504	35.73
666.692	35.28
666.879	35.84
667.067	35.57
667.254	35.91
667.441	36.15
667.629	35.93
667.816	35.83
668.003	35.86
668.19	35.95
668.378	35.57
668.565	36.33
668.752	36.69
668.939	36.47
669.127	36.82
669.314	36.86
669.501	36.15
669.688	36.04
669.875	36.19
670.062	36.47
670.249	36.02
670.436	36.14
670.623	35.25
670.81	35.1
670.997	35.21
671.184	35.75
671.371	35.92
671.558	36.32
671.745	36.26
671.932	36.17
672.119	35.78
672.306	36.69
672.493	36.3
672.68	36.14
672.867	36.4
673.054	36
673.24	35.28
673.427	35.24
673.614	35.19
673.801	35.23
673.988	34.73
674.174	35.6
674.361	34.55
674.548	35.76
674.734	36.53
674.921	36.41
675.108	37.39
675.294	37.92
675.481	37.39
675.668	37.57
675.854	37.87
676.041	38.33
676.227	38.04
676.414	38.68
676.601	38.42
676.787	38.28
676.974	38.21
677.16	37.32
677.347	37.05
677.533	37.26
677.719	36.54
677.906	36.57
678.092	36.7
678.279	36.69
678.465	36.95
678.651	36.76
678.838	36.63
679.024	36.84
679.21	37.61
679.397	37.5
679.583	37.7
679.769	37.78
679.955	37.51
680.142	37.39
680.328	37.36
680.514	37.28
680.7	37.29
680.886	37.78
681.073	37.81
681.259	37.16
681.445	37.13
681.631	36.87
681.817	37.48
682.003	37.73
682.189	37.47
682.375	37.62
682.561	37.44
682.747	37.52
682.933	37.57
683.119	37.31
683.305	37.38
683.491	38
683.677	38.01
683.863	38.08
684.049	37.99
684.235	37.53
684.42	37.23
684.606	37.02
684.792	37.4
684.978	36.99
685.164	37.4
685.349	37.24
685.535	36.04
685.721	35.85
685.907	35.74
686.092	35.79
686.278	35.99
686.464	36.01
686.649	35.69
686.835	34.87
687.021	34.35
687.206	34.44
687.392	34.37
687.577	34.88
687.763	35.12
687.948	35.1
688.134	35.04
688.319	35.85
688.505	35.77
688.69	36.19
688.876	36.27
689.061	36.8
689.247	36.02
689.432	35.93
689.618	36.02
689.803	36.44
689.988	36.15
690.174	36.51
690.359	36.1
690.544	36.54
690.73	36.66
690.915	36.85
691.1	36.94
691.285	37.17
691.471	37.65
691.656	37.52
691.841	37.22
692.026	37.25
692.211	36.92
692.396	36.53
692.582	35.92
692.767	35.2
692.952	34.89
693.137	34.94
693.322	35.05
693.507	34.76
693.692	35.1
693.877	34.87
694.062	34.55
694.247	34.62
694.432	35
694.617	35.83
694.802	36.56
694.987	37.49
695.172	36.77
695.357	37.12
695.541	37.91
695.726	37.57
695.911	37.47
696.096	37.58
696.281	37.55
696.466	37.46
696.65	37.28
696.835	37.73
697.02	37.29
697.204	37.33
697.389	37.59
697.574	36.88
697.759	36.93
697.943	37.1
698.128	37.07
698.312	37.31
698.497	37.79
698.682	37.57
698.866	36.96
699.051	36.93
699.235	36.71
699.42	36.27
699.604	36.87
699.789	36.51
699.973	36.53
700.158	36.63
700.342	36.51
700.527	36.35
700.711	36.14
700.895	36.32
701.08	36.16
701.264	36.23
701.448	36.6
701.633	35.86
701.817	36.2
702.001	36.22
702.186	36.15
702.37	34.99
702.554	34.73
702.738	35.14
702.923	35.22
703.107	35.37
703.291	36.08
703.475	36.26
703.659	35.69
703.843	36.98
704.027	37.58
704.212	37.36
704.396	38.3
704.58	38.35
704.764	37.56
704.948	37.5
705.132	37.5
705.316	36.98
705.5	37.19
705.684	38.03
705.868	36.57
706.052	35.37
706.235	36.03
706.419	35.77
706.603	36
706.787	36.35
706.971	37.41
707.155	36.58
707.339	36.78
707.522	36.09
707.706	35.64
707.89	36.1
708.074	37.23
708.257	37.25
708.441	37.48
708.625	37.16
708.808	36.52
708.992	35.83
709.176	36.68
709.359	37.05
709.543	36.94
709.727	37.28
709.91	36.7
710.094	36.23
710.277	35.5
710.461	35.76
710.644	36.41
710.828	37.17
711.011	37.18
711.195	36.86
711.378	36.91
711.562	36.92
711.745	37.06
711.928	37.45
712.112	37.56
712.295	37.79
712.478	37.99
712.662	37.5
712.845	37.28
713.028	37.43
713.212	37.28
713.395	36.8
713.578	36.55
713.761	36.23
713.945	36.83
714.128	35.73
714.311	35.85
714.494	35.37
714.677	34.94
714.86	35.05
715.043	34.52
715.227	35.21
715.41	35.28
715.593	35.93
715.776	36.67
715.959	36.05
716.142	36.92
716.325	37.96
716.508	38.67
716.691	39.05
716.874	39.55
717.057	39.41
717.239	39.19
717.422	39.13
717.605	39.56
717.788	38.69
717.971	38.21
718.154	37.83
718.337	36.76
718.519	36.78
718.702	36.84
718.885	36.62
719.068	36.79
719.25	36
719.433	35.59
719.616	34.63
719.798	34.46
719.981	34.76
720.164	34.64
720.346	35.06
720.529	33.65
720.712	32.88
720.894	32.82
721.077	32.72
721.259	32.89
721.442	33.09
721.624	33.8
721.807	33.9
721.989	34.54
722.172	35.51
722.354	35.41
722.537	36.06
722.719	36.74
722.901	36.25
723.084	36.85
723.266	38.09
723.448	38.61
723.631	39.21
723.813	39.47
723.995	38.73
724.178	37.71
724.36	36.7
724.542	36.57
724.724	36.66
724.907	36.97
725.089	37.53
725.271	37.42
725.453	36.84
725.635	36.35
725.817	36.71
725.999	37.41
726.181	37.7
726.364	39.23
726.546	39.25
726.728	39.91
726.91	40.01
727.092	39.7
727.274	39.38
727.456	39.47
727.638	38.23
727.819	38.26
728.001	37.92
728.183	37.69
728.365	37.48
728.547	38.36
728.729	37.75
728.911	37.34
729.093	37.01
729.274	36.48
729.456	37.66
729.638	37.38
729.82	37.82
730.001	38.2
730.183	38.67
730.365	37.75
730.546	36.44
730.728	36.44
730.91	36.53
731.091	35.92
731.273	35.82
731.455	36.1
731.636	37.95
731.818	37.36
731.999	36.68
732.181	36.59
732.362	36
732.544	35.64
732.725	35.8
732.907	36.54
733.088	36.98
733.27	37.89
733.451	36.25
733.633	36.44
733.814	36.27
733.995	37.31
734.177	37.13
734.358	38.46
734.539	39.49
734.721	37.32
734.902	36.14
735.083	36.6
735.264	36.47
735.446	36.16
735.627	34.81
735.808	35.11
735.989	34.07
736.17	34.66
736.351	33.89
736.533	34.29
736.714	36.39
736.895	36.47
737.076	36.15
737.257	35.9
737.438	37.42
737.619	36.72
737.8	36.82
737.981	37.96
738.162	37.53
738.343	37.54
738.524	35.68
738.705	36.68
738.886	37.82
739.067	37.62
739.247	38.52
739.428	37.28
739.609	39.09
739.79	37.13
739.971	35.79
740.151	35.52
740.332	35.42
740.513	36.32
740.694	35.37
740.874	35.11
741.055	34.89
741.236	34.77
741.417	36.02
741.597	34.65
741.778	36.17
741.958	36.68
742.139	36.26
742.32	36.64
742.5	37.39
742.681	36.67
742.861	36.37
743.042	35.56
743.222	33.86
743.403	33.32
743.583	33.1
743.764	35.23
743.944	34.22
744.124	33.17
744.305	32.95
744.485	32.75
744.666	33.09
744.846	32.6
745.026	33.78
745.207	35.16
745.387	34.9
745.567	34.62
745.747	31.77
745.928	32.37
746.108	34.24
746.288	34.99
746.468	35.16
746.648	33.95
746.829	34.31
747.009	34.93
747.189	33.81
747.369	33.62
747.549	34.56
747.729	34.06
747.909	33.96
748.089	34.21
748.269	35.41
748.449	36.45
748.629	37.69
748.809	36.83
748.989	36.31
749.169	36.16
749.349	36.76
749.529	37.11
749.709	38.76
749.889	39.25
750.068	39.08
750.248	36.31
750.428	34.97
750.608	35.46
750.788	37.32
750.967	38.04
751.147	37.94
751.327	37.75
751.507	37.73
751.686	39.21
751.866	39.64
752.046	39.13
752.225	40.51
752.405	41.59
752.585	42.21
752.764	40.66
752.944	39.62
753.123	40.51
753.303	40.91
753.482	40.07
753.662	39.18
753.841	38.86
754.021	40.89
754.2	40.57
754.38	40.3
754.559	40.07
754.739	40.99
754.918	40.28
755.097	39.87
755.277	38.91
755.456	39.66
755.635	37.98
755.815	38.38
755.994	36.42
756.173	36.22
756.352	34.74
756.532	34.03
756.711	33.6
756.89	35.32
757.069	34.52
757.248	34.51
757.427	34.86
757.607	35.55
757.786	35.37
757.965	35.73
758.144	36.24
758.323	36.66
758.502	36.7
758.681	37.85
758.86	36.71
759.039	38.27
759.218	39.07
759.397	39.26
759.576	38.02
759.755	37.78
759.934	37.2
760.113	37.16
760.291	36.98
760.47	37.82
760.649	37.28
760.828	38
761.007	37.9
761.186	38.66
761.364	37.35
761.543	38.75
761.722	39.38
761.901	40.55
762.079	39.67
762.258	40.14
762.437	40.14
762.615	39.53
762.794	38.24
762.972	38.59
763.151	36.99
763.33	36.95
763.508	36.91
763.687	36.52
763.865	36.24
764.044	36.38
764.222	36.85
764.401	36.48
764.579	37.4
764.758	38.53
764.936	37.41
765.114	38.47
765.293	38.98
765.471	38.55
765.65	38.84
765.828	39.4
766.006	40.73
766.184	40.11
766.363	40.2
766.541	38.45
766.719	37.96
766.898	40.38
767.076	39.29
767.254	40.28
767.432	42.17
767.61	43.14
767.788	44.62
767.967	44.24
768.145	43.96
768.323	43.13
768.501	43.84
768.679	43.06
768.857	41.42
769.035	41.47
769.213	39.81
769.391	39.7
769.569	37.26
769.747	35.08
769.925	32.46
770.103	33.03
770.281	32.81
770.459	35.32
770.636	35.64
770.814	35.25
770.992	37.95
771.17	40.53
771.348	38.35
771.525	41.02
771.703	40.21
771.881	41.35
772.059	42.75
772.236	42.45
772.414	37.16
772.592	38.21
772.769	37.19
772.947	35.28
773.125	34.29
773.302	34.62
773.48	34.4
773.657	32.27
773.835	32.77
774.013	32.45
774.19	32.23
774.368	35.44
774.545	35.4
774.723	35.05
774.9	35.4
775.077	34.38
775.255	35.85
775.432	35.11
775.61	35.41
775.787	33.51
775.964	31.86
776.142	33.74
776.319	32.89
776.496	34.63
776.674	38.07
776.851	38.55
777.028	39.13
777.205	37.09
777.382	38.51
777.56	40.75
777.737	43.41
777.914	41.4
778.091	41.13
778.268	42.4
778.445	42.72
778.622	40
778.8	37.39
778.977	37.69
779.154	38.87
779.331	35.76
779.508	34.66
779.685	33.66
779.862	34.16
780.038	34.39
780.215	36.14
780.392	30.08
780.569	30.34
780.746	31.13
780.923	32.13
781.1	32.8
781.277	35.2
781.453	34.42
781.63	33.06
781.807	33.62
781.984	30.11
782.16	30.54
782.337	36.25
782.514	36.38
782.691	37.58
782.867	35.54
783.044	34.42
783.221	34.51
783.397	36.62
783.574	37.85
783.75	37.46
783.927	41.12
784.103	36.72
784.28	35.47
784.456	34.18
784.633	34.05
784.809	32.62
784.986	32.1
785.162	30.33
785.339	28.11
785.515	29.3
785.692	30.35
785.868	28.28
786.044	32.03
786.221	30.57
786.397	31.1
786.573	32.82
786.749	31.26
786.926	34.48
787.102	34.05
787.278	37.21
787.454	35.55
787.631	33.73
787.807	33.27
787.983	32.17
788.159	33.66
788.335	38.24
788.511	36.56
788.687	39.58
788.863	38.61
789.039	39.58
789.216	38.16
789.392	41
789.568	44.94
789.744	47.46
789.919	50.23
790.095	46.88
790.271	43.67
790.447	43.71
790.623	44.11
790.799	44.21
790.975	45.76
791.151	46.93
791.327	45.81
791.502	44.55
791.678	43.07
791.854	36.37
792.03	38.73
792.205	39.88
792.381	39.91
792.557	38.65
792.733	39.17
792.908	38.26
793.084	34.68
793.259	32.55
793.435	35.27
793.611	36.05
793.786	37.48
793.962	40.47
794.137	40.23
794.313	38.62
794.488	41.28
794.664	41.51
794.839	41.72
795.015	44
795.19	44.76
795.366	38.6
795.541	34.74
795.716	36.31
795.892	32.34
796.067	28.35
796.242	32.28
796.418	32.6
796.593	29.24
796.768	25.03
796.944	25.41
797.119	24.96
797.294	27.94
797.469	29.41
797.644	30.36
797.82	30.51
797.995	30.93
798.17	32.65
798.345	29.96
798.52	30.74
798.695	32.72
798.87	28.47
799.045	29.28
799.22	27.92
799.395	31.59
799.57	29.49
799.745	30.53
799.92	33.58
800.095	27.07
800.27	24.98
800.445	21.63
800.62	22.72
800.795	29.53
800.97	34.09
801.145	36.93
801.319	31.2
801.494	32.67
801.669	36.13
801.844	33.32
802.018	39.81
802.193	40.27
802.368	38.8
802.543	37.75
802.717	34.82
802.892	31.78
803.067	32.23
803.241	33.2
803.416	32.02
803.59	26.49
803.765	31.46
803.94	29.26
804.114	31.77
804.289	38.05
804.463	39.73
804.638	41.68
804.812	44.42
804.986	43.71
805.161	45.54
805.335	49.34
805.51	53
805.684	51.93
805.858	50.8
806.033	46.1
806.207	45.4
806.381	47.47
806.556	45.49
806.73	42.59
806.904	43
807.078	42.83
807.253	42
807.427	35
807.601	32.71
807.775	31.09
807.949	37.61
808.123	36.45
808.298	35.91
808.472	33.66
808.646	37.12
808.82	30.43
808.994	29.08
809.168	24.86
809.342	29.44
809.516	31.71
809.69	35.57
809.864	34.3
810.038	33.53
810.212	28.62
810.385	30.97
810.559	26.48
810.733	30.37
810.907	30.74
811.081	31.58
811.255	32.58
811.428	34.36
811.602	33.87
811.776	34.1
811.95	29.85
812.123	31.81
812.297	24.32
812.471	25.96
812.644	33.29
812.818	35.33
812.992	32.4
813.165	30.25
813.339	28.67
813.512	24.19
813.686	20.43
813.86	27.58
814.033	33.13
814.207	34.81
814.38	37.56
814.554	31.45
814.727	33.43
814.9	39.76
815.074	41.65
815.247	40.48
815.421	41.53
815.594	46.3
815.767	45.74
815.941	44.31
816.114	48.94
816.287	46.62
816.46	43.85
816.634	45.83
816.807	45.2
816.98	46.51
817.153	45.88
817.327	50.78
817.5	49.64
817.673	52.01
817.846	50.87
818.019	54.16
818.192	53.79
818.365	63.33
818.538	60.24
818.711	54.93
818.884	55.93
819.057	50.51
819.23	43.99
819.403	44.8
819.576	40.78
819.749	40.51
819.922	38.78
820.095	42.97
820.268	33.8
820.441	33.78
820.614	38.84
820.786	35.16
820.959	38.2
821.132	38.61
821.305	36.08
821.477	37.35
821.65	38.53
821.823	37.9
821.996	36.74
822.168	37.88
822.341	37.76
822.514	38.06
822.686	38.34
822.859	38.07
823.031	38.69
823.204	39.13
823.376	39.58
823.549	39.02
823.722	39.26
823.894	38.32
824.067	38.54
824.239	39.57
824.411	39.6
824.584	39.8
824.756	40.13
824.929	39.39
825.101	39.11
825.273	38.66
825.446	38.33
825.618	38.87
825.79	40.97
825.963	41.4
826.135	40.3
826.307	40.11
826.479	41.5
826.652	40.57
826.824	41.22
826.996	42.8
827.168	42.92
827.34	42.33
827.512	41.01
827.684	40.34
827.856	40.49
828.029	40.84
828.201	38.77
828.373	34.32
828.545	34.15
828.717	32.01
828.889	31.22
829.061	29.49
829.232	28.17
829.404	28.09
829.576	24.7
829.748	20.5
829.92	20.74
830.092	22.78
830.264	25.63
830.436	27.97
830.607	29.05
830.779	28.2
830.951	32.66
831.123	35.85
831.294	35.31
831.466	38.56
831.638	42.81
831.809	43.56
831.981	35.77
832.153	40.27
832.324	37.48
832.496	41.82
832.667	35.88
832.839	31.19
833.011	35.29
833.182	35.64
833.354	34.6
833.525	34.48
833.697	31.19
833.868	37.83
834.039	34.74
834.211	35.02
834.382	34.82
834.554	37.39
834.725	37.58
834.896	34.18
835.068	33.16
835.239	36.13
835.41	36.48
835.581	35.62
835.753	34.24
835.924	36.49
836.095	36.98
836.266	34.09
836.438	32.95
836.609	31.27
836.78	31.45
836.951	30.42
837.122	24.56
837.293	22.18
837.464	26.47
837.635	28.43
837.806	28.34
837.977	31.55
838.148	35.17
838.319	37.29
838.49	39.38
838.661	45.1
838.832	51.62
839.003	51.96
839.174	51.89
839.345	51.41
839.516	44.03
839.687	45.16
839.857	43.08
840.028	34.64
840.199	41.15
840.37	44.46
840.54	45.04
840.711	41.68
840.882	45.5
841.053	40.83
841.223	36.01
841.394	33.97
841.564	27.8
841.735	26.64
841.906	41.14
842.076	29.72
842.247	26.23
842.417	19.82
842.588	26.53
842.758	36.31
842.929	43.07
843.099	48.25
843.27	50.67
843.44	56.86
843.611	50.73
843.781	44.83
843.951	53.33
844.122	55.02
844.292	48.29
844.462	48.24
844.633	38.07
844.803	31.33
844.973	24.44
845.144	27
845.314	16.75
845.484	22.93
845.654	25.08
845.824	13.47
845.995	9.29
846.165	20.71
846.335	22.08
846.505	20.59
846.675	22.11
846.845	21.09
847.015	23.95
847.185	13
847.355	24.32
847.525	16.46
847.695	20.7
847.865	10.73
848.035	7.06
848.205	-14.02
848.375	-14.24
848.545	-18.53
848.715	-11.03
848.884	-21.13
849.054	-8.13
849.224	-8.14
849.394	-4.15
849.564	2.57
849.733	-7.3
849.903	-20.36
850.073	-16.55
850.243	-16.79
850.412	-21.46
850.582	-5.98
850.752	-3.15
850.921	18.8
851.091	17.92
851.26	13.2
851.43	12.87
851.599	14.87
851.769	41.61
851.939	37.1
852.108	48.57
852.278	56.83
852.447	20.21
852.616	25.4
852.786	24.92
852.955	-4.68
853.125	2.76
853.294	-3.4
853.463	9.47
853.633	-3.67
853.802	-5.73
853.971	-24.66
854.141	-28.5
854.31	-23.23
854.479	-16.48
854.648	-48.86
854.818	-34.78
854.987	-35.97
855.156	-5.54
855.325	-6.74
855.494	7.75
855.663	14.39
855.832	24.82
856.001	35.12
856.171	49.97
856.34	71.18
856.509	94.31
856.678	81.06
856.847	81.2
857.016	43.25
857.185	58.42
857.353	39.89
857.522	35.44
857.691	36.66
857.86	24.83
858.029	36.35
858.198	18.53
858.367	-4.56
858.535	-10.03
858.704	-4.49
858.873	15.26
859.042	6.26
859.21	38.69
859.379	28.97
859.548	24.79
859.717	41.75
859.885	34.44
860.054	52.29
860.222	76.09
860.391	124.17
860.56	235.54
860.728	132.47
860.897	81.54
861.065	110
861.234	112.07
861.402	127.87
861.571	100.08
861.739	73.39
861.908	64.94
862.076	50.17
862.244	51.22
862.413	33.13
862.581	42.76
862.749	32.36
862.918	12.9
863.086	-10.42
863.254	-9.63
863.423	-2.86
863.591	22.91
863.759	32.35
863.927	27.43
864.096	32.28
864.264	54.11
864.432	55.2
864.6	66.56
864.768	70.05
864.936	69.01
865.104	90.85
865.272	55.6
865.44	57.83
865.608	41.92
865.776	23.22
865.944	10.83
866.112	-17.71
866.28	-30.35
866.448	-14.26
866.616	-18.31
866.784	4.52
866.952	0.78
867.12	-6.33
867.288	-0.28
867.455	0.43
867.623	17.27
867.791	17.98
867.959	19.53
868.127	45.65
868.294	24.78
868.462	20.82
868.63	53.99
868.797	-28.57
868.965	-1.08
869.133	-13.21
869.3	40.9
869.468	60.77
869.636	95
869.803	80.38
869.971	80.68
870.138	72.42
870.306	92.38
870.473	74.89
870.641	85.82
870.808	77.93
870.975	93.21
871.143	32.51
871.31	3.18
871.478	-73.34
871.645	-101.02
871.812	-91.76
871.98	-77.51
872.147	-71.61
872.314	-28.49
872.482	-45.65
872.649	-19.63
872.816	0.04
872.983	21.87
873.15	34.57
873.318	57.67
873.485	64.56
873.652	54.92
873.819	21.66
873.986	24.83
874.153	22.49
874.32	20.5
874.487	-9.86
874.654	-25.47
874.821	-70.38
874.988	-137.89
875.155	-180.72
875.322	-49.29
875.489	-12.18
875.656	45
875.823	7.22
875.99	11.4
876.157	28.2
876.324	77.17
876.49	72.13
876.657	90.21
876.824	111.27
876.991	147.74
877.157	140
877.324	132.69
877.491	101.86
877.658	142.38
877.824	158.79
877.991	105.78
878.157	71.77
878.324	52.8
878.491	7.31
878.657	-32.14
878.824	-39.06
878.99	-44.32
879.157	-8.36
879.323	-21.6
879.49	-43.07
879.656	-8.23
879.823	3.7
879.989	6.37
880.156	24.53
880.322	48.3
880.488	133.47
880.655	129.46
880.821	102.7
880.987	73.61
881.154	72.31
881.32	58.61
881.486	47.66
881.652	44.99
881.819	39.16
881.985	43.19
882.151	44.33
882.317	40.35
882.483	43.53
882.649	44.32
882.816	41.85
882.982	42.69
883.148	41.84
883.314	42.02
883.48	41
883.646	41.11
883.812	37.65
883.978	35.28
884.144	35.85
884.31	33.71
884.476	35.54
884.642	35.87
884.807	37.61
884.973	38.31
885.139	39.44
885.305	41.53
885.471	41.61
885.637	41.46
885.802	46.25
885.968	47.09
886.134	47.84
886.3	43.41
886.465	47.91
886.631	44.07
886.797	47.58
886.962	41.29
887.128	39.59
887.293	38.08
887.459	45.7
887.625	40.84
887.79	41.04
887.956	43.32
888.121	50.84
888.287	50.06
888.452	49.68
888.618	42.71
888.783	48.72
