Data from 2937831_Reflection_2.txt Node
Date: Wed Jul 15 16:45:29 EDT 2015
User: robert
Spectrometer: USB4E03001
Autoset integration time: false
Trigger mode: 4
Integration Time (sec): 1.000000E-1
Scans to average: 10
Electric dark correction enabled: true
Nonlinearity correction enabled: false
Boxcar width: 5
Stray light correction enabled: false
XAxis mode: Wavelengths
Stop averaging: false
Number of Pixels in Spectrum: 3648
>>>>>Begin Spectral Data<<<<<
177.566	-1641.96
177.785	-1608.77
178.005	181.98
178.225	260.14
178.445	354.25
178.665	115.9
178.885	206.32
179.105	410.27
179.324	-335.54
179.544	-117.25
179.764	-59.42
179.984	-253.57
180.204	-179.75
180.423	-326.52
180.643	-475.83
180.863	-296.28
181.083	-546.29
181.302	2537.3
181.522	-2456.03
181.742	396.31
181.961	451.22
182.181	589.24
182.401	446.29
182.621	233.27
182.84	286.48
183.06	406.31
183.279	826.49
183.499	942.8
183.719	-197.77
183.938	-160.76
184.158	-87.74
184.377	-64.33
184.597	-72.04
184.816	-38.3
185.036	-21.9
185.256	-10.58
185.475	0.72
185.695	15.16
185.914	10.21
186.134	18.15
186.353	8.3
186.572	-5.64
186.792	2.01
187.011	76.8
187.231	17.08
187.45	8.64
187.67	-58.79
187.889	-61.11
188.108	-109.13
188.328	-57.46
188.547	-31.85
188.766	-34.43
188.986	-48.68
189.205	-47.77
189.424	-57.98
189.644	-78.24
189.863	-152.79
190.082	-37.07
190.302	-45.83
190.521	12.87
190.74	23.93
190.959	59.59
191.178	10.63
191.398	35.77
191.617	-11.71
191.836	-44.29
192.055	-31.38
192.274	-14.77
192.494	-35.52
192.713	-58.18
192.932	-137.08
193.151	-308.29
193.37	-291.84
193.589	-151.25
193.808	-151.62
194.027	-78.92
194.246	-34.38
194.465	-60.89
194.685	-81.44
194.904	-101.72
195.123	-72.75
195.342	-31.4
195.561	-18.32
195.78	-9.46
195.999	-15.91
196.218	-5.75
196.436	-33.6
196.655	-49.21
196.874	-43.36
197.093	-34.96
197.312	-7.01
197.531	-9.57
197.75	-41.14
197.969	-97.61
198.188	-250.98
198.407	-387.75
198.625	-786.41
198.844	-819.74
199.063	-439.76
199.282	-254.5
199.501	-268.15
199.719	-353.14
199.938	-409.02
200.157	-1698.26
200.376	-545.01
200.594	-279.93
200.813	-455.36
201.032	-629.35
201.251	-277.83
201.469	-140.52
201.688	-131.08
201.907	-59.76
202.125	-68.48
202.344	-58.03
202.563	-25.43
202.781	-28.88
203	-8.7
203.218	3
203.437	9.39
203.656	-2.77
203.874	-35.34
204.093	-64.21
204.311	-178.21
204.53	-166.36
204.748	-97.48
204.967	-137.93
205.185	-85.59
205.404	-361.91
205.622	-286.05
205.841	-432.9
206.059	-862.51
206.278	-631.37
206.496	-314.78
206.715	-152.82
206.933	-147.6
207.151	-164.62
207.37	-115.07
207.588	-99.14
207.806	-32.64
208.025	-9.83
208.243	-1.47
208.461	6.11
208.68	23.34
208.898	6.33
209.116	-21.02
209.335	-11.54
209.553	-9.8
209.771	-25.88
209.989	-64.04
210.208	-142.13
210.426	-108.04
210.644	-116.45
210.862	-104.61
211.081	-106.77
211.299	-82.04
211.517	-154.9
211.735	-87.88
211.953	-112.1
212.171	-67.05
212.39	-44.93
212.608	-0.04
212.826	-12.75
213.044	-67.26
213.262	-73.62
213.48	-55.99
213.698	-58.2
213.916	-6.26
214.134	-7.32
214.352	-58.92
214.57	-50.94
214.788	-38.38
215.006	-57.14
215.224	-35.89
215.442	-11.16
215.66	0.16
215.878	-39.09
216.096	-52.87
216.314	-37.15
216.532	-13.99
216.75	10.43
216.968	3.58
217.185	3.92
217.403	5.15
217.621	-24.86
217.839	-30.73
218.057	-24.19
218.275	-3.69
218.492	21.84
218.71	15.7
218.928	6.85
219.146	4.36
219.363	1.14
219.581	5.95
219.799	27.41
220.017	31.48
220.234	19.56
220.452	0.83
220.67	-13.68
220.887	-35.61
221.105	-38.35
221.323	-37.23
221.54	-49.43
221.758	-69.88
221.976	-114.46
222.193	-413.65
222.411	-731.8
222.629	-320.95
222.846	-150.51
223.064	-52.09
223.281	-85.33
223.499	-104.26
223.716	-132.22
223.934	-75.27
224.151	-70.51
224.369	-45.11
224.586	-28.81
224.804	-25.78
225.021	-31.04
225.239	-30.65
225.456	-31.21
225.674	-17.83
225.891	-6.75
226.108	-2.6
226.326	-12.32
226.543	-13.59
226.76	-23.79
226.978	-21.44
227.195	-27.21
227.413	-21.95
227.63	-17.52
227.847	-10.81
228.064	-11.3
228.282	-4.26
228.499	2.07
228.716	4.68
228.934	6.42
229.151	5.8
229.368	5.18
229.585	9.51
229.802	10.43
230.02	11.22
230.237	9.37
230.454	13.44
230.671	10.5
230.888	6.07
231.105	1.42
231.323	0.46
231.54	1.89
231.757	1.14
231.974	1.5
232.191	-1.79
232.408	4.65
232.625	0.4
232.842	-2.31
233.059	-5.24
233.276	1.35
233.493	3.71
233.71	4.56
233.927	8.32
234.144	15.31
234.361	16.86
234.578	23.22
234.795	21.49
235.012	18.38
235.229	16.14
235.446	20.3
235.663	16.14
235.879	15.07
236.096	18.08
236.313	18.89
236.53	18.76
236.747	17.14
236.964	9.72
237.181	4.68
237.397	12.28
237.614	13.35
237.831	11.63
238.048	10.8
238.264	9.49
238.481	4.61
238.698	-7.76
238.915	-10.79
239.131	-15.13
239.348	-4.82
239.565	2.64
239.781	4.19
239.998	2.33
240.215	3.15
240.431	4.84
240.648	4.02
240.865	4.51
241.081	14.03
241.298	13.08
241.514	12.76
241.731	12.22
241.947	8.83
242.164	9.39
242.38	10.06
242.597	11.32
242.814	12.26
243.03	14.67
243.246	16.52
243.463	14.3
243.679	14.12
243.896	14.61
244.112	11.78
244.329	14.46
244.545	11.57
244.762	9.07
244.978	5.77
245.194	4.31
245.411	5.65
245.627	4.42
245.843	7.14
246.06	9.15
246.276	9.59
246.492	9.62
246.709	10.31
246.925	10.7
247.141	12.11
247.357	13.65
247.574	13.19
247.79	12.03
248.006	12.15
248.222	11.26
248.439	10.42
248.655	11.23
248.871	10.91
249.087	8.17
249.303	8
249.519	7.56
249.736	7.29
249.952	7.35
250.168	8.37
250.384	8.75
250.6	9.16
250.816	7.46
251.032	5.91
251.248	8.49
251.464	8.67
251.68	10.57
251.896	8.15
252.112	6.75
252.328	7.14
252.544	7.7
252.76	5.48
252.976	2.86
253.192	2.92
253.408	2.58
253.624	2.91
253.84	3.61
254.056	0.47
254.272	1.33
254.487	0.98
254.703	0.37
254.919	-5.07
255.135	-5.35
255.351	-5.96
255.567	-6.45
255.782	-8.65
255.998	-9.54
256.214	-9.07
256.43	-10.33
256.646	-6.77
256.861	-10.95
257.077	-10.52
257.293	-10.08
257.508	-11.72
257.724	-6.92
257.94	-5.33
258.155	-3.11
258.371	-2.02
258.587	-2.21
258.802	-0.47
259.018	1.29
259.234	5.59
259.449	6.42
259.665	8.32
259.88	9.51
260.096	9.54
260.312	9.48
260.527	9.61
260.743	10.41
260.958	11.13
261.174	11.31
261.389	10.96
261.605	11.59
261.82	10.81
262.036	9.75
262.251	10.55
262.466	9.43
262.682	10.48
262.897	10.89
263.113	7.55
263.328	8.55
263.543	7.81
263.759	6.92
263.974	2.63
264.189	2.94
264.405	3.06
264.62	1.39
264.835	2.04
265.051	-1.63
265.266	-4.21
265.481	-0.86
265.696	-0.58
265.912	-0.88
266.127	-2.76
266.342	-3.07
266.557	-4.15
266.773	-3.49
266.988	-3.18
267.203	-2.57
267.418	-1.03
267.633	1.54
267.848	1.47
268.064	1.13
268.279	-0.16
268.494	3.09
268.709	3.67
268.924	4.59
269.139	3.47
269.354	4.37
269.569	3.12
269.784	3.14
269.999	2.72
270.214	3.01
270.429	3.19
270.644	7.02
270.859	4.43
271.074	4.26
271.289	4.76
271.504	6.56
271.719	6.71
271.934	8.07
272.149	8.09
272.363	7.94
272.578	9.23
272.793	9.7
273.008	9.83
273.223	10.92
273.438	13.03
273.653	13.54
273.867	13.63
274.082	13.85
274.297	13.9
274.512	14.91
274.726	14.63
274.941	13.59
275.156	12.63
275.371	11.06
275.585	11.97
275.8	10.74
276.015	12.26
276.229	10.52
276.444	10.08
276.659	10.44
276.873	10.32
277.088	9.87
277.302	7.9
277.517	7.49
277.732	7.55
277.946	4.95
278.161	3.87
278.375	1.47
278.59	3.88
278.804	2.38
279.019	2.16
279.233	3.12
279.448	4.76
279.662	5.39
279.877	6.52
280.091	6.52
280.306	8.06
280.52	7.61
280.735	8.15
280.949	7.78
281.163	9.83
281.378	9.17
281.592	7.08
281.806	6.65
282.021	6.42
282.235	6.16
282.449	5.63
282.664	4.42
282.878	5.52
283.092	6.06
283.307	6.28
283.521	5.03
283.735	6.34
283.949	7.67
284.164	8.86
284.378	8.66
284.592	9.51
284.806	10.35
285.02	12.83
285.234	12.83
285.449	11.9
285.663	11.09
285.877	10.35
286.091	9.23
286.305	8.73
286.519	7.94
286.733	8.12
286.947	6.45
287.161	5.37
287.375	2.84
287.589	0.3
287.803	0.77
288.017	0.05
288.231	-0.29
288.445	0.91
288.659	1.15
288.873	1
289.087	-0.13
289.301	1.28
289.515	2.94
289.729	3.69
289.943	5.67
290.157	5.45
290.371	6.47
290.584	7.91
290.798	6.27
291.012	7.51
291.226	7.04
291.44	8.32
291.654	8.07
291.867	6.46
292.081	4.43
292.295	3.51
292.509	3.86
292.722	3.75
292.936	2.98
293.15	4.62
293.364	1.86
293.577	1.4
293.791	1.28
294.005	1.92
294.218	3.13
294.432	4.9
294.645	6.39
294.859	7.37
295.073	6.81
295.286	5.88
295.5	4.4
295.713	6.91
295.927	8.37
296.14	8.59
296.354	9.4
296.568	9.74
296.781	9.69
296.994	9.47
297.208	9.43
297.421	10.63
297.635	12.56
297.848	13.25
298.062	12.52
298.275	11.64
298.489	11.75
298.702	10.43
298.915	10.65
299.129	11.15
299.342	11.89
299.555	11.45
299.769	9.62
299.982	7.55
300.195	7.17
300.409	7.24
300.622	7.39
300.835	9.53
301.048	8.29
301.262	7.51
301.475	7.51
301.688	7.12
301.901	6.45
302.115	5.52
302.328	6.81
302.541	6.52
302.754	5.63
302.967	5.39
303.18	2.65
303.393	4.21
303.607	4.11
303.82	5.21
304.033	5.34
304.246	5.47
304.459	8.52
304.672	9.15
304.885	10.14
305.098	10.69
305.311	11.82
305.524	12.06
305.737	11.51
305.95	12.79
306.163	12.15
306.376	9.84
306.589	9.83
306.802	8.2
307.015	6.21
307.228	5.59
307.44	4.13
307.653	5.36
307.866	6.39
308.079	7.12
308.292	3.67
308.505	4.11
308.718	6.94
308.93	7.61
309.143	9.11
309.356	10.46
309.569	11.37
309.781	12.73
309.994	12.27
310.207	12.49
310.42	12.02
310.632	15.11
310.845	14.57
311.058	13.69
311.27	12.93
311.483	11.15
311.696	10.02
311.908	10.54
312.121	10.28
312.333	9.62
312.546	8.65
312.759	9.31
312.971	7.49
313.184	6.57
313.396	7.05
313.609	6.41
313.821	6.89
314.034	5.75
314.246	2.37
314.459	2.26
314.671	3.02
314.884	2.09
315.096	1.91
315.309	0.45
315.521	-0.33
315.733	-1.25
315.946	-2.21
316.158	-3.24
316.371	-3.26
316.583	-1.48
316.795	-0.62
317.008	-1.97
317.22	-1.21
317.432	-1.6
317.644	0.7
317.857	2.18
318.069	2.92
318.281	3.47
318.494	4.35
318.706	8.27
318.918	7.73
319.13	7.27
319.342	7.65
319.555	7.05
319.767	6.89
319.979	6.68
320.191	5.61
320.403	4.81
320.615	4.54
320.827	4.49
321.039	4.05
321.252	4.15
321.464	3.99
321.676	2.61
321.888	1.95
322.1	1.92
322.312	0.32
322.524	1.27
322.736	0.59
322.948	1.41
323.16	3.39
323.372	3.09
323.584	4.34
323.796	5.33
324.007	6.83
324.219	8.25
324.431	8.86
324.643	10.13
324.855	11.08
325.067	11.07
325.279	10.34
325.491	8.74
325.702	8.22
325.914	7.13
326.126	6.14
326.338	6.61
326.55	6.79
326.761	6.5
326.973	5.33
327.185	3.7
327.396	4.99
327.608	5.85
327.82	6.46
328.032	6.61
328.243	5.23
328.455	4.8
328.666	3.81
328.878	3.28
329.09	3.41
329.301	4.82
329.513	4.55
329.725	4.17
329.936	4.66
330.148	6.43
330.359	6.87
330.571	9.06
330.782	7.4
330.994	7.72
331.205	8.49
331.417	9.96
331.628	9
331.84	10.09
332.051	11.19
332.262	11.07
332.474	8.19
332.685	7.67
332.897	7.86
333.108	9.47
333.319	8.65
333.531	8.85
333.742	7.28
333.953	8.54
334.165	10.35
334.376	8.6
334.587	7.39
334.799	7.36
335.01	7.07
335.221	5.94
335.432	5.69
335.644	5.84
335.855	6.07
336.066	7.81
336.277	7.63
336.488	7.17
336.7	7.13
336.911	6.96
337.122	7.83
337.333	7.26
337.544	8.07
337.755	7.68
337.966	8.04
338.177	7.11
338.388	5.37
338.599	5.08
338.811	2.99
339.022	2.15
339.233	3.55
339.444	1.83
339.655	1.55
339.866	2.38
340.076	3.15
340.287	4.04
340.498	3.71
340.709	3.89
340.92	2.88
341.131	3.41
341.342	4.79
341.553	4.71
341.764	7.06
341.975	8.5
342.185	7.32
342.396	7.79
342.607	7.05
342.818	7.47
343.029	9.13
343.239	10.17
343.45	10.13
343.661	10.14
343.872	8.77
344.082	8.6
344.293	9.46
344.504	9.99
344.714	9.72
344.925	9.21
345.136	10.04
345.346	8.3
345.557	8.02
345.768	7.02
345.978	7.05
346.189	7.73
346.399	7.59
346.61	6.36
346.821	6.55
347.031	6.67
347.242	6.53
347.452	5.52
347.663	5.06
347.873	6.1
348.084	6.95
348.294	6.29
348.504	6.84
348.715	5.96
348.925	6.1
349.136	5.13
349.346	4.61
349.557	5.45
349.767	4.99
349.977	5.76
350.188	4.05
350.398	4.13
350.608	4.83
350.819	4.85
351.029	5.13
351.239	4.59
351.449	6.01
351.66	5.5
351.87	5.44
352.08	5.86
352.29	6
352.501	8.01
352.711	7.94
352.921	8.45
353.131	9.38
353.341	9.22
353.552	9
353.762	8.22
353.972	9.76
354.182	9.29
354.392	9.51
354.602	9.81
354.812	8.89
355.022	9.4
355.232	9.82
355.442	8.86
355.652	9.73
355.862	10.06
356.072	10.72
356.282	9.61
356.492	10.3
356.702	9.96
356.912	9.07
357.122	8.58
357.332	8.23
357.542	7.4
357.752	7.23
357.962	7.2
358.171	8.06
358.381	7.35
358.591	7.09
358.801	6.84
359.011	6.74
359.221	7.38
359.43	7.69
359.64	7.14
359.85	6.89
360.06	6.62
360.269	5.99
360.479	5.35
360.689	5.38
360.899	6.78
361.108	6.54
361.318	6.3
361.528	5.97
361.737	5.65
361.947	5.83
362.156	6.31
362.366	6.64
362.576	6.49
362.785	6.13
362.995	5.71
363.204	5.11
363.414	4.37
363.623	4.33
363.833	4
364.042	4.96
364.252	5.34
364.461	4.67
364.671	4.42
364.88	4.42
365.09	5.06
365.299	5.66
365.509	3.89
365.718	4.53
365.927	4.49
366.137	4.76
366.346	4.7
366.555	4.58
366.765	4.14
366.974	4.58
367.183	4.64
367.393	3.79
367.602	3.5
367.811	4.71
368.021	4.99
368.23	5.7
368.439	5.34
368.648	3.84
368.857	2.85
369.067	4
369.276	3.43
369.485	3.2
369.694	4.24
369.903	4.09
370.112	4.12
370.321	5.06
370.531	4.74
370.74	5.43
370.949	5.4
371.158	5.89
371.367	6.33
371.576	6.26
371.785	6.55
371.994	5.58
372.203	6.39
372.412	6.47
372.621	5.4
372.83	5.62
373.039	5.44
373.248	5.44
373.457	5.92
373.666	5.15
373.874	5.49
374.083	4.72
374.292	5.29
374.501	4.44
374.71	4.04
374.919	3.77
375.128	3.3
375.336	3.68
375.545	4.45
375.754	4.87
375.963	4.26
376.171	3.95
376.38	4.64
376.589	3.99
376.798	4.96
377.006	4.95
377.215	5.3
377.424	5.45
377.632	5.25
377.841	4.87
378.05	4.37
378.258	4.55
378.467	5.12
378.675	5.11
378.884	5.84
379.093	4.77
379.301	5.77
379.51	5.67
379.718	5.27
379.927	4.72
380.135	5.05
380.344	5.07
380.552	5.15
380.761	5.03
380.969	5.25
381.177	4.78
381.386	5.69
381.594	4.85
381.803	4.95
382.011	5.54
382.219	5.38
382.428	4.54
382.636	3.96
382.845	3.69
383.053	3.23
383.261	3.74
383.469	3.94
383.678	3.3
383.886	3.52
384.094	3.36
384.302	3.21
384.511	3.33
384.719	2.96
384.927	3.09
385.135	3.07
385.343	3.32
385.552	2.5
385.76	2.09
385.968	1.78
386.176	1.41
386.384	1.26
386.592	1.12
386.8	0.94
387.008	1.36
387.216	1.66
387.424	1.79
387.633	1.84
387.841	1.67
388.049	1.84
388.257	1.78
388.465	2.16
388.672	2.03
388.88	2.07
389.088	2.56
389.296	2.64
389.504	2.6
389.712	2.72
389.92	2.49
390.128	2.39
390.336	2.35
390.544	2.77
390.751	2.14
390.959	2.23
391.167	2.35
391.375	2.01
391.583	2.94
391.79	2.91
391.998	2.76
392.206	2.81
392.414	3.13
392.621	2.93
392.829	3.12
393.037	3.49
393.244	3.57
393.452	3.58
393.66	3.73
393.867	3.28
394.075	3.21
394.283	3.31
394.49	3.03
394.698	3.1
394.905	3.56
395.113	3.34
395.32	3.14
395.528	3.22
395.735	3.32
395.943	3.33
396.15	3.3
396.358	3.76
396.565	3.64
396.773	3.89
396.98	3.87
397.188	3.8
397.395	4.26
397.602	4.41
397.81	4.35
398.017	4.41
398.225	4.23
398.432	3.67
398.639	3.08
398.847	3.48
399.054	3.19
399.261	3.27
399.468	3.26
399.676	2.49
399.883	2.35
400.09	2.53
400.297	2.21
400.505	2.3
400.712	2.89
400.919	3.41
401.126	3.18
401.333	3.01
401.54	3.1
401.748	2.84
401.955	3.17
402.162	3.38
402.369	3.09
402.576	3.13
402.783	3.07
402.99	2.76
403.197	2.37
403.404	2.46
403.611	2.73
403.818	2.7
404.025	3.15
404.232	3.03
404.439	2.86
404.646	3.5
404.853	3.83
405.06	3.9
405.267	4.26
405.474	4.3
405.681	4.03
405.887	4.12
406.094	4.23
406.301	4.1
406.508	4.15
406.715	4.27
406.922	3.79
407.128	3.86
407.335	4.04
407.542	3.65
407.749	4.06
407.955	4.2
408.162	4.15
408.369	3.82
408.575	3.45
408.782	3.8
408.989	3.62
409.195	3.26
409.402	2.74
409.609	2.81
409.815	3.1
410.022	2.79
410.228	3.09
410.435	3.45
410.642	3.47
410.848	3.54
411.055	2.93
411.261	3.63
411.468	3.92
411.674	3.72
411.881	3.72
412.087	3.65
412.294	3.65
412.5	3.53
412.706	3.51
412.913	3.39
413.119	3.35
413.326	3.71
413.532	3.18
413.738	3.07
413.945	3.04
414.151	3.07
414.357	3.11
414.564	3.23
414.77	3.08
414.976	2.55
415.182	2.78
415.389	2.71
415.595	2.61
415.801	2.97
416.007	2.98
416.214	3.21
416.42	2.89
416.626	2.83
416.832	2.7
417.038	2.7
417.244	2.9
417.45	2.82
417.657	3.11
417.863	3.29
418.069	3.18
418.275	3.03
418.481	3.04
418.687	3.25
418.893	3.24
419.099	3.14
419.305	3.29
419.511	3.36
419.717	3.5
419.923	3.4
420.129	3.28
420.335	3.06
420.541	3.15
420.746	3.17
420.952	3.17
421.158	3.15
421.364	3.17
421.57	3.13
421.776	3.04
421.982	2.88
422.187	2.92
422.393	2.84
422.599	2.93
422.805	3.12
423.01	3.21
423.216	2.98
423.422	3.06
423.628	3.17
423.833	3.2
424.039	3.2
424.245	3.21
424.45	3.11
424.656	3.2
424.862	3.34
425.067	3.25
425.273	3.3
425.478	3.39
425.684	3.39
425.889	3.45
426.095	3.38
426.301	3.45
426.506	3.54
426.712	3.66
426.917	3.7
427.123	3.4
427.328	3.46
427.533	3.32
427.739	3.23
427.944	3.05
428.15	2.82
428.355	2.88
428.561	2.9
428.766	2.6
428.971	2.66
429.177	2.65
429.382	2.59
429.587	2.27
429.793	2.34
429.998	2.55
430.203	2.73
430.408	2.63
430.614	2.54
430.819	2.48
431.024	2.91
431.229	2.78
431.434	2.94
431.64	3.09
431.845	3.39
432.05	3.22
432.255	3.17
432.46	3.03
432.665	2.98
432.87	2.98
433.076	2.78
433.281	2.73
433.486	2.66
433.691	2.57
433.896	2.46
434.101	2.42
434.306	2.51
434.511	2.6
434.716	2.8
434.921	3
435.126	3
435.331	3.21
435.535	3.02
435.74	3.12
435.945	3.15
436.15	3.34
436.355	3.22
436.56	3.1
436.765	2.9
436.97	2.59
437.174	2.54
437.379	2.43
437.584	2.52
437.789	2.57
437.993	2.64
438.198	2.35
438.403	2.25
438.608	2.32
438.812	2.19
439.017	2.24
439.222	2.28
439.426	2.16
439.631	2.19
439.836	2.01
440.04	2.07
440.245	1.92
440.45	2.06
440.654	2.12
440.859	2.02
441.063	2.1
441.268	2.15
441.472	2.19
441.677	2.35
441.881	2.5
442.086	2.6
442.29	2.77
442.495	2.86
442.699	2.97
442.904	2.86
443.108	2.83
443.312	2.94
443.517	3
443.721	2.86
443.925	2.85
444.13	2.72
444.334	2.74
444.538	2.59
444.743	2.56
444.947	2.54
445.151	2.59
445.356	2.83
445.56	2.81
445.764	2.85
445.968	3.02
446.173	3.12
446.377	3.2
446.581	3.1
446.785	3.04
446.989	3.06
447.193	3
447.398	3.02
447.602	2.94
447.806	2.97
448.01	2.96
448.214	2.89
448.418	2.7
448.622	2.59
448.826	2.47
449.03	2.52
449.234	2.52
449.438	2.82
449.642	2.82
449.846	2.74
450.05	2.39
450.254	2.26
450.458	2.27
450.662	2.33
450.866	2.27
451.069	2.53
451.273	2.5
451.477	2.48
451.681	2.15
451.885	2.21
452.089	2.16
452.292	2.44
452.496	2.53
452.7	2.29
452.904	2.23
453.107	2.35
453.311	2.22
453.515	2.3
453.719	2.12
453.922	2.16
454.126	2.1
454.33	2.2
454.533	2.31
454.737	2.11
454.94	2.41
455.144	2.48
455.348	2.28
455.551	2.28
455.755	2.12
455.958	2.19
456.162	2.07
456.365	2.13
456.569	1.96
456.772	1.89
456.976	1.89
457.179	1.83
457.383	1.67
457.586	1.66
457.79	1.8
457.993	1.83
458.196	1.8
458.4	1.95
458.603	2.06
458.807	2.15
459.01	2.01
459.213	2.11
459.417	2.17
459.62	2.29
459.823	2.44
460.026	2.44
460.23	2.44
460.433	2.6
460.636	2.56
460.839	2.39
461.042	2.49
461.246	2.79
461.449	2.75
461.652	2.57
461.855	2.66
462.058	2.79
462.261	2.48
462.464	2.51
462.668	2.46
462.871	2.42
463.074	2.67
463.277	2.49
463.48	2.14
463.683	2.14
463.886	2.5
464.089	2.34
464.292	2.26
464.495	2.22
464.698	2.47
464.901	2.36
465.104	2.33
465.306	2.14
465.509	2.27
465.712	2.17
465.915	2.39
466.118	2.25
466.321	2.09
466.524	1.9
466.726	1.98
466.929	1.72
467.132	1.69
467.335	1.8
467.538	1.92
467.74	1.83
467.943	2.01
468.146	1.76
468.348	1.91
468.551	2.12
468.754	1.99
468.956	2.26
469.159	2.08
469.362	2.36
469.564	2.21
469.767	2.07
469.969	2.05
470.172	1.99
470.375	2.15
470.577	1.96
470.78	1.92
470.982	2.28
471.185	2.4
471.387	2.58
471.59	2.29
471.792	2.4
471.995	2.42
472.197	2.2
472.399	2.47
472.602	2.44
472.804	2.39
473.007	2.51
473.209	2.12
473.411	2.2
473.614	2.12
473.816	2.23
474.018	2.59
474.22	2.54
474.423	2.71
474.625	2.75
474.827	2.65
475.03	2.66
475.232	2.52
475.434	2.68
475.636	2.5
475.838	2.49
476.04	2.59
476.243	2.14
476.445	2.17
476.647	2.28
476.849	2.13
477.051	2.34
477.253	2.37
477.455	2.39
477.657	2.43
477.859	2.47
478.061	2.51
478.263	2.38
478.465	2.67
478.667	2.63
478.869	2.46
479.071	2.45
479.273	2.37
479.475	2.45
479.677	2.38
479.879	2.44
480.081	2.37
480.283	2.43
480.485	2.3
480.686	2.27
480.888	2.39
481.09	2.61
481.292	2.51
481.494	2.65
481.695	2.63
481.897	2.67
482.099	2.7
482.301	2.69
482.502	2.6
482.704	2.74
482.906	2.66
483.107	2.63
483.309	2.6
483.511	2.54
483.712	2.47
483.914	2.47
484.115	2.51
484.317	2.48
484.519	2.5
484.72	2.52
484.922	2.52
485.123	2.5
485.325	2.51
485.526	2.45
485.728	2.52
485.929	2.55
486.131	2.51
486.332	2.45
486.534	2.46
486.735	2.44
486.936	2.49
487.138	2.43
487.339	2.44
487.541	2.4
487.742	2.51
487.943	2.51
488.144	2.58
488.346	2.57
488.547	2.56
488.748	2.55
488.95	2.51
489.151	2.39
489.352	2.41
489.553	2.3
489.755	2.39
489.956	2.28
490.157	2.22
490.358	2.1
490.559	2.16
490.76	2.19
490.961	2.19
491.163	2.29
491.364	2.39
491.565	2.43
491.766	2.5
491.967	2.49
492.168	2.4
492.369	2.32
492.57	2.2
492.771	2.23
492.972	2.29
493.173	2.29
493.374	2.29
493.575	2.23
493.776	2.28
493.976	2.38
494.177	2.32
494.378	2.35
494.579	2.59
494.78	2.76
494.981	2.59
495.182	2.54
495.382	2.56
495.583	2.38
495.784	2.52
495.985	2.38
496.185	2.26
496.386	2.24
496.587	2.44
496.788	2.36
496.988	2.35
497.189	2.46
497.39	2.4
497.59	2.38
497.791	2.35
497.992	2.14
498.192	2.19
498.393	2.15
498.593	2.11
498.794	2.03
498.994	2.03
499.195	2.02
499.395	1.92
499.596	2
499.796	2.04
499.997	1.99
500.197	2.14
500.398	2.2
500.598	2.27
500.799	2.19
500.999	2.18
501.199	2
501.4	2.14
501.6	2.41
501.801	2.23
502.001	2.12
502.201	2.29
502.402	2.44
502.602	2.23
502.802	2.2
503.002	2.35
503.203	2.38
503.403	2.6
503.603	2.42
503.803	2.37
504.003	2.47
504.204	2.51
504.404	2.72
504.604	2.62
504.804	2.71
505.004	2.77
505.204	2.83
505.404	2.81
505.604	2.74
505.804	2.84
506.005	2.85
506.205	2.74
506.405	2.73
506.605	2.55
506.805	2.59
507.005	2.37
507.204	2.22
507.404	2.33
507.604	2.34
507.804	2.44
508.004	2.25
508.204	2.08
508.404	2.18
508.604	2.23
508.804	2.28
509.003	2.17
509.203	2.24
509.403	2.31
509.603	2.11
509.803	2.07
510.002	1.98
510.202	2.25
510.402	2.34
510.602	2.35
510.801	2.36
511.001	2.44
511.201	2.41
511.4	2.46
511.6	2.45
511.8	2.55
511.999	2.65
512.199	2.75
512.398	2.58
512.598	2.57
512.797	2.64
512.997	2.64
513.197	2.61
513.396	2.69
513.596	2.68
513.795	2.78
513.994	2.7
514.194	2.75
514.393	2.75
514.593	2.57
514.792	2.63
514.992	2.47
515.191	2.46
515.39	2.5
515.59	2.48
515.789	2.32
515.988	2.43
516.188	2.48
516.387	2.43
516.586	2.53
516.786	2.76
516.985	2.55
517.184	2.64
517.383	2.55
517.582	2.57
517.782	2.71
517.981	2.89
518.18	2.75
518.379	2.83
518.578	2.93
518.777	2.83
518.976	2.78
519.176	2.97
519.375	2.96
519.574	3.14
519.773	2.97
519.972	2.8
520.171	2.86
520.37	2.86
520.569	2.75
520.768	2.49
520.967	2.69
521.166	2.85
521.365	2.78
521.564	2.83
521.762	2.72
521.961	2.91
522.16	3.18
522.359	3.22
522.558	3.3
522.757	3.29
522.956	3.37
523.154	3.13
523.353	3.07
523.552	3.06
523.751	3.12
523.949	3.22
524.148	3.32
524.347	3.17
524.546	3.06
524.744	3.15
524.943	3.27
525.142	3.46
525.34	3.64
525.539	3.61
525.737	3.62
525.936	3.58
526.135	3.46
526.333	3.41
526.532	3.37
526.73	3.52
526.929	3.53
527.127	3.52
527.326	3.47
527.524	3.45
527.723	3.58
527.921	3.63
528.12	3.56
528.318	3.62
528.516	3.65
528.715	3.7
528.913	3.63
529.112	3.62
529.31	3.58
529.508	3.66
529.707	3.58
529.905	3.48
530.103	3.46
530.301	3.57
530.5	3.54
530.698	3.42
530.896	3.44
531.094	3.46
531.293	3.46
531.491	3.55
531.689	3.48
531.887	3.65
532.085	3.73
532.283	3.78
532.481	3.75
532.68	3.76
532.878	3.91
533.076	3.95
533.274	3.97
533.472	4.06
533.67	4.13
533.868	4.13
534.066	4.07
534.264	4.14
534.462	4.1
534.66	4.07
534.858	4.23
535.056	4.18
535.253	4.14
535.451	4.13
535.649	4.08
535.847	4
536.045	4.1
536.243	4.17
536.441	4.11
536.638	4.15
536.836	4.1
537.034	3.95
537.232	4.04
537.43	4.09
537.627	4.22
537.825	4.27
538.023	4.21
538.22	4.22
538.418	4.15
538.616	4.26
538.813	4.34
539.011	4.75
539.209	4.9
539.406	4.77
539.604	4.78
539.801	4.72
539.999	4.72
540.196	4.97
540.394	4.82
540.591	4.88
540.789	4.76
540.986	4.71
541.184	4.63
541.381	4.59
541.579	4.72
541.776	4.78
541.974	4.81
542.171	4.79
542.368	4.76
542.566	4.83
542.763	4.91
542.96	4.94
543.158	4.95
543.355	5
543.552	5.04
543.75	5.14
543.947	5.12
544.144	5.18
544.341	5.23
544.539	5.2
544.736	5.22
544.933	5.14
545.13	5.19
545.327	5.27
545.524	5.33
545.722	5.34
545.919	5.21
546.116	5.33
546.313	5.41
546.51	5.46
546.707	5.42
546.904	5.52
547.101	5.55
547.298	5.57
547.495	5.56
547.692	5.61
547.889	5.58
548.086	5.62
548.283	5.55
548.48	5.48
548.677	5.34
548.874	5.57
549.07	5.67
549.267	5.74
549.464	6.01
549.661	6.21
549.858	6
550.055	6.19
550.251	6.2
550.448	6.1
550.645	5.8
550.842	6.06
551.038	5.81
551.235	5.57
551.432	5.8
551.628	5.65
551.825	5.65
552.022	5.81
552.218	5.85
552.415	5.88
552.612	6.02
552.808	6.52
553.005	6.57
553.201	6.8
553.398	7.01
553.594	6.94
553.791	7.14
553.987	7.07
554.184	6.97
554.38	7.12
554.577	7.19
554.773	7.31
554.97	7.08
555.166	7.16
555.362	7.11
555.559	7.15
555.755	7.21
555.952	7.26
556.148	7.58
556.344	7.83
556.541	7.73
556.737	8.05
556.933	8.06
557.129	8.22
557.326	8.21
557.522	8.49
557.718	8.54
557.914	8.47
558.11	8.32
558.307	8.11
558.503	8.23
558.699	8.28
558.895	8.09
559.091	8.18
559.287	8.39
559.483	8.52
559.679	8.39
559.876	8.72
560.072	9
560.268	9.2
560.464	9.48
560.66	9.52
560.856	9.66
561.052	9.63
561.247	9.6
561.443	9.65
561.639	9.71
561.835	9.84
562.031	9.68
562.227	9.51
562.423	9.43
562.619	9.32
562.815	9.39
563.01	9.56
563.206	9.67
563.402	9.95
563.598	9.88
563.793	9.79
563.989	9.88
564.185	10.02
564.381	10.22
564.576	10.43
564.772	10.59
564.968	10.63
565.163	10.52
565.359	10.64
565.555	10.57
565.75	10.83
565.946	11.24
566.141	11.26
566.337	11.39
566.532	11.36
566.728	11.46
566.923	11.47
567.119	11.56
567.314	11.65
567.51	11.79
567.705	11.9
567.901	11.84
568.096	11.69
568.292	11.64
568.487	11.65
568.682	11.8
568.878	11.81
569.073	11.87
569.268	12.01
569.464	12.2
569.659	12.13
569.854	12.19
570.05	12.29
570.245	12.43
570.44	12.65
570.635	12.64
570.831	12.49
571.026	12.61
571.221	12.81
571.416	12.64
571.611	12.64
571.806	12.61
572.002	12.88
572.197	12.85
572.392	12.72
572.587	12.71
572.782	12.87
572.977	13.22
573.172	13.2
573.367	13.07
573.562	13.23
573.757	13.2
573.952	13.35
574.147	12.98
574.342	12.89
574.537	13
574.732	13.08
574.927	13.15
575.121	13.23
575.316	13.2
575.511	13.43
575.706	13.55
575.901	13.53
576.096	13.75
576.29	14
576.485	14.22
576.68	14.43
576.875	14.36
577.069	14.21
577.264	14.03
577.459	14.06
577.654	13.97
577.848	14.07
578.043	14.18
578.238	14.09
578.432	14.23
578.627	14.31
578.821	13.98
579.016	14
579.21	14.11
579.405	14.2
579.6	14.2
579.794	14.27
579.989	14.22
580.183	14.36
580.378	14.47
580.572	14.26
580.766	14.36
580.961	14.72
581.155	14.81
581.35	14.78
581.544	14.89
581.738	14.92
581.933	14.92
582.127	14.9
582.321	14.81
582.516	14.68
582.71	14.94
582.904	14.65
583.099	14.5
583.293	14.54
583.487	14.66
583.681	14.54
583.875	14.96
584.07	15.26
584.264	15.32
584.458	15.57
584.652	15.53
584.846	15.66
585.04	16.19
585.234	16.56
585.428	16.43
585.623	16.18
585.817	16.3
586.011	16.23
586.205	16.01
586.399	16.04
586.593	15.86
586.787	16.3
586.981	16.19
587.174	15.96
587.368	15.63
587.562	16.07
587.756	16.28
587.95	16.3
588.144	16.08
588.338	16.08
588.532	16.05
588.725	16.39
588.919	16.35
589.113	16.45
589.307	16.5
589.501	16.55
589.694	16.63
589.888	16.53
590.082	16.69
590.275	16.92
590.469	16.97
590.663	17.13
590.856	16.59
591.05	16.44
591.244	16.31
591.437	16.38
591.631	16.59
591.824	16.51
592.018	16.75
592.212	16.54
592.405	16.53
592.599	16.51
592.792	16.28
592.986	16.65
593.179	16.44
593.372	16.72
593.566	16.89
593.759	16.72
593.953	16.87
594.146	16.84
594.339	16.94
594.533	16.88
594.726	17.06
594.92	17.27
595.113	17.37
595.306	17.89
595.499	17.54
595.693	17.41
595.886	17.6
596.079	17.42
596.272	17.62
596.466	17.71
596.659	17.82
596.852	17.81
597.045	17.9
597.238	17.88
597.431	17.69
597.624	17.87
597.818	17.73
598.011	17.48
598.204	17.54
598.397	17.47
598.59	17.78
598.783	17.25
598.976	17.08
599.169	16.91
599.362	16.91
599.555	16.72
599.748	16.61
599.941	16.77
600.134	16.85
600.326	16.67
600.519	16.78
600.712	16.68
600.905	17.13
601.098	17.27
601.291	17.37
601.483	17.52
601.676	17.78
601.869	17.75
602.062	17.91
602.255	18.08
602.447	18.31
602.64	18.23
602.833	18.05
603.025	18.03
603.218	18.31
603.411	18.38
603.603	18.43
603.796	18.51
603.989	18.8
604.181	18.75
604.374	18.86
604.566	18.74
604.759	18.58
604.951	18.62
605.144	18.82
605.336	18.77
605.529	18.77
605.721	18.7
605.914	18.6
606.106	18.24
606.299	18.38
606.491	18.31
606.683	18.44
606.876	18.56
607.068	18.58
607.26	18.33
607.453	18.23
607.645	18.29
607.837	18.4
608.03	18.48
608.222	18.81
608.414	18.76
608.606	18.78
608.799	18.83
608.991	18.98
609.183	18.97
609.375	19.07
609.567	18.92
609.759	18.62
609.952	18.59
610.144	18.63
610.336	18.58
610.528	18.65
610.72	18.61
610.912	18.45
611.104	18.28
611.296	18.09
611.488	18.32
611.68	18.55
611.872	18.83
612.064	18.85
612.256	18.73
612.448	18.66
612.64	18.21
612.832	17.98
613.023	18.32
613.215	18.49
613.407	18.71
613.599	18.56
613.791	18.42
613.983	18.47
614.174	18.28
614.366	18.45
614.558	18.3
614.75	18.7
614.941	18.62
615.133	18.02
615.325	18.1
615.516	18.35
615.708	17.94
615.9	18.14
616.091	18.04
616.283	18.22
616.475	18.25
616.666	18.39
616.858	18.17
617.049	18.71
617.241	18.96
617.432	18.98
617.624	18.82
617.815	19.52
618.007	19.58
618.198	19.5
618.39	19.49
618.581	19.36
618.773	19.63
618.964	19.91
619.155	20
619.347	20
619.538	19.84
619.729	19.93
619.921	19.64
620.112	19.46
620.303	19.42
620.494	19.43
620.686	19.95
620.877	19.79
621.068	19.66
621.259	19.45
621.451	19.96
621.642	20.04
621.833	19.77
622.024	19.89
622.215	19.98
622.406	20.22
622.597	20.18
622.788	19.69
622.98	19.54
623.171	19.58
623.362	19.81
623.553	19.44
623.744	19.28
623.935	19.84
624.126	19.83
624.317	19.91
624.508	19.98
624.698	20.29
624.889	20.38
625.08	20.34
625.271	20.5
625.462	20.33
625.653	20.38
625.844	20.51
626.034	20.25
626.225	20.17
626.416	20.16
626.607	20.23
626.798	20.33
626.988	20.46
627.179	20.59
627.37	20.43
627.56	20.57
627.751	20.87
627.942	21.09
628.132	21.19
628.323	21.24
628.514	21.06
628.704	20.88
628.895	20.72
629.085	20.74
629.276	20.97
629.466	21.17
629.657	21.08
629.847	20.79
630.038	20.39
630.228	20.33
630.419	20.53
630.609	20.91
630.8	20.97
630.99	20.79
631.181	20.79
631.371	20.86
631.561	20.53
631.752	20.65
631.942	20.76
632.132	21.07
632.323	20.98
632.513	20.76
632.703	20.76
632.893	20.76
633.084	20.97
633.274	21.08
633.464	20.76
633.654	21.14
633.844	21.29
634.034	21.13
634.225	21.19
634.415	21.3
634.605	21.58
634.795	21.51
634.985	21.6
635.175	21.54
635.365	21.54
635.555	21.5
635.745	21.41
635.935	21.34
636.125	21.54
636.315	21.74
636.505	21.66
636.695	21.33
636.885	21.56
637.075	21.21
637.265	21.18
637.455	20.82
637.644	21.01
637.834	21.26
638.024	21.08
638.214	21.19
638.404	21.06
638.593	20.71
638.783	21.04
638.973	20.81
639.163	21.49
639.352	21.75
639.542	22.08
639.732	22.03
639.921	21.87
640.111	21.63
640.301	21.43
640.49	21.01
640.68	21.3
640.87	21.02
641.059	20.92
641.249	20.5
641.438	20.24
641.628	20.1
641.817	20.3
642.007	20.23
642.196	20.39
642.386	20.58
642.575	21.21
642.764	21.25
642.954	21.13
643.143	20.98
643.333	21.35
643.522	21.03
643.711	21.05
643.901	21.1
644.09	21.26
644.279	21.56
644.469	21.45
644.658	21.09
644.847	21.29
645.036	21.8
645.226	21.96
645.415	21.91
645.604	22.54
645.793	22.39
645.982	22.34
646.171	22.73
646.361	22.53
646.55	22.88
646.739	22.82
646.928	22.47
647.117	22.58
647.306	22.66
647.495	22.62
647.684	22.56
647.873	22.77
648.062	22.94
648.251	22.27
648.44	22.2
648.629	21.95
648.818	22.36
649.007	22.34
649.196	21.89
649.384	21.9
649.573	21.64
649.762	21.39
649.951	21.56
650.14	21.45
650.328	21.59
650.517	21.76
650.706	21.55
650.895	21.34
651.083	21.76
651.272	22.23
651.461	22.12
651.65	22.37
651.838	22.2
652.027	21.96
652.216	22.14
652.404	22.23
652.593	22.54
652.781	22.64
652.97	22.89
653.158	22.31
653.347	22.45
653.535	22.62
653.724	22.45
653.912	22.83
654.101	23.32
654.289	22.7
654.478	23
654.666	23.16
654.855	23.16
655.043	23.04
655.231	23.47
655.42	23.53
655.608	23.51
655.796	23.73
655.985	23.84
656.173	23.43
656.361	23.78
656.55	23.32
656.738	22.64
656.926	22.91
657.114	23.11
657.302	23.42
657.491	23.45
657.679	23.58
657.867	23.34
658.055	23.07
658.243	23.01
658.431	22.96
658.619	23.25
658.807	23.65
658.996	23.67
659.184	23.4
659.372	23.46
659.56	23.56
659.748	23.37
659.936	23.88
660.124	24.06
660.311	24.47
660.499	24.72
660.687	24.43
660.875	24.33
661.063	24.36
661.251	24.28
661.439	23.98
661.627	23.55
661.814	23.82
662.002	23.15
662.19	23.08
662.378	22.74
662.565	23
662.753	23.18
662.941	23.34
663.129	23.05
663.316	23.18
663.504	23.09
663.692	22.79
663.879	22.81
664.067	23.33
664.254	23.31
664.442	23
664.63	22.47
664.817	22.67
665.005	22.88
665.192	22.54
665.38	22.44
665.567	22.68
665.755	23.09
665.942	23.3
666.13	23.39
666.317	23.35
666.504	23.03
666.692	22.85
666.879	22.75
667.067	22.53
667.254	22.77
667.441	23.5
667.629	23.91
667.816	23.68
668.003	23.74
668.19	23.3
668.378	23.27
668.565	23.93
668.752	24.26
668.939	24.55
669.127	24.05
669.314	24.45
669.501	23.58
669.688	22.7
669.875	22.91
670.062	22.23
670.249	22.58
670.436	22.86
670.623	23.03
670.81	22.87
670.997	22.67
671.184	23.09
671.371	22.65
671.558	23.17
671.745	23.7
671.932	23.47
672.119	23.38
672.306	23.56
672.493	23.58
672.68	23.33
672.867	23.97
673.054	23.95
673.24	24.32
673.427	24.64
673.614	24.75
673.801	24.68
673.988	25.25
674.174	25.42
674.361	25.45
674.548	24.93
674.734	24.97
674.921	24.16
675.108	24.11
675.294	23.43
675.481	23.17
675.668	22.65
675.854	22.92
676.041	22.36
676.227	22.9
676.414	22.87
676.601	23.39
676.787	23.5
676.974	23.8
677.16	23.46
677.347	23.83
677.533	23.9
677.719	23.88
677.906	23.59
678.092	23.61
678.279	24.1
678.465	24.15
678.651	24.04
678.838	23.88
679.024	24.4
679.21	24.61
679.397	24.57
679.583	25.19
679.769	25.66
679.955	25.94
680.142	26.16
680.328	25.73
680.514	25.82
680.7	25.76
680.886	26.03
681.073	25.24
681.259	25.25
681.445	25.01
681.631	24.8
681.817	24.44
682.003	24.32
682.189	23.77
682.375	23.82
682.561	23.4
682.747	23.46
682.933	23.39
683.119	23.31
683.305	23.24
683.491	23.55
683.677	23.33
683.863	23.73
684.049	23.91
684.235	24.65
684.42	24.38
684.606	24.59
684.792	25.31
684.978	25.38
685.164	25.58
685.349	25.6
685.535	25.62
685.721	25.79
685.907	25.57
686.092	25.73
686.278	25.65
686.464	26.21
686.649	26.47
686.835	26.14
687.021	25.82
687.206	26.32
687.392	26.73
687.577	26.42
687.763	26.36
687.948	26.28
688.134	25.85
688.319	26.1
688.505	25.26
688.69	25.12
688.876	25.15
689.061	25.1
689.247	25.44
689.432	25.41
689.618	26.07
689.803	26.75
689.988	26.9
690.174	27.1
690.359	27.02
690.544	27.35
690.73	27.14
690.915	26.33
691.1	26.63
691.285	26.83
691.471	26.87
691.656	26.24
691.841	25.57
692.026	25.72
692.211	25.39
692.396	25.21
692.582	25.4
692.767	25.33
692.952	25.82
693.137	25.85
693.322	25.52
693.507	25.71
693.692	25.85
693.877	25.85
694.062	25.13
694.247	25.87
694.432	26.04
694.617	25.87
694.802	26.7
694.987	26.41
695.172	26.68
695.357	26.47
695.541	25.87
695.726	26.31
695.911	26.37
696.096	26.69
696.281	26.29
696.466	26.12
696.65	25.93
696.835	25.24
697.02	25.4
697.204	24.74
697.389	24.45
697.574	24.53
697.759	24.5
697.943	24.75
698.128	25.29
698.312	25.45
698.497	25.99
698.682	26.21
698.866	26.74
699.051	26.58
699.235	26.72
699.42	27.26
699.604	27.44
699.789	27.4
699.973	27.31
700.158	27.36
700.342	27.64
700.527	26.96
700.711	27.07
700.895	26.3
701.08	26.55
701.264	26.79
701.448	26.16
701.633	25.97
701.817	26.11
702.001	25.22
702.186	24.75
702.37	23.91
702.554	24.04
702.738	23.68
702.923	24.35
703.107	24.72
703.291	25.37
703.475	25.63
703.659	25.74
703.843	25.19
704.027	26.35
704.212	26.8
704.396	27.02
704.58	27.58
704.764	26.76
704.948	26.76
705.132	26.04
705.316	25.36
705.5	25.86
705.684	26.05
705.868	26.35
706.052	25.81
706.235	25
706.419	26.32
706.603	26.3
706.787	26.89
706.971	27.53
707.155	27.93
707.339	28.3
707.522	27.26
707.706	27.76
707.89	27.94
708.074	28.55
708.257	29.13
708.441	28.4
708.625	27.72
708.808	28.41
708.992	26.94
709.176	26.87
709.359	26.47
709.543	26.78
709.727	26.75
709.91	26.61
710.094	26.35
710.277	25.84
710.461	25.57
710.644	26.05
710.828	25.86
711.011	26.25
711.195	26.97
711.378	26.75
711.562	27.21
711.745	26.08
711.928	26.22
712.112	26.84
712.295	27.09
712.478	27.02
712.662	26.56
712.845	26.81
713.028	26.72
713.212	26.62
713.395	26.86
713.578	25.88
713.761	26.35
713.945	26.63
714.128	26.48
714.311	26.54
714.494	27.08
714.677	27.63
714.86	27.33
715.043	28.04
715.227	27.37
715.41	27.43
715.593	28.01
715.776	28.39
715.959	27.94
716.142	27.4
716.325	26.91
716.508	26.91
716.691	25.99
716.874	26.29
717.057	26.01
717.239	25.38
717.422	25.3
717.605	25.17
717.788	24.97
717.971	25.5
718.154	25.6
718.337	26.52
718.519	25.63
718.702	27.13
718.885	25.78
719.068	26.25
719.25	26.38
719.433	27.36
719.616	28.13
719.798	29.17
719.981	28.63
720.164	29.19
720.346	28.72
720.529	28.87
720.712	28.03
720.894	28.58
721.077	27.84
721.259	28.27
721.442	28
721.624	27.69
721.807	27.29
721.989	27.19
722.172	26.96
722.354	27.25
722.537	27.55
722.719	27.56
722.901	27.84
723.084	26.8
723.266	27.84
723.448	26.96
723.631	26.51
723.813	25.98
723.995	26.45
724.178	26.52
724.36	26.32
724.542	25.62
724.724	25.57
724.907	25.9
725.089	26.75
725.271	26.27
725.453	26.35
725.635	26.28
725.817	25.96
725.999	25.78
726.181	26.45
726.364	27.01
726.546	27.51
726.728	28.43
726.91	27.96
727.092	28.32
727.274	27.45
727.456	26.23
727.638	26.76
727.819	26.18
728.001	27.67
728.183	26.37
728.365	26.03
728.547	26.67
728.729	25.75
728.911	26.41
729.093	26.51
729.274	27.49
729.456	29.38
729.638	29.06
729.82	30.22
730.001	29.29
730.183	30.21
730.365	29.97
730.546	29.67
730.728	28.91
730.91	28.65
731.091	28.32
731.273	28.43
731.455	28.12
731.636	28.57
731.818	28.09
731.999	27.26
732.181	26.7
732.362	27.35
732.544	26.94
732.725	28.19
732.907	27.65
733.088	27.62
733.27	26.58
733.451	26.46
733.633	25.91
733.814	26.77
733.995	27.52
734.177	28.28
734.358	27.29
734.539	26.48
734.721	25.89
734.902	25.77
735.083	26.06
735.264	27.54
735.446	27.69
735.627	28.25
735.808	27.19
735.989	26.65
736.17	25.87
736.351	26.04
736.533	26.78
736.714	25.59
736.895	26.78
737.076	27.35
737.257	26.36
737.438	26.32
737.619	25.89
737.8	25.63
737.981	25.4
738.162	26.19
738.343	26.24
738.524	27.07
738.705	28.8
738.886	29.06
739.067	28.01
739.247	28.62
739.428	28.93
739.609	29.33
739.79	28.85
739.971	29.35
740.151	29.02
740.332	29.9
740.513	29.77
740.694	29.04
740.874	28.9
741.055	28.79
741.236	28.79
741.417	28.15
741.597	28.3
741.778	29.24
741.958	27.71
742.139	27.23
742.32	27.2
742.5	26.87
742.681	27.47
742.861	27.2
743.042	27.61
743.222	27.9
743.403	28.89
743.583	29.04
743.764	28.95
743.944	30.8
744.124	29.21
744.305	28.22
744.485	28.17
744.666	29.38
744.846	28.33
745.026	28.29
745.207	27.65
745.387	27.04
745.567	28.26
745.747	26.96
745.928	27.56
746.108	29.26
746.288	29.88
746.468	30.42
746.648	29.45
746.829	29.37
747.009	29.76
747.189	29.36
747.369	29.64
747.549	28.16
747.729	29.73
747.909	28.68
748.089	27.87
748.269	27
748.449	26.28
748.629	25.76
748.809	26.62
748.989	25.99
749.169	26.46
749.349	25.49
749.529	26.41
749.709	25.85
749.889	25.64
750.068	25.01
750.248	25.73
750.428	26.06
750.608	26.22
750.788	26.64
750.967	27
751.147	25.72
751.327	26.47
751.507	26.47
751.686	27.64
751.866	27.41
752.046	29.17
752.225	27.64
752.405	27.85
752.585	28.08
752.764	29.11
752.944	28.94
753.123	30.79
753.303	29.39
753.482	28.08
753.662	27.93
753.841	27.64
754.021	27.18
754.2	29.58
754.38	29.6
754.559	29.66
754.739	27.97
754.918	28.1
755.097	26.18
755.277	27.19
755.456	26.45
755.635	26.15
755.815	26.85
755.994	25.74
756.173	25.54
756.352	25.35
756.532	23.75
756.711	24.78
756.89	25.35
757.069	28.02
757.248	28.02
757.427	28.17
757.607	27.16
757.786	26.47
757.965	27.08
758.144	27.05
758.323	26.86
758.502	28.75
758.681	27.72
758.86	27.84
759.039	25.72
759.218	26.95
759.397	28.13
759.576	29.64
759.755	31.35
759.934	31.48
760.113	30.88
760.291	30.81
760.47	29.07
760.649	30.78
760.828	30.63
761.007	31.25
761.186	29.41
761.364	29
761.543	27.27
761.722	25.75
761.901	26.65
762.079	26.54
762.258	26.59
762.437	28.4
762.615	27.65
762.794	28.96
762.972	28.9
763.151	30.24
763.33	30.25
763.508	31.38
763.687	31
763.865	31.08
764.044	30.7
764.222	31
764.401	31.12
764.579	30.68
764.758	28.82
764.936	28.95
765.114	27.52
765.293	27.06
765.471	26.25
765.65	26.8
765.828	26.02
766.006	26.8
766.184	26.68
766.363	25.41
766.541	23.64
766.719	23.88
766.898	23.52
767.076	24.97
767.254	24.99
767.432	24.46
767.61	24.24
767.788	25.91
767.967	25.87
768.145	25.36
768.323	25
768.501	27.13
768.679	27.92
768.857	27.43
769.035	26.56
769.213	25.8
769.391	27.03
769.569	27.36
769.747	25.91
769.925	25.93
770.103	26.38
770.281	27.79
770.459	27.71
770.636	27.85
770.814	27.91
770.992	31.15
771.17	33.26
771.348	32.78
771.525	32.87
771.703	34.72
771.881	32.93
772.059	33.9
772.236	34.86
772.414	33.78
772.592	33.21
772.769	33.21
772.947	29.17
773.125	26.38
773.302	27.85
773.48	27.18
773.657	25.47
773.835	28.37
774.013	26.55
774.19	24.6
774.368	26.43
774.545	28.1
774.723	28.97
774.9	29.37
775.077	31.26
775.255	29.92
775.432	32.02
775.61	31.1
775.787	30.56
775.964	30.16
776.142	30.14
776.319	29.41
776.496	27.57
776.674	25.53
776.851	24.89
777.028	26.08
777.205	26.33
777.382	26.38
777.56	27.88
777.737	24.78
777.914	26.29
778.091	27.06
778.268	27.07
778.445	25.78
778.622	30.82
778.8	31.72
778.977	31.23
779.154	31.59
779.331	30.09
779.508	29
779.685	32.25
779.862	33.28
780.038	32.18
780.215	31.26
780.392	32.25
780.569	27.17
780.746	26.04
780.923	25.17
781.1	23.11
781.277	21.36
781.453	21.32
781.63	18.47
781.807	18.76
781.984	21.57
782.16	23.14
782.337	24.98
782.514	27.86
782.691	30.87
782.867	30.63
783.044	32.46
783.221	34.36
783.397	33.96
783.574	34.69
783.75	31.19
783.927	26.29
784.103	25.75
784.28	23.64
784.456	22.9
784.633	21.86
784.809	23.02
784.986	23.02
785.162	22.63
785.339	23.54
785.515	24.39
785.692	24.71
785.868	23.96
786.044	25.35
786.221	25.24
786.397	25.48
786.573	23.5
786.749	19.68
786.926	15.93
787.102	15.11
787.278	15.78
787.454	16.21
787.631	16.46
787.807	16.36
787.983	14.48
788.159	15.17
788.335	14.02
788.511	16.4
788.687	18.09
788.863	23.35
789.039	21.34
789.216	20.65
789.392	20.35
789.568	21.67
789.744	22.64
789.919	21.61
790.095	21.68
790.271	21.66
790.447	21.37
790.623	24.04
790.799	20.56
790.975	24.57
791.151	22.45
791.327	20.52
791.502	23.3
791.678	27.17
791.854	28.08
792.03	27
792.205	27.01
792.381	25.15
792.557	23.3
792.733	23.48
792.908	21.44
793.084	22.29
793.259	24.74
793.435	22.45
793.611	20.85
793.786	22.21
793.962	22.19
794.137	23.1
794.313	25.51
794.488	25.47
794.664	25.15
794.839	27.23
795.015	29.18
795.19	28.84
795.366	28.99
795.541	29.2
795.716	30.05
795.892	29.62
796.067	27.85
796.242	26.52
796.418	27.09
796.593	28.09
796.768	29.62
796.944	28.42
797.119	26.69
797.294	24.47
797.469	22.73
797.644	20.36
797.82	19.73
797.995	20.36
798.17	20.28
798.345	19.89
798.52	18.85
798.695	15.45
798.87	14.25
799.045	16.26
799.22	18.98
799.395	21.61
799.57	21.34
799.745	18.97
799.92	19.99
800.095	18.55
800.27	17.23
800.445	14.57
800.62	15.65
800.795	18.57
800.97	17.47
801.145	16.6
801.319	14.79
801.494	18.23
801.669	22.22
801.844	19.68
802.018	24.4
802.193	26.88
802.368	30.65
802.543	31.45
802.717	28.75
802.892	28.44
803.067	29.28
803.241	31.12
803.416	28.68
803.59	28.23
803.765	30.12
803.94	28.2
804.114	26.03
804.289	24.15
804.463	22.92
804.638	22.17
804.812	21.47
804.986	20.36
805.161	16.64
805.335	13.73
805.51	16.29
805.684	14.36
805.858	17.83
806.033	18.69
806.207	21.73
806.381	19.15
806.556	21.85
806.73	23.95
806.904	22.16
807.078	22.36
807.253	25.72
807.427	27.67
807.601	28.63
807.775	25.89
807.949	25.32
808.123	20.46
808.298	23.84
808.472	24.27
808.646	20.93
808.82	24.67
808.994	25.89
809.168	22.7
809.342	18.13
809.516	21.6
809.69	19.13
809.864	20.84
810.038	25.28
810.212	17.36
810.385	12.8
810.559	17.5
810.733	15.56
810.907	17.31
811.081	20.92
811.255	23.26
811.428	19.52
811.602	19.6
811.776	19.37
811.95	21.76
812.123	26.73
812.297	29.74
812.471	34.58
812.644	32.83
812.818	33.13
812.992	28.1
813.165	25.09
813.339	22.18
813.512	27.93
813.686	27.27
813.86	24.11
814.033	24.25
814.207	27.74
814.38	22.91
814.554	23.26
814.727	21.71
814.9	25.8
815.074	28.61
815.247	29.18
815.421	24.36
815.594	24.09
815.767	27.85
815.941	26.7
816.114	25.81
816.287	26.93
816.46	29.23
816.634	29.82
816.807	31.62
816.98	28.35
817.153	31.66
817.327	30.71
817.5	30.93
817.673	22.57
817.846	25.04
818.019	25.54
818.192	26.06
818.365	24.01
818.538	22.81
818.711	17.88
818.884	19.04
819.057	14.41
819.23	17.93
819.403	18.17
819.576	20.58
819.749	24.33
819.922	24.01
820.095	21.72
820.268	23.5
820.441	24.51
820.614	25.03
820.786	26.62
820.959	26.88
821.132	29.53
821.305	29.84
821.477	31.25
821.65	29.61
821.823	28.63
821.996	30.21
822.168	30.79
822.341	32.16
822.514	32.49
822.686	31.85
822.859	33.22
823.031	33.19
823.204	32.4
823.376	33
823.549	33.66
823.722	33.78
823.894	33.15
824.067	32.49
824.239	31.52
824.411	32.11
824.584	33.1
824.756	32.96
824.929	31
825.101	31.86
825.273	30.17
825.446	30.6
825.618	31.41
825.79	32.27
825.963	31.94
826.135	33.05
826.307	32.03
826.479	31.17
826.652	31.83
826.824	32.63
826.996	33.67
827.168	34.35
827.34	32.5
827.512	31.96
827.684	31.37
827.856	31.55
828.029	29.59
828.201	29.32
828.373	28.08
828.545	26.54
828.717	25.71
828.889	23.68
829.061	22.71
829.232	22.33
829.404	20.86
829.576	20.39
829.748	18.74
829.92	16.57
830.092	17.18
830.264	17.67
830.436	15.71
830.607	19.44
830.779	21.39
830.951	21.03
831.123	21.18
831.294	21.01
831.466	23.37
831.638	25.05
831.809	29.85
831.981	26.38
832.153	30.82
832.324	33.16
832.496	31.63
832.667	28.43
832.839	28.41
833.011	29.4
833.182	30.29
833.354	26.03
833.525	26.56
833.697	24.11
833.868	29.43
834.039	24.31
834.211	23.4
834.382	24.73
834.554	24.97
834.725	26.57
834.896	27.86
835.068	27.24
835.239	27.25
835.41	25.75
835.581	29
835.753	26.53
835.924	28.99
836.095	28.78
836.266	24.49
836.438	25.21
836.609	21.29
836.78	16.51
836.951	16.14
837.122	17.62
837.293	16.77
837.464	9.86
837.635	11.33
837.806	7.08
837.977	7.5
838.148	8.75
838.319	8.08
838.49	11.31
838.661	11.08
838.832	12.29
839.003	8.64
839.174	12.23
839.345	11.88
839.516	11.8
839.687	14.57
839.857	12.02
840.028	12.47
840.199	6.72
840.37	11.57
840.54	12.02
840.711	8.02
840.882	6.07
841.053	9.56
841.223	13.96
841.394	11.37
841.564	13.17
841.735	11.88
841.906	17.79
842.076	15.07
842.247	5.84
842.417	-1.77
842.588	0.59
842.758	5.47
842.929	-1.94
843.099	-13.27
843.27	-15.38
843.44	-16.69
843.611	-15.15
843.781	-25.35
843.951	-13.23
844.122	-19.77
844.292	-9.98
844.462	-10.25
844.633	-10.54
844.803	-4.7
844.973	-2.96
845.144	-5.98
845.314	-5.06
845.484	-9.78
845.654	-10.26
845.824	-6.81
845.995	-2.16
846.165	-0.94
846.335	12.38
846.505	0.66
846.675	-9.68
846.845	4.31
847.015	10.17
847.185	2.95
847.355	14.09
847.525	17.88
847.695	11.49
847.865	11.79
848.035	4.61
848.205	-9.71
848.375	2
848.545	3.12
848.715	5.79
848.884	-6.47
849.054	-0.81
849.224	1.32
849.394	-1.31
849.564	-4.71
849.733	-0.01
849.903	3.42
850.073	-10.19
850.243	-8.05
850.412	-8.65
850.582	-10.95
850.752	2.94
850.921	12.99
851.091	4.29
851.26	5.62
851.43	26.98
851.599	12.98
851.769	12.85
851.939	21.91
852.108	15.28
852.278	26.15
852.447	6.77
852.616	8.22
852.786	-12.79
852.955	-6.16
853.125	-17.24
853.294	-37.85
853.463	-29.14
853.633	-30.3
853.802	-20.98
853.971	-8.75
854.141	-6.15
854.31	1.17
854.479	-5.13
854.648	6.39
854.818	6.75
854.987	11.73
855.156	21.19
855.325	20.61
855.494	8.65
855.663	5.05
855.832	-1.09
856.001	-16.08
856.171	-16.04
856.34	-25.09
856.509	-26.35
856.678	-39.49
856.847	-39.39
857.016	-64.61
857.185	-57.97
857.353	-37.23
857.522	-23.87
857.691	-0.1
857.86	5.01
858.029	7.39
858.198	12.73
858.367	-8.06
858.535	-2.4
858.704	-1.49
858.873	4.68
859.042	2.73
859.21	12.72
859.379	2
859.548	-40.18
859.717	-16.89
859.885	-3.18
860.054	-0.68
860.222	7.19
860.391	0.77
860.56	4.46
860.728	9.47
860.897	18.26
861.065	10.76
861.234	18.32
861.402	34.44
861.571	34.67
861.739	36.7
861.908	25.23
862.076	23.89
862.244	21.17
862.413	20.8
862.581	18
862.749	0.51
862.918	23.78
863.086	36.45
863.254	37.16
863.423	29.72
863.591	16.49
863.759	45.95
863.927	37.89
864.096	34.73
864.264	32.91
864.432	14.42
864.6	11.77
864.768	0.7
864.936	-20.32
865.104	-31.78
865.272	-18
865.44	-12.3
865.608	-21.06
865.776	-18.65
865.944	-26.32
866.112	-41.53
866.28	-12.28
866.448	-3.04
866.616	-1.77
866.784	7.54
866.952	8.03
867.12	-1.61
867.288	-1.59
867.455	-20.98
867.623	-21.17
867.791	-15.99
867.959	-4.59
868.127	-12.63
868.294	-8.83
868.462	-11.36
868.63	-15.03
868.797	-2.08
868.965	14.06
869.133	10.31
869.3	31.47
869.468	19.56
869.636	17.98
869.803	1.16
869.971	2
870.138	4.38
870.306	2.41
870.473	-2.3
870.641	-2.28
870.808	-3.15
870.975	-6.67
871.143	-10.36
871.31	-1.64
871.478	7.29
871.645	18.15
871.812	13.91
871.98	2.43
872.147	1.34
872.314	-4.24
872.482	-14.8
872.649	-16.28
872.816	-18.74
872.983	-25.26
873.15	-33.74
873.318	-56.58
873.485	-80.75
873.652	-69.29
873.819	-67.09
873.986	-56.15
874.153	-43.7
874.32	-22.58
874.487	-22.78
874.654	-8.23
874.821	-7.9
874.988	-8.74
875.155	8.59
875.322	17.33
875.489	14.65
875.656	3.35
875.823	20.72
875.99	21.83
876.157	14.06
876.324	-1.49
876.49	-5.2
876.657	1.54
876.824	0.69
876.991	-7.7
877.157	-22.73
877.324	-27.69
877.491	5.46
877.658	-16.51
877.824	-11.63
877.991	-10
878.157	-0.66
878.324	8.86
878.491	6.89
878.657	18.32
878.824	17.54
878.99	39.74
879.157	46.23
879.323	22.99
879.49	17.71
879.656	-0.41
879.823	11.67
879.989	10.77
880.156	14.92
880.322	2.75
880.488	-10.51
880.655	-20.58
880.821	-15.82
880.987	-23.57
881.154	-7.18
881.32	15.8
881.486	26.33
881.652	19.85
881.819	19.97
881.985	12.13
882.151	18.65
882.317	21.38
882.483	25.91
882.649	24.2
882.816	22.14
882.982	22.33
883.148	19.71
883.314	20.23
883.48	21.75
883.646	23.12
883.812	24.62
883.978	24.86
884.144	30.25
884.31	29.06
884.476	31.12
884.642	32.5
884.807	31.44
884.973	31.62
885.139	31.69
885.305	30.91
885.471	31.16
885.637	28.34
885.802	27.2
885.968	20.87
886.134	17.5
886.3	16.45
886.465	16.29
886.631	14.63
886.797	8.42
886.962	10.16
887.128	6.46
887.293	10.81
887.459	8.36
887.625	16.91
887.79	22.32
887.956	22.21
888.121	17.9
888.287	17.14
888.452	22.08
888.618	30.02
888.783	19.6
