Data from 2937852_Reflection_2.txt Node
Date: Wed Jul 15 15:52:49 EDT 2015
User: robert
Spectrometer: USB4E03001
Autoset integration time: false
Trigger mode: 4
Integration Time (sec): 1.000000E-1
Scans to average: 10
Electric dark correction enabled: true
Nonlinearity correction enabled: false
Boxcar width: 5
Stray light correction enabled: false
XAxis mode: Wavelengths
Stop averaging: false
Number of Pixels in Spectrum: 3648
>>>>>Begin Spectral Data<<<<<
177.566	76.02
177.785	128.07
178.005	73.13
178.225	-106.02
178.445	-206.9
178.665	63.86
178.885	88.31
179.105	175
179.324	177.34
179.544	85.22
179.764	94.21
179.984	106.17
180.204	137.86
180.423	106.83
180.643	71.28
180.863	102.84
181.083	457.63
181.302	276.19
181.522	105.46
181.742	-82.09
181.961	77.06
182.181	-208.7
182.401	60.98
182.621	289.55
182.84	751.61
183.06	-1409.09
183.279	460.53
183.499	-91.95
183.719	-3500
183.938	1181.25
184.158	16.03
184.377	-17.01
184.597	-14.65
184.816	0.32
185.036	8.93
185.256	22.63
185.475	37.33
185.695	18.65
185.914	-4.75
186.134	16.86
186.353	34.64
186.572	12.55
186.792	17.09
187.011	23.17
187.231	-156.63
187.45	-331.75
187.67	-606.06
187.889	-800
188.108	24.08
188.328	45.87
188.547	-42.42
188.766	13.03
188.986	48.65
189.205	93.92
189.424	142.22
189.644	312.83
189.863	365.61
190.082	401.55
190.302	236.14
190.521	4430
190.74	315.38
190.959	210.71
191.178	113.22
191.398	74.09
191.617	30.28
191.836	-86.49
192.055	-45.87
192.274	1.84
192.494	-13.14
192.713	807.69
192.932	13333.33
193.151	601.04
193.37	459.83
193.589	210.26
193.808	520.59
194.027	-374.26
194.246	-337.5
194.465	1511.36
194.685	872.94
194.904	3833.33
195.123	2959.26
195.342	-754.08
195.561	-1023.21
195.78	-186.38
195.999	-243.18
196.218	-1497.44
196.436	403.64
196.655	908.62
196.874	379.61
197.093	-1224
197.312	-17.11
197.531	16.67
197.75	271.43
197.969	144.29
198.188	-148.15
198.407	217.14
198.625	121.43
198.844	194.06
199.063	251.52
199.282	75.29
199.501	1.85
199.719	48.32
199.938	62.8
200.157	310.34
200.376	229.2
200.594	154.55
200.813	123.78
201.032	189.41
201.251	-3500
201.469	343.84
201.688	1100
201.907	586.96
202.125	473.33
202.344	-182.98
202.563	136.36
202.781	59.37
203	102.22
203.218	54.01
203.437	35.46
203.656	10.75
203.874	39.39
204.093	11.64
204.311	14.1
204.53	-30.3
204.748	1.43
204.967	-25.15
205.185	-188.5
205.404	-289.22
205.622	-309.57
205.841	-236.14
206.059	-700
206.278	-64.66
206.496	-5400
206.715	-1.85
206.933	-26.53
207.151	309.68
207.37	26.75
207.588	-17.96
207.806	-50.28
208.025	-3.69
208.243	-145
208.461	-268.55
208.68	-169.77
208.898	-126.84
209.116	-44.8
209.335	-44.69
209.553	16.54
209.771	-250
209.989	-121.92
210.208	-12
210.426	316
210.644	-86.36
210.862	84.62
211.081	37.89
211.299	33.75
211.517	67.35
211.735	150.56
211.953	177.78
212.171	173.81
212.39	181.11
212.608	285.45
212.826	279.8
213.044	168.18
213.262	-315.22
213.48	110.48
213.698	-176.47
213.916	197.33
214.134	52.17
214.352	16.67
214.57	86.69
214.788	129.37
215.006	135.83
215.224	71.32
215.442	55.24
215.66	48.56
215.878	47.92
216.096	48.99
216.314	56.19
216.532	85.71
216.75	103.36
216.968	84.7
217.185	44.35
217.403	18.77
217.621	10.05
217.839	6.65
218.057	-112.62
218.275	-41.23
218.492	-108.25
218.71	-71.93
218.928	-73.85
219.146	-159.49
219.363	-460
219.581	-299.03
219.799	-114.19
220.017	-48.44
220.234	-443.59
220.452	-545.24
220.67	-120.65
220.887	68.78
221.105	10.38
221.323	39.55
221.54	13.23
221.758	17.47
221.976	53.74
222.193	38.49
222.411	58.05
222.629	42.76
222.846	42.74
223.064	70.67
223.281	133.33
223.499	222.31
223.716	458.67
223.934	225.56
224.151	424.44
224.369	1554.55
224.586	434.52
224.804	128.6
225.021	159.29
225.239	188.55
225.456	148.49
225.674	114.1
225.891	103.11
226.108	100.15
226.326	97.08
226.543	86.62
226.76	66.67
226.978	54.79
227.195	29.6
227.413	30.2
227.63	32.84
227.847	26.56
228.064	18.27
228.282	20.83
228.499	19.37
228.716	19.17
228.934	24.67
229.151	27.89
229.368	30.83
229.585	29.57
229.802	25.01
230.02	23.36
230.237	24.75
230.454	25.64
230.671	20.88
230.888	19.75
231.105	20.22
231.323	14.7
231.54	10.27
231.757	6.61
231.974	1
232.191	3.65
232.408	0.93
232.625	-2.69
232.842	7.7
233.059	12.49
233.276	16.35
233.493	17.69
233.71	19.05
233.927	24.19
234.144	24.51
234.361	26.32
234.578	22.87
234.795	24.72
235.012	27.27
235.229	29.24
235.446	31.2
235.663	27.24
235.879	23.9
236.096	24.55
236.313	23.21
236.53	26.58
236.747	28.5
236.964	32.91
237.181	40.49
237.397	42.94
237.614	41.67
237.831	34.18
238.048	36.3
238.264	34.07
238.481	34.68
238.698	30.03
238.915	25.21
239.131	19.59
239.348	18.47
239.565	19.82
239.781	18.68
239.998	12.12
240.215	13.67
240.431	13.22
240.648	13.64
240.865	9.9
241.081	9.79
241.298	11.11
241.514	13.68
241.731	13.55
241.947	12.15
242.164	14.19
242.38	14.16
242.597	13.96
242.814	14.69
243.03	14.06
243.246	15.69
243.463	18.3
243.679	18.4
243.896	19.65
244.112	19.03
244.329	20.99
244.545	20.86
244.762	23.35
244.978	23.45
245.194	19.89
245.411	22.93
245.627	23.24
245.843	22.38
246.06	22
246.276	21.09
246.492	20.68
246.709	18
246.925	16.93
247.141	16.77
247.357	16.55
247.574	17.51
247.79	16.62
248.006	16.82
248.222	16.6
248.439	16.23
248.655	16.33
248.871	16.63
249.087	16.2
249.303	15.45
249.519	15.15
249.736	15.51
249.952	14.85
250.168	16.17
250.384	15.65
250.6	16.23
250.816	15.81
251.032	13.21
251.248	14.45
251.464	15.4
251.68	15.74
251.896	14.55
252.112	16.17
252.328	14.35
252.544	12.69
252.76	11.57
252.976	10.28
253.192	9.28
253.408	11.83
253.624	10.8
253.84	11.47
254.056	11.18
254.272	11.43
254.487	9.01
254.703	11.4
254.919	15.72
255.135	14.84
255.351	15.46
255.567	18.75
255.782	16.09
255.998	13.89
256.214	12.51
256.43	12.1
256.646	9.93
256.861	10.16
257.077	11.17
257.293	5.62
257.508	4.05
257.724	2.33
257.94	0.84
258.155	1.55
258.371	2.86
258.587	3.78
258.802	7.1
259.018	8.8
259.234	9.89
259.449	10.47
259.665	11.9
259.88	13.14
260.096	14.49
260.312	14.3
260.527	14.89
260.743	15.67
260.958	15.54
261.174	15.8
261.389	15.9
261.605	15.17
261.82	14.17
262.036	14.47
262.251	13.98
262.466	12.15
262.682	12.42
262.897	12.43
263.113	10.38
263.328	12.36
263.543	12
263.759	9.62
263.974	10.73
264.189	11.98
264.405	10.25
264.62	10.45
264.835	11.35
265.051	14.81
265.266	12.75
265.481	15.34
265.696	16.07
265.912	15.48
266.127	17.64
266.342	16.15
266.557	16.94
266.773	17.37
266.988	17.34
267.203	17.23
267.418	13.76
267.633	15.14
267.848	13.63
268.064	13.35
268.279	11.05
268.494	10.02
268.709	9.75
268.924	8.05
269.139	6.4
269.354	6
269.569	5.25
269.784	4.28
269.999	4.31
270.214	5.67
270.429	3.21
270.644	3.16
270.859	4.17
271.074	6.24
271.289	6.42
271.504	8.26
271.719	7.53
271.934	8.49
272.149	9.92
272.363	10.14
272.578	10.15
272.793	10.27
273.008	11.14
273.223	9.9
273.438	9.68
273.653	8.85
273.867	9.98
274.082	10.81
274.297	10.51
274.512	11.01
274.726	10.84
274.941	9.96
275.156	10.07
275.371	9.47
275.585	12.03
275.8	11.12
276.015	13.42
276.229	10.4
276.444	10.85
276.659	10.9
276.873	9.81
277.088	10.12
277.302	9.44
277.517	10.29
277.732	9.97
277.946	9.65
278.161	10.97
278.375	11.22
278.59	12.66
278.804	10.52
279.019	12.8
279.233	15.52
279.448	16.19
279.662	16.89
279.877	17.08
280.091	18.74
280.306	17.97
280.52	15.75
280.735	14.25
280.949	14.08
281.163	14.21
281.378	10.55
281.592	7.76
281.806	7.08
282.021	6.03
282.235	5.21
282.449	4.24
282.664	5.4
282.878	5.12
283.092	4.04
283.307	3.94
283.521	4.98
283.735	7.3
283.949	7.94
284.164	7.15
284.378	8.07
284.592	8.34
284.806	8.75
285.02	8.31
285.234	8.94
285.449	10.92
285.663	11.13
285.877	11.18
286.091	10.69
286.305	10.21
286.519	11.01
286.733	11.21
286.947	11.66
287.161	12.32
287.375	12.61
287.589	12.24
287.803	11.28
288.017	11.55
288.231	13.38
288.445	14.31
288.659	15.76
288.873	15.82
289.087	16.63
289.301	17.15
289.515	16.65
289.729	17.44
289.943	18.62
290.157	18.71
290.371	19.63
290.584	18.39
290.798	17.7
291.012	17.22
291.226	17.08
291.44	16.16
291.654	15.23
291.867	15.44
292.081	14.38
292.295	15.13
292.509	14.2
292.722	12.58
292.936	13.02
293.15	12.45
293.364	12.49
293.577	13.76
293.791	11.26
294.005	11.9
294.218	11.52
294.432	11.96
294.645	12.91
294.859	13.57
295.073	14.09
295.286	12.58
295.5	12.46
295.713	12.91
295.927	12.9
296.14	15.26
296.354	14.84
296.568	15.97
296.781	15.31
296.994	14.4
297.208	13.67
297.421	14.06
297.635	15.55
297.848	15.65
298.062	15.76
298.275	15.91
298.489	15.75
298.702	15.99
298.915	14.99
299.129	15.85
299.342	15.64
299.555	18.08
299.769	17.44
299.982	17.7
300.195	17.24
300.409	17.42
300.622	16.57
300.835	16.85
301.048	18.65
301.262	19.28
301.475	19.12
301.688	19.54
301.901	19.34
302.115	19.32
302.328	18.18
302.541	17.7
302.754	18.23
302.967	16.71
303.18	16.37
303.393	15.46
303.607	15.95
303.82	15.45
304.033	15.98
304.246	15.83
304.459	15.82
304.672	15.85
304.885	17.35
305.098	17.53
305.311	19.43
305.524	18.26
305.737	16.22
305.95	15.77
306.163	16.18
306.376	15.64
306.589	14.14
306.802	14.6
307.015	14.61
307.228	15.48
307.44	13.84
307.653	13.22
307.866	12.88
308.079	14.83
308.292	14.68
308.505	15.9
308.718	14.92
308.93	14.74
309.143	15.8
309.356	16.59
309.569	16.62
309.781	17.02
309.994	17.21
310.207	18.5
310.42	18.81
310.632	19.34
310.845	18.91
311.058	19.81
311.27	21.39
311.483	20.88
311.696	19.72
311.908	19.54
312.121	18.87
312.333	20.54
312.546	20.78
312.759	20.4
312.971	18.74
313.184	17.98
313.396	16.51
313.609	14.07
313.821	14.51
314.034	15.63
314.246	15.67
314.459	16.23
314.671	13.85
314.884	13.85
315.096	13.86
315.309	16.57
315.521	17.63
315.733	19.47
315.946	21.26
316.158	19.83
316.371	18.3
316.583	17.96
316.795	17.07
317.008	18.78
317.22	18.37
317.432	17.93
317.644	18.48
317.857	18.99
318.069	19.8
318.281	19.68
318.494	19.91
318.706	21.08
318.918	20.52
319.13	20.67
319.342	19.48
319.555	21.03
319.767	20.44
319.979	17.56
320.191	16.41
320.403	16.23
320.615	16.8
320.827	16.38
321.039	16.49
321.252	15.46
321.464	16.69
321.676	17.33
321.888	16.19
322.1	15.47
322.312	15.61
322.524	14.91
322.736	12.65
322.948	11
323.16	12.32
323.372	11.6
323.584	13.75
323.796	14.06
324.007	13.43
324.219	13.22
324.431	15.54
324.643	16.27
324.855	17.81
325.067	18.83
325.279	18.44
325.491	18.25
325.702	19.91
325.914	20.6
326.126	20.3
326.338	19.4
326.55	19.04
326.761	17.04
326.973	18.78
327.185	17.37
327.396	17.64
327.608	18.68
327.82	18.99
328.032	17.22
328.243	15.09
328.455	16.13
328.666	17.61
328.878	18.17
329.09	18.6
329.301	14.62
329.513	15.87
329.725	16.77
329.936	16.59
330.148	16.2
330.359	16.65
330.571	17.41
330.782	17.89
330.994	19.43
331.205	20.67
331.417	21.47
331.628	23.46
331.84	22.9
332.051	22.57
332.262	23.16
332.474	20.32
332.685	21.25
332.897	19.92
333.108	18.52
333.319	16.37
333.531	15.91
333.742	16.28
333.953	16.63
334.165	16.48
334.376	15.75
334.587	15.5
334.799	17.03
335.01	16.65
335.221	18.9
335.432	18.91
335.644	19.31
335.855	18.58
336.066	17.77
336.277	16.97
336.488	18.85
336.7	19.53
336.911	18.95
337.122	20.09
337.333	21.1
337.544	19.43
337.755	19.41
337.966	19.74
338.177	19.82
338.388	22.28
338.599	22.5
338.811	20.19
339.022	18.88
339.233	19.93
339.444	18.12
339.655	17.05
339.866	16.59
340.076	16.86
340.287	17.19
340.498	17.29
340.709	15.53
340.92	16.61
341.131	15.76
341.342	15.73
341.553	16.65
341.764	17.04
341.975	15.69
342.185	17.09
342.396	16.91
342.607	16.86
342.818	17.85
343.029	16.82
343.239	16.42
343.45	18.45
343.661	18.38
343.872	16.52
344.082	17.48
344.293	19.93
344.504	19.48
344.714	18.02
344.925	18.17
345.136	18.5
345.346	19.17
345.557	18.82
345.768	18.67
345.978	19.12
346.189	20.61
346.399	20.34
346.61	19.8
346.821	19.37
347.031	20.98
347.242	20.38
347.452	19.26
347.663	19.36
347.873	20.04
348.084	20.16
348.294	19.68
348.504	18.56
348.715	18.2
348.925	17.93
349.136	16.95
349.346	16.78
349.557	17.58
349.767	17.72
349.977	17.04
350.188	16.5
350.398	17.71
350.608	18.77
350.819	18.85
351.029	17.63
351.239	17.95
351.449	18.22
351.66	17.73
351.87	16.74
352.08	16.9
352.29	18.66
352.501	19.04
352.711	17.99
352.921	18.06
353.131	18.89
353.341	20.28
353.552	19.39
353.762	21.21
353.972	21.11
354.182	22.18
354.392	21.16
354.602	19.14
354.812	18.94
355.022	18.65
355.232	18.97
355.442	19.17
355.652	19.82
355.862	21.33
356.072	20.24
356.282	19.84
356.492	19.91
356.702	19.97
356.912	21.05
357.122	20.43
357.332	19.5
357.542	17.68
357.752	17.71
357.962	17.65
358.171	15.6
358.381	16.89
358.591	17.92
358.801	17.58
359.011	18.61
359.221	18.79
359.43	19.82
359.64	19.51
359.85	19.78
360.06	19.28
360.269	18.69
360.479	20.19
360.689	19.29
360.899	18.58
361.108	17.65
361.318	17.81
361.528	17.35
361.737	16.34
361.947	16.56
362.156	16.48
362.366	16.33
362.576	17.03
362.785	16.35
362.995	16.76
363.204	16.88
363.414	17.49
363.623	17.05
363.833	16.69
364.042	17.51
364.252	17.89
364.461	18.54
364.671	17.97
364.88	16.65
365.09	16.88
365.299	15.61
365.509	15.7
365.718	15.46
365.927	15.36
366.137	16.01
366.346	15.65
366.555	14.4
366.765	14.46
366.974	15.47
367.183	14.99
367.393	13.97
367.602	14.17
367.811	14.01
368.021	14.47
368.23	13.7
368.439	12.71
368.648	12.41
368.857	13.73
369.067	13.21
369.276	12.71
369.485	13.72
369.694	13.84
369.903	13.92
370.112	13.95
370.321	13.12
370.531	13.33
370.74	14.61
370.949	14.81
371.158	14.53
371.367	14.96
371.576	14.69
371.785	14.34
371.994	14.64
372.203	14.75
372.412	14.81
372.621	15.4
372.83	15.36
373.039	14.73
373.248	13.72
373.457	13.56
373.666	13.86
373.874	13.77
374.083	14
374.292	14
374.501	13.1
374.71	12.68
374.919	12.17
375.128	12.51
375.336	11.79
375.545	12.7
375.754	13.22
375.963	12.64
376.171	12.58
376.38	13.29
376.589	13.96
376.798	14.31
377.006	14.39
377.215	13.8
377.424	13.94
377.632	14.62
377.841	14.29
378.05	14.82
378.258	14.88
378.467	15.2
378.675	14.39
378.884	13.59
379.093	13.97
379.301	14.21
379.51	14.77
379.718	15.04
379.927	14.7
380.135	15.39
380.344	14.52
380.552	14.35
380.761	14.05
380.969	14.31
381.177	14.26
381.386	14.29
381.594	13.54
381.803	13.16
382.011	12.56
382.219	12.9
382.428	12.64
382.636	12.5
382.845	13.07
383.053	12.32
383.261	11.93
383.469	12.19
383.678	12.46
383.886	13.38
384.094	13.49
384.302	13.23
384.511	12.92
384.719	12.59
384.927	12.85
385.135	12.4
385.343	12.97
385.552	12.78
385.76	12.43
385.968	11.97
386.176	11.59
386.384	11.31
386.592	11.06
386.8	10.71
387.008	10.91
387.216	10.69
387.424	10.39
387.633	10.61
387.841	10.57
388.049	10.39
388.257	10.94
388.465	10.46
388.672	10.66
388.88	10.88
389.088	11.21
389.296	11.34
389.504	10.81
389.712	10.6
389.92	10.56
390.128	10.53
390.336	10.01
390.544	9.81
390.751	10.45
390.959	9.76
391.167	9.43
391.375	9.37
391.583	9
391.79	9.26
391.998	9.68
392.206	9.52
392.414	9.65
392.621	9.72
392.829	9.2
393.037	8.85
393.244	9.48
393.452	9.86
393.66	9.63
393.867	9.6
394.075	9.86
394.283	9.7
394.49	9.64
394.698	9.54
394.905	9.99
395.113	9.86
395.32	10.17
395.528	10.5
395.735	10.22
395.943	10.2
396.15	10.15
396.358	9.86
396.565	9.92
396.773	9.76
396.98	9.8
397.188	9.58
397.395	10.37
397.602	9.96
397.81	9.49
398.017	9.65
398.225	9.71
398.432	9.66
398.639	9.34
398.847	9.64
399.054	9.73
399.261	9.74
399.468	9.43
399.676	9.03
399.883	9.38
400.09	9.28
400.297	9.45
400.505	9.36
400.712	9.48
400.919	9.85
401.126	9.45
401.333	9.46
401.54	9.27
401.748	9.71
401.955	9.95
402.162	9.69
402.369	9.9
402.576	9.65
402.783	10.02
402.99	10.31
403.197	10.44
403.404	10.56
403.611	10.32
403.818	10.58
404.025	10.19
404.232	9.89
404.439	9.61
404.646	9.54
404.853	9.56
405.06	9.42
405.267	9.18
405.474	8.95
405.681	8.99
405.887	9.2
406.094	9.2
406.301	9.42
406.508	9.66
406.715	10.3
406.922	10.54
407.128	10.73
407.335	10.54
407.542	10.48
407.749	10.45
407.955	9.79
408.162	9.81
408.369	9.48
408.575	9.56
408.782	9.28
408.989	8.88
409.195	8.72
409.402	8.62
409.609	8.58
409.815	8.73
410.022	8.79
410.228	9.57
410.435	9.69
410.642	9.86
410.848	9.85
411.055	10.13
411.261	10.11
411.468	9.87
411.674	9.75
411.881	9.92
412.087	9.72
412.294	9.82
412.5	9.36
412.706	9.08
412.913	8.92
413.119	9.06
413.326	8.59
413.532	8.5
413.738	8.81
413.945	9.05
414.151	8.75
414.357	8.99
414.564	8.89
414.77	8.81
414.976	8.84
415.182	8.82
415.389	8.68
415.595	8.9
415.801	8.89
416.007	8.96
416.214	8.61
416.42	8.94
416.626	8.61
416.832	8.8
417.038	8.94
417.244	8.9
417.45	9.03
417.657	8.92
417.863	8.96
418.069	8.97
418.275	8.98
418.481	9.05
418.687	9.06
418.893	9.26
419.099	9.04
419.305	9.19
419.511	9.39
419.717	9.31
419.923	9.46
420.129	9.54
420.335	9.54
420.541	9.59
420.746	9.61
420.952	9.5
421.158	9.46
421.364	9.51
421.57	9.46
421.776	9.44
421.982	9.55
422.187	9.48
422.393	9.26
422.599	9.16
422.805	9.03
423.01	8.95
423.216	8.98
423.422	8.97
423.628	9
423.833	8.86
424.039	8.73
424.245	8.54
424.45	8.43
424.656	8.67
424.862	8.72
425.067	8.71
425.273	8.72
425.478	8.8
425.684	8.77
425.889	8.71
426.095	8.77
426.301	8.58
426.506	8.64
426.712	8.55
426.917	8.52
427.123	8.64
427.328	8.57
427.533	8.89
427.739	8.92
427.944	8.91
428.15	8.75
428.355	8.71
428.561	9.12
428.766	9
428.971	9.44
429.177	9.11
429.382	9.03
429.587	9.12
429.793	8.81
429.998	8.79
430.203	8.8
430.408	8.89
430.614	9
430.819	8.92
431.024	9.31
431.229	9.01
431.434	9.03
431.64	8.89
431.845	8.78
432.05	8.8
432.255	8.72
432.46	8.66
432.665	8.56
432.87	8.46
433.076	8.57
433.281	8.47
433.486	8.7
433.691	8.64
433.896	8.78
434.101	8.75
434.306	8.64
434.511	8.55
434.716	8.51
434.921	8.95
435.126	9.09
435.331	8.81
435.535	8.86
435.74	8.87
435.945	8.83
436.15	9.05
436.355	9.13
436.56	9.26
436.765	9.34
436.97	9.55
437.174	9.36
437.379	9.5
437.584	9.64
437.789	9.38
437.993	9.2
438.198	9.46
438.403	9.21
438.608	9.02
438.812	8.98
439.017	8.87
439.222	8.84
439.426	8.55
439.631	8.28
439.836	8.42
440.04	8.41
440.245	8.41
440.45	8.26
440.654	8.32
440.859	8.41
441.063	8.43
441.268	8.45
441.472	8.34
441.677	8.43
441.881	8.54
442.086	8.33
442.29	8.41
442.495	8.57
442.699	8.74
442.904	8.73
443.108	8.9
443.312	8.97
443.517	9.08
443.721	9.28
443.925	9.31
444.13	9.23
444.334	9.13
444.538	9.03
444.743	8.93
444.947	8.81
445.151	8.72
445.356	8.54
445.56	8.49
445.764	8.37
445.968	8.04
446.173	8.04
446.377	7.99
446.581	8.14
446.785	8.28
446.989	8.24
447.193	8.19
447.398	8.2
447.602	8.2
447.806	8.22
448.01	8.24
448.214	8.46
448.418	8.54
448.622	8.41
448.826	8.24
449.03	8.18
449.234	8.13
449.438	8.2
449.642	8.19
449.846	8.1
450.05	8.09
450.254	8.16
450.458	8.08
450.662	7.82
450.866	8.02
451.069	7.85
451.273	7.84
451.477	7.6
451.681	7.35
451.885	7.43
452.089	7.53
452.292	7.61
452.496	7.56
452.7	7.46
452.904	7.61
453.107	7.65
453.311	7.95
453.515	7.8
453.719	8.15
453.922	8.25
454.126	8.21
454.33	8.22
454.533	8.11
454.737	8.02
454.94	8.11
455.144	8.1
455.348	8.2
455.551	8.2
455.755	8.32
455.958	8.11
456.162	8.05
456.365	8.04
456.569	7.94
456.772	7.86
456.976	8.1
457.179	8.07
457.383	8.21
457.586	8.05
457.79	8.07
457.993	8.01
458.196	8.12
458.4	8.06
458.603	8.07
458.807	8.21
459.01	8.26
459.213	8.21
459.417	8.26
459.62	8.26
459.823	8.34
460.026	8.34
460.23	8.43
460.433	8.45
460.636	8.61
460.839	8.64
461.042	8.45
461.246	8.41
461.449	8.32
461.652	8.13
461.855	8.07
462.058	7.8
462.261	7.77
462.464	7.65
462.668	7.74
462.871	7.82
463.074	7.64
463.277	7.57
463.48	7.65
463.683	7.69
463.886	7.92
464.089	7.99
464.292	8.19
464.495	8.18
464.698	8.36
464.901	8.22
465.104	8.19
465.306	8.35
465.509	8.48
465.712	8.5
465.915	8.44
466.118	8.44
466.321	8.35
466.524	8.33
466.726	8.12
466.929	8.09
467.132	7.96
467.335	8.12
467.538	7.96
467.74	8.15
467.943	8.14
468.146	8.16
468.348	8.19
468.551	8.24
468.754	8.29
468.956	8.24
469.159	8.16
469.362	8.17
469.564	8.19
469.767	8.11
469.969	7.99
470.172	7.75
470.375	7.66
470.577	7.5
470.78	7.29
470.982	7.34
471.185	7.6
471.387	7.61
471.59	7.9
471.792	7.48
471.995	7.54
472.197	7.7
472.399	7.88
472.602	7.97
472.804	7.84
473.007	7.9
473.209	7.83
473.411	7.81
473.614	7.77
473.816	7.49
474.018	7.68
474.22	7.81
474.423	7.76
474.625	7.99
474.827	8.15
475.03	8.44
475.232	8.49
475.434	8.54
475.636	8.45
475.838	8.65
476.04	8.72
476.243	8.67
476.445	8.91
476.647	9
476.849	8.6
477.051	8.39
477.253	8.21
477.455	8.4
477.657	8.34
477.859	8.42
478.061	8.13
478.263	8.03
478.465	8.01
478.667	7.79
478.869	7.7
479.071	7.73
479.273	8.06
479.475	8.25
479.677	8.1
479.879	8.29
480.081	8.26
480.283	8.55
480.485	8.82
480.686	9.02
480.888	9
481.09	9.01
481.292	9.06
481.494	8.76
481.695	8.64
481.897	8.65
482.099	8.48
482.301	8.3
482.502	8.13
482.704	8.03
482.906	7.99
483.107	8.06
483.309	8.04
483.511	8.03
483.712	8.09
483.914	8.13
484.115	8.12
484.317	8.16
484.519	8.28
484.72	8.33
484.922	8.32
485.123	8.21
485.325	8.22
485.526	8.23
485.728	8.26
485.929	8.22
486.131	8.21
486.332	8.19
486.534	8.13
486.735	8.19
486.936	8.14
487.138	8.1
487.339	8.19
487.541	8.09
487.742	7.99
487.943	8.09
488.144	8.09
488.346	8.05
488.547	8.11
488.748	8.07
488.95	7.99
489.151	8.04
489.352	8.16
489.553	8.25
489.755	8.25
489.956	8.35
490.157	8.27
490.358	8.35
490.559	8.26
490.76	8.3
490.961	8.36
491.163	8.29
491.364	8.25
491.565	8.27
491.766	8.23
491.967	8.28
492.168	8.28
492.369	8.28
492.57	8.19
492.771	8.28
492.972	8.11
493.173	8.12
493.374	8.16
493.575	8.02
493.776	7.79
493.976	7.71
494.177	7.72
494.378	7.64
494.579	7.67
494.78	7.77
494.981	7.71
495.182	7.89
495.382	7.97
495.583	7.9
495.784	8.03
495.985	8.12
496.185	8.17
496.386	8.2
496.587	8.41
496.788	8.3
496.988	8.36
497.189	8.38
497.39	8.25
497.59	8.22
497.791	8.33
497.992	8.57
498.192	8.43
498.393	8.33
498.593	8.18
498.794	8.05
498.994	7.94
499.195	7.85
499.395	7.94
499.596	7.97
499.796	7.86
499.997	7.74
500.197	7.57
500.398	7.72
500.598	7.9
500.799	7.98
500.999	7.84
501.199	7.82
501.4	7.9
501.6	7.74
501.801	7.84
502.001	7.96
502.201	7.96
502.402	7.85
502.602	8
502.802	7.68
503.002	7.62
503.203	7.7
503.403	7.67
503.603	7.81
503.803	7.89
504.003	7.9
504.204	7.86
504.404	7.95
504.604	8.08
504.804	8
505.004	8.31
505.204	8.52
505.404	8.56
505.604	8.72
505.804	8.65
506.005	8.77
506.205	8.79
506.405	8.9
506.605	8.98
506.805	9.13
507.005	9.03
507.204	8.97
507.404	9.02
507.604	8.94
507.804	8.96
508.004	8.65
508.204	8.61
508.404	8.65
508.604	8.59
508.804	8.42
509.003	8.29
509.203	8.33
509.403	8.32
509.603	8.27
509.803	8.44
510.002	8.38
510.202	8.74
510.402	8.6
510.602	8.62
510.801	8.75
511.001	8.92
511.201	9.11
511.4	9.27
511.6	9.31
511.8	9.14
511.999	8.89
512.199	9.01
512.398	8.82
512.598	8.87
512.797	8.86
512.997	8.8
513.197	8.71
513.396	8.34
513.596	8.28
513.795	8.1
513.994	8.27
514.194	8.44
514.393	8.33
514.593	8.28
514.792	8.35
514.992	8.25
515.191	8.09
515.39	7.89
515.59	8.02
515.789	7.95
515.988	8
516.188	7.95
516.387	8.08
516.586	8.07
516.786	8.23
516.985	8.33
517.184	8.39
517.383	8.5
517.582	8.68
517.782	8.88
517.981	8.86
518.18	8.94
518.379	8.99
518.578	8.95
518.777	8.97
518.976	8.93
519.176	8.88
519.375	8.92
519.574	8.96
519.773	8.88
519.972	8.7
520.171	8.71
520.37	8.68
520.569	8.64
520.768	8.76
520.967	8.83
521.166	8.88
521.365	8.91
521.564	8.87
521.762	8.97
521.961	9.05
522.16	9.33
522.359	9.31
522.558	9.51
522.757	9.68
522.956	9.59
523.154	9.69
523.353	9.71
523.552	9.76
523.751	9.78
523.949	9.84
524.148	9.84
524.347	9.7
524.546	9.7
524.744	9.64
524.943	9.6
525.142	9.63
525.34	9.53
525.539	9.58
525.737	9.54
525.936	9.63
526.135	9.56
526.333	9.52
526.532	9.6
526.73	9.68
526.929	9.76
527.127	9.76
527.326	9.68
527.524	9.71
527.723	9.66
527.921	9.74
528.12	9.72
528.318	9.71
528.516	9.79
528.715	9.74
528.913	9.71
529.112	9.67
529.31	9.72
529.508	9.76
529.707	9.79
529.905	9.83
530.103	9.75
530.301	9.83
530.5	9.87
530.698	9.84
530.896	9.88
531.094	10.02
531.293	9.97
531.491	9.93
531.689	9.94
531.887	9.93
532.085	9.93
532.283	10
532.481	9.97
532.68	9.95
532.878	10.03
533.076	10.03
533.274	10.02
533.472	10.19
533.67	10.13
533.868	10.26
534.066	10.27
534.264	10.25
534.462	10.33
534.66	10.31
534.858	10.37
535.056	10.36
535.253	10.41
535.451	10.47
535.649	10.41
535.847	10.51
536.045	10.46
536.243	10.51
536.441	10.54
536.638	10.42
536.836	10.41
537.034	10.41
537.232	10.48
537.43	10.49
537.627	10.32
537.825	10.23
538.023	10.17
538.22	10.12
538.418	10.13
538.616	10.1
538.813	10.26
539.011	10.38
539.209	10.32
539.406	10.38
539.604	10.55
539.801	10.78
539.999	11.04
540.196	11.04
540.394	11.07
540.591	11.14
540.789	11.25
540.986	11.39
541.184	11.42
541.381	11.54
541.579	11.47
541.776	11.4
541.974	11.47
542.171	11.48
542.368	11.55
542.566	11.62
542.763	11.72
542.96	11.72
543.158	11.63
543.355	11.68
543.552	11.76
543.75	11.88
543.947	11.86
544.144	11.71
544.341	11.62
544.539	11.67
544.736	11.69
544.933	11.56
545.13	11.7
545.327	11.9
545.524	11.86
545.722	11.88
545.919	11.89
546.116	12.15
546.313	12.31
546.51	12.52
546.707	12.56
546.904	12.62
547.101	12.77
547.298	12.9
547.495	12.82
547.692	12.85
547.889	12.76
548.086	12.83
548.283	12.92
548.48	12.99
548.677	12.9
548.874	13.08
549.07	13.26
549.267	13.38
549.464	13.13
549.661	13.32
549.858	13.3
550.055	13.5
550.251	13.63
550.448	13.4
550.645	13.62
550.842	13.7
551.038	13.71
551.235	13.63
551.432	13.82
551.628	13.99
551.825	14.01
552.022	14.31
552.218	14.3
552.415	14.3
552.612	14.52
552.808	14.51
553.005	14.35
553.201	14.28
553.398	14.48
553.594	14.54
553.791	14.66
553.987	14.68
554.184	14.71
554.38	14.89
554.577	15.13
554.773	15.34
554.97	15.28
555.166	15.51
555.362	15.71
555.559	15.66
555.755	15.44
555.952	15.55
556.148	15.55
556.344	15.54
556.541	15.58
556.737	15.82
556.933	15.72
557.129	15.78
557.326	15.84
557.522	15.99
557.718	16.03
557.914	16.14
558.11	16.17
558.307	16.25
558.503	16.62
558.699	16.57
558.895	16.41
559.091	16.62
559.287	16.96
559.483	17.31
559.679	17.41
559.876	17.46
560.072	17.59
560.268	17.91
560.464	17.93
560.66	17.62
560.856	17.74
561.052	17.47
561.247	17.37
561.443	17.21
561.639	17.07
561.835	17.04
562.031	17.37
562.227	17.49
562.423	17.37
562.619	17.69
562.815	18.05
563.01	18.2
563.206	18.54
563.402	18.64
563.598	18.84
563.793	19.06
563.989	19.52
564.185	19.35
564.381	19.7
564.576	19.84
564.772	19.79
564.968	19.79
565.163	19.69
565.359	19.88
565.555	20
565.75	20.08
565.946	20.21
566.141	19.97
566.337	20.05
566.532	20
566.728	20.16
566.923	20.33
567.119	20.56
567.314	20.93
567.51	21.11
567.705	21.16
567.901	21.31
568.096	21.48
568.292	21.53
568.487	21.6
568.682	21.44
568.878	21.42
569.073	21.34
569.268	21.4
569.464	21.23
569.659	21.05
569.854	21.16
570.05	21.19
570.245	21.31
570.44	21.62
570.635	21.82
570.831	21.91
571.026	21.93
571.221	22.15
571.416	22.05
571.611	22.21
571.806	22.46
572.002	22.57
572.197	22.63
572.392	22.55
572.587	22.43
572.782	22.59
572.977	22.67
573.172	22.71
573.367	22.87
573.562	23.03
573.757	23.15
573.952	23.07
574.147	23.17
574.342	23.33
574.537	23.56
574.732	23.77
574.927	23.7
575.121	23.82
575.316	23.95
575.511	23.91
575.706	23.97
575.901	23.79
576.096	24.04
576.29	24.03
576.485	24.07
576.68	23.95
576.875	23.92
577.069	24.02
577.264	23.95
577.459	24.01
577.654	24.22
577.848	24.06
578.043	24.28
578.238	24.12
578.432	24.26
578.627	24.43
578.821	24.56
579.016	24.62
579.21	24.36
579.405	24.45
579.6	24.27
579.794	23.95
579.989	24
580.183	24.02
580.378	24.15
580.572	24.03
580.766	23.62
580.961	23.7
581.155	23.68
581.35	24.38
581.544	25.04
581.738	25.21
581.933	25.41
582.127	25.41
582.321	25.66
582.516	25.88
582.71	26.22
582.904	26.81
583.099	26.53
583.293	26.66
583.487	26.28
583.681	25.93
583.875	25.94
584.07	26.1
584.264	26.51
584.458	26.71
584.652	26.71
584.846	26.52
585.04	26.1
585.234	26.25
585.428	26.33
585.623	26.23
585.817	26.58
586.011	26.76
586.205	26.49
586.399	26.33
586.593	26.11
586.787	25.78
586.981	25.42
587.174	25.43
587.368	25.44
587.562	25.43
587.756	25.73
587.95	25.44
588.144	25.74
588.338	25.98
588.532	25.93
588.725	26.06
588.919	26.32
589.113	26.65
589.307	26.7
589.501	26.51
589.694	26.56
589.888	26.54
590.082	26.42
590.275	26.31
590.469	26.61
590.663	27.01
590.856	27.12
591.05	27.35
591.244	27.23
591.437	27.47
591.631	27.77
591.824	27.83
592.018	27.89
592.212	27.94
592.405	27.84
592.599	27.38
592.792	27.29
592.986	27.14
593.179	27.08
593.372	27.6
593.566	27.61
593.759	27.96
593.953	27.94
594.146	28.19
594.339	28.04
594.533	28.34
594.726	28.93
594.92	28.87
595.113	28.89
595.306	29.11
595.499	29.06
595.693	29.23
595.886	29.06
596.079	29.3
596.272	29.36
596.466	29.63
596.659	29.34
596.852	29.12
597.045	29.15
597.238	29.1
597.431	29.17
597.624	29.3
597.818	29.18
598.011	29.52
598.204	29.32
598.397	29.28
598.59	29.44
598.783	29.45
598.976	29.57
599.169	29.81
599.362	29.75
599.555	29.69
599.748	29.43
599.941	29.36
600.134	28.97
600.326	29.08
600.519	28.86
600.712	29.04
600.905	29.27
601.098	29.44
601.291	29.03
601.483	29.45
601.676	29.36
601.869	29.23
602.062	29.29
602.255	29.26
602.447	29.12
602.64	29.31
602.833	28.98
603.025	29.08
603.218	28.87
603.411	29.07
603.603	29.01
603.796	29.06
603.989	29.22
604.181	29.52
604.374	29.75
604.566	29.91
604.759	29.93
604.951	30.14
605.144	30.25
605.336	30.29
605.529	30.32
605.721	30.5
605.914	30.4
606.106	30.5
606.299	30.32
606.491	30.3
606.683	30.24
606.876	30.18
607.068	29.94
607.26	29.81
607.453	29.94
607.645	29.69
607.837	29.47
608.03	29.61
608.222	29.69
608.414	29.54
608.606	29.43
608.799	29.38
608.991	29.41
609.183	29.36
609.375	29.11
609.567	29.1
609.759	29.33
609.952	29.19
610.144	28.98
610.336	28.94
610.528	28.78
610.72	28.79
610.912	28.87
611.104	28.8
611.296	29
611.488	29.29
611.68	29.23
611.872	29.13
612.064	29.18
612.256	29.38
612.448	29.48
612.64	29.83
612.832	29.94
613.023	30.14
613.215	30.12
613.407	30.09
613.599	29.76
613.791	29.78
613.983	29.88
614.174	30.16
614.366	30.45
614.558	30.21
614.75	30.23
614.941	30.31
615.133	30.39
615.325	30.83
615.516	30.87
615.708	31.11
615.9	31.32
616.091	31.16
616.283	31.24
616.475	31.13
616.666	30.98
616.858	31.03
617.049	30.66
617.241	30.62
617.432	30.5
617.624	30.41
617.815	30.6
618.007	30.28
618.198	30.79
618.39	30.74
618.581	30.68
618.773	30.8
618.964	31.01
619.155	31.16
619.347	31.13
619.538	30.73
619.729	31.03
619.921	30.67
620.112	30.59
620.303	30.17
620.494	30.17
620.686	29.9
620.877	30.08
621.068	29.88
621.259	29.87
621.451	29.81
621.642	29.91
621.833	29.77
622.024	29.98
622.215	30.47
622.406	30.49
622.597	30.6
622.788	30.91
622.98	30.68
623.171	30.89
623.362	30.91
623.553	30.7
623.744	31.2
623.935	31.12
624.126	31.12
624.317	30.89
624.508	30.77
624.698	30.79
624.889	30.55
625.08	30.41
625.271	30.16
625.462	30.1
625.653	30.1
625.844	29.8
626.034	30.15
626.225	30.27
626.416	30.45
626.607	30.69
626.798	30.68
626.988	31
627.179	31.44
627.37	31.64
627.56	32.17
627.751	32.61
627.942	32.56
628.132	32.5
628.323	32.66
628.514	32.43
628.704	32.41
628.895	32.39
629.085	32.23
629.276	32.39
629.466	32.21
629.657	31.67
629.847	31.31
630.038	31.22
630.228	31.07
630.419	30.81
630.609	30.91
630.8	31.29
630.99	31.27
631.181	31.29
631.371	31.06
631.561	31.12
631.752	31.35
631.942	31.35
632.132	31.57
632.323	31.76
632.513	31.98
632.703	31.79
632.893	31.48
633.084	31.18
633.274	31.29
633.464	31.02
633.654	31.23
633.844	31.13
634.034	31.3
634.225	31.4
634.415	31.21
634.605	31.32
634.795	31.56
634.985	31.64
635.175	31.84
635.365	31.51
635.555	31.87
635.745	31.66
635.935	31.38
636.125	31.28
636.315	31.15
636.505	31.28
636.695	31.05
636.885	30.67
637.075	30.96
637.265	31.3
637.455	31.29
637.644	30.94
637.834	31.11
638.024	31.64
638.214	31.24
638.404	31.23
638.593	31.24
638.783	31.33
638.973	31.82
639.163	31.73
639.352	31.73
639.542	31.94
639.732	32.46
639.921	32.6
640.111	32.38
640.301	32.63
640.49	32.98
640.68	32.9
640.87	33.03
641.059	32.91
641.249	32.79
641.438	32.56
641.628	32.92
641.817	33.01
642.007	32.8
642.196	32.98
642.386	32.92
642.575	32.35
642.764	32.52
642.954	32.52
643.143	32.23
643.333	31.89
643.522	32.01
643.711	32.19
643.901	32.09
644.09	31.93
644.279	31.69
644.469	31.77
644.658	32.01
644.847	32.03
645.036	31.73
645.226	32.47
645.415	32.34
645.604	32.34
645.793	31.98
645.982	31.67
646.171	31.91
646.361	31.76
646.55	32.24
646.739	32.51
646.928	32.39
647.117	32.28
647.306	31.88
647.495	32.31
647.684	32.49
647.873	32.6
648.062	33.06
648.251	33.02
648.44	33.34
648.629	33.74
648.818	33.47
649.007	33.62
649.196	34.24
649.384	33.9
649.573	33.51
649.762	33.04
649.951	32.91
650.14	32.85
650.328	33.08
650.517	33.22
650.706	33.09
650.895	33.85
651.083	33.4
651.272	33.01
651.461	33.14
651.65	33.19
651.838	33.67
652.027	34.01
652.216	33.67
652.404	33.61
652.593	33.38
652.781	32.57
652.97	31.9
653.158	32.16
653.347	32.42
653.535	32.83
653.724	33.56
653.912	33.2
654.101	33.05
654.289	33.44
654.478	33.34
654.666	32.78
654.855	33.13
655.043	33.24
655.231	33.24
655.42	33.6
655.608	34.01
655.796	33.65
655.985	33.66
656.173	33.46
656.361	33.35
656.55	33.58
656.738	34.3
656.926	34.08
657.114	33.74
657.302	33.58
657.491	33.13
657.679	32.72
657.867	32.56
658.055	32.87
658.243	32.68
658.431	32.92
658.619	32.82
658.807	32.91
658.996	32.94
659.184	33.36
659.372	33.49
659.56	33.59
659.748	33.58
659.936	33.46
660.124	33.56
660.311	33.91
660.499	33.64
660.687	33.44
660.875	33.76
661.063	34.05
661.251	33.94
661.439	34.25
661.627	33.95
661.814	33.68
662.002	34.33
662.19	34.48
662.378	34.54
662.565	34.97
662.753	35.71
662.941	35.19
663.129	34.88
663.316	35.19
663.504	34.84
663.692	35.08
663.879	35.44
664.067	35.29
664.254	35.02
664.442	34.63
664.63	33.79
664.817	32.88
665.005	33.07
665.192	33.68
665.38	33.55
665.567	33.8
665.755	33.95
665.942	33.72
666.13	33.31
666.317	33.37
666.504	33.52
666.692	34.02
666.879	34.01
667.067	34.05
667.254	33.99
667.441	33.78
667.629	34.08
667.816	33.86
668.003	33.74
668.19	33.63
668.378	33.16
668.565	33.36
668.752	32.8
668.939	32.77
669.127	32.51
669.314	32.42
669.501	32.66
669.688	32.15
669.875	32.7
670.062	32.68
670.249	32.35
670.436	33.22
670.623	33.52
670.81	33.69
670.997	34.09
671.184	34.44
671.371	34.41
671.558	34.4
671.745	34.7
671.932	34.43
672.119	35.11
672.306	35.47
672.493	35.02
672.68	34.94
672.867	35.72
673.054	35.7
673.24	35.62
673.427	35.54
673.614	35.32
673.801	35.18
673.988	35.33
674.174	35.55
674.361	35.63
674.548	35.65
674.734	35.18
674.921	34.01
675.108	34.27
675.294	33.73
675.481	33.23
675.668	33.44
675.854	33.78
676.041	33.35
676.227	32.58
676.414	32.57
676.601	32.47
676.787	32.4
676.974	32.86
677.16	32.69
677.347	33.25
677.533	34
677.719	33.98
677.906	33.17
678.092	32.93
678.279	32.75
678.465	33.09
678.651	33.18
678.838	33.58
679.024	33.84
679.21	34.02
679.397	34.35
679.583	34.07
679.769	33.65
679.955	34.25
680.142	34.47
680.328	34.65
680.514	34.93
680.7	34.78
680.886	34.61
681.073	34.76
681.259	34.08
681.445	33.67
681.631	33.3
681.817	33.65
682.003	33.51
682.189	33.65
682.375	33.56
682.561	33.22
682.747	33.2
682.933	33.09
683.119	32.96
683.305	33.61
683.491	34.74
683.677	35.67
683.863	35.78
684.049	36.07
684.235	36.31
684.42	36.76
684.606	36.47
684.792	36.53
684.978	37.07
685.164	37.2
685.349	36.86
685.535	36.01
685.721	35.5
685.907	35.18
686.092	35.09
686.278	34.81
686.464	34.6
686.649	34.82
686.835	34.85
687.021	34.19
687.206	34.8
687.392	34.82
687.577	34.01
687.763	34.01
687.948	33.46
688.134	33.15
688.319	33.52
688.505	33.85
688.69	33.45
688.876	34.29
689.061	33.92
689.247	33.47
689.432	33.81
689.618	34.99
689.803	35.69
689.988	36.88
690.174	36.85
690.359	36.57
690.544	36.62
690.73	37.32
690.915	36.18
691.1	36.68
691.285	36.64
691.471	36.42
691.656	36.1
691.841	35.18
692.026	34.27
692.211	34.46
692.396	34.67
692.582	34.28
692.767	33.59
692.952	34.16
693.137	34.72
693.322	34.41
693.507	34.61
693.692	34.66
693.877	34.46
694.062	35.35
694.247	35.3
694.432	34.63
694.617	35.04
694.802	35.99
694.987	35.39
695.172	35.2
695.357	35.26
695.541	35.07
695.726	35.01
695.911	35.69
696.096	35.35
696.281	35.65
696.466	35.99
696.65	36.35
696.835	35.77
697.02	35.84
697.204	35.91
697.389	35.83
697.574	36.12
697.759	35.73
697.943	35.71
698.128	35.67
698.312	35.94
698.497	35.54
698.682	34.85
698.866	34.42
699.051	34.77
699.235	34.47
699.42	34.6
699.604	34.23
699.789	34.44
699.973	34.44
700.158	34.62
700.342	34.45
700.527	34.69
700.711	35.15
700.895	35.89
701.08	35.29
701.264	35.74
701.448	35.54
701.633	36.14
701.817	36.69
702.001	36.6
702.186	36.57
702.37	36.12
702.554	36.39
702.738	36.72
702.923	36.58
703.107	37.33
703.291	37.44
703.475	36.97
703.659	36.46
703.843	35.48
704.027	35.96
704.212	35.44
704.396	35.48
704.58	35.55
704.764	34.71
704.948	35.6
705.132	35.35
705.316	34.93
705.5	35.88
705.684	36.25
705.868	36.49
706.052	35.8
706.235	36.05
706.419	35.31
706.603	34.91
706.787	35.09
706.971	33.7
707.155	33.58
707.339	34.1
707.522	33.35
707.706	33.47
707.89	33.44
708.074	33.5
708.257	33.29
708.441	34.97
708.625	34.56
708.808	34.73
708.992	34.69
709.176	34.63
709.359	34.24
709.543	34.32
709.727	34.82
709.91	35.3
710.094	35.53
710.277	35.47
710.461	34.37
710.644	34.55
710.828	34.63
711.011	35.37
711.195	35.78
711.378	35.63
711.562	35.92
711.745	34.52
711.928	33.91
712.112	33.81
712.295	34.14
712.478	33.84
712.662	34.03
712.845	33.86
713.028	33.72
713.212	33.86
713.395	33.67
713.578	33.84
713.761	34.76
713.945	35.21
714.128	34.88
714.311	34.99
714.494	36.17
714.677	36.4
714.86	36.33
715.043	36.45
715.227	36.2
715.41	36.55
715.593	36.68
715.776	36.09
715.959	35.92
716.142	36.38
716.325	36.92
716.508	36.54
716.691	36.88
716.874	38
717.057	37.71
717.239	38.21
717.422	37.88
717.605	37.4
717.788	38.11
717.971	37.69
718.154	38.42
718.337	37.47
718.519	36.75
718.702	36.88
718.885	36.38
719.068	36.41
719.25	35.94
719.433	36.83
719.616	36.44
719.798	36.52
719.981	38.12
720.164	37.77
720.346	38.77
720.529	39.66
720.712	39.6
720.894	38.78
721.077	39.05
721.259	39.32
721.442	40.13
721.624	41.04
721.807	40.45
721.989	39.08
722.172	38.62
722.354	38.05
722.537	37.95
722.719	38.11
722.901	38.71
723.084	39.42
723.266	39.34
723.448	37
723.631	36.74
723.813	36.04
723.995	36.61
724.178	38.24
724.36	38.64
724.542	39.05
724.724	38.71
724.907	38.32
725.089	37.27
725.271	36.65
725.453	38.37
725.635	38.34
725.817	38.89
725.999	39.1
726.181	37.72
726.364	37.16
726.546	37.1
726.728	37.81
726.91	38.1
727.092	38.25
727.274	38.52
727.456	36.81
727.638	36.99
727.819	37.62
728.001	37.43
728.183	36.97
728.365	36.66
728.547	36.1
728.729	35.2
728.911	35.02
729.093	35.39
729.274	35.1
729.456	36.64
729.638	37.13
729.82	36.67
730.001	36.54
730.183	36.86
730.365	37.48
730.546	36.34
730.728	36.18
730.91	35.81
731.091	34.64
731.273	34.96
731.455	34.57
731.636	34.29
731.818	34.62
731.999	34.97
732.181	34.48
732.362	33.38
732.544	34.47
732.725	34.02
732.907	34.92
733.088	36.39
733.27	36.58
733.451	36.49
733.633	35.84
733.814	36.42
733.995	36.56
734.177	36.47
734.358	37.91
734.539	37.86
734.721	39.17
734.902	38.51
735.083	38.24
735.264	38.12
735.446	37.61
735.627	37.76
735.808	37
735.989	37.27
736.17	37.21
736.351	36.94
736.533	37.07
736.714	37.33
736.895	37.18
737.076	36.73
737.257	35.58
737.438	36.46
737.619	36.84
737.8	37.73
737.981	37.29
738.162	37.69
738.343	37.55
738.524	36.48
738.705	35.3
738.886	35.08
739.067	35.13
739.247	36.76
739.428	35.52
739.609	35.09
739.79	34.4
739.971	34.19
740.151	35.04
740.332	34.66
740.513	36.84
740.694	36.54
740.874	37.26
741.055	37.53
741.236	37.52
741.417	38.25
741.597	38.67
741.778	39.24
741.958	39.55
742.139	39.09
742.32	39.5
742.5	39.13
742.681	39
742.861	38.65
743.042	40.01
743.222	39.45
743.403	39.61
743.583	39.64
743.764	38.63
743.944	37.93
744.124	39.09
744.305	39.78
744.485	39.56
744.666	40.49
744.846	40.71
745.026	38.81
745.207	38.64
745.387	39.03
745.567	38.7
745.747	41.12
745.928	41.96
746.108	40.05
746.288	38.69
746.468	38.01
746.648	38.81
746.829	39.54
747.009	40.22
747.189	40.3
747.369	39.83
747.549	39.73
747.729	38.75
747.909	37.8
748.089	38.54
748.269	38.66
748.449	36.03
748.629	35.73
748.809	35.05
748.989	35.54
749.169	34.68
749.349	35.26
749.529	36.35
749.709	35.4
749.889	35.45
750.068	33.63
750.248	33.08
750.428	36.32
750.608	36.6
750.788	36.65
750.967	34.45
751.147	36.08
751.327	36.29
751.507	35.73
751.686	35.62
751.866	37.46
752.046	37.46
752.225	38
752.405	36.96
752.585	36.41
752.764	36.84
752.944	39.23
753.123	38.34
753.303	38.41
753.482	39.4
753.662	39.74
753.841	36.65
754.021	36.97
754.2	37.47
754.38	38.87
754.559	38.43
754.739	37.8
754.918	36.78
755.097	38.01
755.277	38.06
755.456	36.49
755.635	36.1
755.815	37.29
755.994	39.2
756.173	38.64
756.352	38.03
756.532	37.55
756.711	37.05
756.89	37.25
757.069	36.84
757.248	35.26
757.427	35.76
757.607	34.64
757.786	35.42
757.965	34.94
758.144	35.19
758.323	33.76
758.502	35.78
758.681	36.88
758.86	37.21
759.039	35.4
759.218	37.25
759.397	37.74
759.576	39.24
759.755	39.06
759.934	38.75
760.113	37.64
760.291	38.95
760.47	38.86
760.649	38.01
760.828	35.76
761.007	37.89
761.186	35.83
761.364	35.29
761.543	35.47
761.722	34.98
761.901	35.02
762.079	35.42
762.258	35.56
762.437	33.54
762.615	34.48
762.794	35.04
762.972	35.4
763.151	36.35
763.33	36.76
763.508	36.35
763.687	36.48
763.865	36.62
764.044	37.63
764.222	37.08
764.401	37.66
764.579	38.27
764.758	38.35
764.936	37.57
765.114	37.37
765.293	36.89
765.471	37.01
765.65	38.28
765.828	38.41
766.006	38.13
766.184	37.83
766.363	38.13
766.541	36.44
766.719	37.79
766.898	37.55
767.076	38.75
767.254	37.52
767.432	37.03
767.61	35.83
767.788	36.93
767.967	37.17
768.145	38.31
768.323	37.87
768.501	39.55
768.679	39.42
768.857	39.75
769.035	39.85
769.213	42.19
769.391	43.02
769.569	44.22
769.747	43.1
769.925	43.25
770.103	43.69
770.281	44.35
770.459	44.77
770.636	45.56
770.814	46.76
770.992	45.41
771.17	45.1
771.348	45.27
771.525	43.43
771.703	43.6
771.881	42.5
772.059	43.54
772.236	44.68
772.414	43.62
772.592	41.56
772.769	41.8
772.947	40.36
773.125	39.51
773.302	41.13
773.48	44.01
773.657	44.34
773.835	46.35
774.013	46.49
774.19	45.52
774.368	45.14
774.545	47.49
774.723	46.95
774.9	47.49
775.077	50.38
775.255	48.81
775.432	47.13
775.61	45.89
775.787	46.01
775.964	42.38
776.142	42.7
776.319	44.49
776.496	45.37
776.674	43.69
776.851	44.93
777.028	42.79
777.205	43.55
777.382	42.77
777.56	42.26
777.737	39.23
777.914	43.11
778.091	39.77
778.268	37.18
778.445	35.14
778.622	35.97
778.8	36.79
778.977	37.65
779.154	38.43
779.331	38.06
779.508	39.87
779.685	42.86
779.862	42.87
780.038	46.2
780.215	44.68
780.392	46
780.569	47.31
780.746	47.72
780.923	48.79
781.1	44.13
781.277	45.44
781.453	43.45
781.63	43.33
781.807	43.19
781.984	45.67
782.16	47.68
782.337	45.38
782.514	43.89
782.691	43.48
782.867	42.84
783.044	48.16
783.221	47.8
783.397	47.35
783.574	47.98
783.75	46.04
783.927	46.07
784.103	45.65
784.28	46.99
784.456	47.56
784.633	46.81
784.809	43.74
784.986	38.98
785.162	37.22
785.339	38.5
785.515	39.26
785.692	38.19
785.868	37.81
786.044	38.6
786.221	39.4
786.397	40.25
786.573	40.26
786.749	43.57
786.926	43.59
787.102	46.33
787.278	47.77
787.454	44.74
787.631	44.68
787.807	43.17
787.983	42.86
788.159	43.27
788.335	42.52
788.511	42.77
788.687	42.27
788.863	43.81
789.039	40.1
789.216	40.4
789.392	41.93
789.568	42.91
789.744	42.61
789.919	43.75
790.095	40.66
790.271	40
790.447	38.79
790.623	36.48
790.799	38.84
790.975	41.91
791.151	43.4
791.327	42.36
791.502	42.15
791.678	43.86
791.854	43.74
792.03	45.59
792.205	47.92
792.381	47.18
792.557	48.24
792.733	47.52
792.908	47.38
793.084	43.71
793.259	41.15
793.435	40.88
793.611	36.3
793.786	38.09
793.962	38.48
794.137	35.84
794.313	37.82
794.488	40.63
794.664	41.86
794.839	39.15
795.015	40.7
795.19	41.69
795.366	42.76
795.541	47.2
795.716	42.96
795.892	45.3
796.067	44.17
796.242	42.97
796.418	42.41
796.593	39.14
796.768	39.23
796.944	39
797.119	40.39
797.294	38.12
797.469	39.19
797.644	40.83
797.82	35.76
797.995	37.94
798.17	38.94
798.345	37.23
798.52	40.53
798.695	40.38
798.87	40.74
799.045	40.99
799.22	42.17
799.395	38.74
799.57	41.12
799.745	42.68
799.92	42
800.095	42.09
800.27	42.52
800.445	40.65
800.62	42.66
800.795	41.13
800.97	42.77
801.145	41.48
801.319	46.57
801.494	45.25
801.669	42.68
801.844	46.19
802.018	47.6
802.193	47.68
802.368	43.62
802.543	43.54
802.717	41.09
802.892	42.9
803.067	45.11
803.241	40.49
803.416	36.53
803.59	37.89
803.765	35.06
803.94	36.51
804.114	36.87
804.289	42.33
804.463	42.44
804.638	46.68
804.812	42.9
804.986	41.04
805.161	45.17
805.335	48.69
805.51	54.2
805.684	56.2
805.858	51.89
806.033	53.23
806.207	53.27
806.381	53.23
806.556	51.48
806.73	50.33
806.904	52.22
807.078	48.72
807.253	50.3
807.427	45
807.601	43.53
807.775	44.24
807.949	41.25
808.123	39.39
808.298	38.32
808.472	42.53
808.646	45.81
808.82	44.74
808.994	43.9
809.168	40.93
809.342	39.94
809.516	34.27
809.69	35.13
809.864	33.86
810.038	37.6
810.212	41.37
810.385	38.63
810.559	38.28
810.733	38.67
810.907	35.9
811.081	37.38
811.255	42.76
811.428	49.78
811.602	47.82
811.776	55.31
811.95	50.16
812.123	51.15
812.297	51.78
812.471	50.67
812.644	56.38
812.818	60.54
812.992	67.48
813.165	64.41
813.339	61.74
813.512	62.96
813.686	58.11
813.86	59.42
814.033	53.73
814.207	48.48
814.38	46.56
814.554	43.76
814.727	46.11
814.9	39.95
815.074	34.54
815.247	33.71
815.421	32.71
815.594	32.3
815.767	35.15
815.941	38.1
816.114	45.7
816.287	46.15
816.46	46.05
816.634	46.07
816.807	47.12
816.98	48.38
817.153	55.14
817.327	57.57
817.5	55.64
817.673	49.18
817.846	52.18
818.019	47.55
818.192	47.27
818.365	42.24
818.538	37.39
818.711	38.41
818.884	37.54
819.057	35.64
819.23	30.1
819.403	29.55
819.576	30.02
819.749	31.24
819.922	30.56
820.095	31.41
820.268	35.75
820.441	38.68
820.614	37.09
820.786	37.45
820.959	33.98
821.132	33.42
821.305	34.61
821.477	38.11
821.65	35.56
821.823	35.78
821.996	35.94
822.168	35.23
822.341	35.26
822.514	36.37
822.686	37.32
822.859	37.63
823.031	37.97
823.204	38.52
823.376	37.04
823.549	37.35
823.722	37.33
823.894	37.46
824.067	36.73
824.239	35.66
824.411	34.04
824.584	34.06
824.756	35.44
824.929	36.07
825.101	35.84
825.273	36.87
825.446	37.51
825.618	38.08
825.79	37.11
825.963	38.48
826.135	40.52
826.307	43.02
826.479	42.29
826.652	41.33
826.824	41.01
826.996	40.21
827.168	39.93
827.34	40.15
827.512	42.01
827.684	43.61
827.856	45.04
828.029	44.93
828.201	43.22
828.373	45.14
828.545	44.25
828.717	44.75
828.889	43.83
829.061	42.58
829.232	42.06
829.404	40.28
829.576	38.9
829.748	37.86
829.92	37.75
830.092	38.49
830.264	35
830.436	35.56
830.607	35.53
830.779	35.7
830.951	38.81
831.123	41.9
831.294	38.49
831.466	40.6
831.638	42.39
831.809	44.76
831.981	44.63
832.153	42.27
832.324	39.39
832.496	37.79
832.667	36.78
832.839	35.46
833.011	30.13
833.182	33.07
833.354	32.86
833.525	35.02
833.697	31.96
833.868	33.37
834.039	38.42
834.211	38.59
834.382	39.1
834.554	40.61
834.725	38.57
834.896	40.95
835.068	40.59
835.239	41.78
835.41	40.41
835.581	40.96
835.753	38.73
835.924	36.14
836.095	40.25
836.266	37.26
836.438	38.55
836.609	43.69
836.78	42.37
836.951	42.28
837.122	42.41
837.293	40.72
837.464	43.45
837.635	46.86
837.806	41.12
837.977	40.58
838.148	44.46
838.319	44.83
838.49	44.98
838.661	44.31
838.832	43.87
839.003	44.86
839.174	43.59
839.345	40.94
839.516	41.21
839.687	51.77
839.857	46.15
840.028	55.19
840.199	58.03
840.37	49.89
840.54	49.18
840.711	50.56
840.882	43.63
841.053	43.76
841.223	44.82
841.394	50.64
841.564	47.16
841.735	49.25
841.906	44.52
842.076	41.01
842.247	43.44
842.417	46.29
842.588	43.56
842.758	48.33
842.929	49.72
843.099	43.74
843.27	32.17
843.44	25.85
843.611	22.47
843.781	23.54
843.951	18.32
844.122	21.3
844.292	11.75
844.462	31.36
844.633	27.68
844.803	25.44
844.973	38.65
845.144	38.9
845.314	51.55
845.484	52.73
845.654	51.01
845.824	59.33
845.995	31.83
846.165	64.33
846.335	31.36
846.505	39.83
846.675	42.28
846.845	18.31
847.015	26.3
847.185	59.44
847.355	62.14
847.525	62.86
847.695	52.58
847.865	66.39
848.035	59.7
848.205	65.47
848.375	56.64
848.545	40.88
848.715	56.9
848.884	95.09
849.054	54.95
849.224	72.95
849.394	67.64
849.564	90.47
849.733	114
849.903	86.78
850.073	86.81
850.243	93.87
850.412	168.95
850.582	153.3
850.752	134.12
850.921	115.46
851.091	99.84
851.26	106.87
851.43	122.74
851.599	108.93
851.769	93.08
851.939	72.8
852.108	86.33
852.278	66.87
852.447	51.98
852.616	46.53
852.786	58.93
852.955	48.96
853.125	46.11
853.294	49.2
853.463	34.17
853.633	50.32
853.802	60.89
853.971	64.88
854.141	64.32
854.31	65.45
854.479	80.17
854.648	96.9
854.818	96.13
854.987	81.39
855.156	78.57
855.325	129.05
855.494	110.47
855.663	115.66
855.832	82.31
856.001	90.55
856.171	93.74
856.34	72.99
856.509	54.98
856.678	85.19
856.847	94.24
857.016	88.81
857.185	66.67
857.353	63.98
857.522	77.7
857.691	90.04
857.86	62.32
858.029	63.63
858.198	69.24
858.367	83.58
858.535	88.56
858.704	96.31
858.873	82.69
859.042	93.25
859.21	89.92
859.379	95.77
859.548	80.48
859.717	108.91
859.885	104.36
860.054	94.39
860.222	73.23
860.391	48.29
860.56	52.08
860.728	66.98
860.897	70.03
861.065	88.62
861.234	69.6
861.402	78.49
861.571	64.83
861.739	75.4
861.908	90.38
862.076	95.34
862.244	113.68
862.413	103.37
862.581	117.51
862.749	105.29
862.918	89.2
863.086	80.2
863.254	71.63
863.423	90.43
863.591	90.76
863.759	114.19
863.927	84.83
864.096	94.62
864.264	73.16
864.432	47.09
864.6	53.25
864.768	53.88
864.936	61
865.104	71.75
865.272	59.32
865.44	64.5
865.608	60.25
865.776	67.08
865.944	60.37
866.112	59.95
866.28	65.2
866.448	95.65
866.616	95.97
866.784	88.62
866.952	73.1
867.12	77.54
867.288	64.39
867.455	64.94
867.623	55.57
867.791	45.33
867.959	57.31
868.127	49.56
868.294	32.59
868.462	-5.69
868.63	13.76
868.797	22.86
868.965	-4.29
869.133	25.58
869.3	37.92
869.468	48.19
869.636	53.2
869.803	28.27
869.971	-0.75
870.138	47.01
870.306	78.86
870.473	60.26
870.641	56.3
870.808	52.08
870.975	48.83
871.143	31.34
871.31	19.23
871.478	22.93
871.645	24.61
871.812	26.06
871.98	17.94
872.147	-35.82
872.314	3.65
872.482	-12.05
872.649	26.68
872.816	30.1
872.983	10.63
873.15	36.17
873.318	46.11
873.485	67.53
873.652	69.33
873.819	50.83
873.986	91.6
874.153	86.27
874.32	86.35
874.487	169.39
874.654	115.85
874.821	183.56
874.988	568.89
875.155	138.46
875.322	151.72
875.489	1072.73
875.656	256.83
875.823	154.84
875.99	-85.96
876.157	-65.12
876.324	21.76
876.49	48.29
876.657	0.5
876.824	49.63
876.991	78.65
877.157	69.46
877.324	67.42
877.491	69.89
877.658	88.19
877.824	86.2
877.991	81.66
878.157	101.33
878.324	101.64
878.491	102.3
878.657	106.86
878.824	84.78
878.99	84.92
879.157	81.74
879.323	83.94
879.49	71.79
879.656	97.07
879.823	117.18
879.989	130.47
880.156	130.25
880.322	183.25
880.488	97.63
880.655	109.49
880.821	125
880.987	93.23
881.154	56.01
881.32	60.65
881.486	29.59
881.652	19.93
881.819	23.08
881.985	20.81
882.151	22.91
882.317	28.49
882.483	28.52
882.649	25.57
882.816	25.38
882.982	29.81
883.148	28.16
883.314	34.77
883.48	34.93
883.646	33.6
883.812	34.33
883.978	38.54
884.144	35.87
884.31	33.61
884.476	36.02
884.642	34.97
884.807	34.07
884.973	34.15
885.139	34.42
885.305	34
885.471	35.35
885.637	34.3
885.802	35.84
885.968	38.63
886.134	49.94
886.3	53.29
886.465	56.78
886.631	51.59
886.797	52.27
886.962	51.69
887.128	62.44
887.293	75.21
887.459	69.05
887.625	55.87
887.79	64.68
887.956	55.64
888.121	44.17
888.287	51.64
888.452	70.95
888.618	69.67
888.783	73.44
