Data from 2937810_Reflection_2.txt Node
Date: Wed Jul 15 17:48:59 EDT 2015
User: robert
Spectrometer: USB4E03001
Autoset integration time: false
Trigger mode: 4
Integration Time (sec): 1.000000E-1
Scans to average: 10
Electric dark correction enabled: true
Nonlinearity correction enabled: false
Boxcar width: 5
Stray light correction enabled: false
XAxis mode: Wavelengths
Stop averaging: false
Number of Pixels in Spectrum: 3648
>>>>>Begin Spectral Data<<<<<
177.566	-7.87
177.785	48.8
178.005	21.58
178.225	-425
178.445	217.89
178.665	419.32
178.885	136.92
179.105	5.41
179.324	21.22
179.544	40.27
179.764	14.29
179.984	13.42
180.204	-8.73
180.423	-26.62
180.643	-87.52
180.863	-40.27
181.083	-30.91
181.302	-19.72
181.522	19.96
181.742	-18.4
181.961	10300
182.181	87.36
182.401	-19.89
182.621	-180.94
182.84	-59.94
183.06	-13.21
183.279	-17.42
183.499	-34.9
183.719	-28.07
183.938	-5.81
184.158	-58.69
184.377	-37.48
184.597	-180.46
184.816	115.57
185.036	126.8
185.256	54.27
185.475	78.27
185.695	84.24
185.914	103.08
186.134	101.57
186.353	118.4
186.572	115.41
186.792	110.84
187.011	136.36
187.231	154.61
187.45	156.31
187.67	242.32
187.889	712.06
188.108	350.74
188.328	241.61
188.547	248.04
188.766	186.33
188.986	175.55
189.205	238.89
189.424	255.53
189.644	281.17
189.863	319.89
190.082	336.73
190.302	221.53
190.521	201.5
190.74	217.97
190.959	197.6
191.178	737.34
191.398	1905.62
191.617	320.5
191.836	219.66
192.055	157.33
192.274	198.16
192.494	171.88
192.713	170.27
192.932	193.6
193.151	243.5
193.37	168.54
193.589	127.14
193.808	106.12
194.027	106.92
194.246	137.13
194.465	170.28
194.685	161.94
194.904	202.31
195.123	180.11
195.342	316
195.561	229.61
195.78	-3464.04
195.999	1263.97
196.218	-544.26
196.436	-970.52
196.655	-522.28
196.874	-365.32
197.093	-697.05
197.312	-875.52
197.531	-1009.63
197.75	262.82
197.969	217.74
198.188	143.53
198.407	133.24
198.625	133.83
198.844	110.99
199.063	105.45
199.282	112.97
199.501	91.44
199.719	109.07
199.938	128.28
200.157	158.1
200.376	178.49
200.594	203.99
200.813	369.9
201.032	254.78
201.251	-573.22
201.469	-374.54
201.688	-313.84
201.907	-330.29
202.125	-333.79
202.344	-1305.97
202.563	-719.55
202.781	-561.07
203	-921.75
203.218	-957.31
203.437	5683.09
203.656	211.39
203.874	188.8
204.093	162.09
204.311	105
204.53	94.54
204.748	96.95
204.967	95.04
205.185	111.71
205.404	116.09
205.622	115.71
205.841	144.29
206.059	260.68
206.278	1511.7
206.496	2985.07
206.715	355.31
206.933	376.18
207.151	2281.88
207.37	45.87
207.588	326.6
207.806	-68.49
208.025	-49.19
208.243	-83.54
208.461	-34.92
208.68	-54.07
208.898	-9.82
209.116	-321.56
209.335	87.26
209.553	152.93
209.771	-61.85
209.989	377.38
210.208	-22.21
210.426	-161.71
210.644	6470.91
210.862	2211.89
211.081	676.96
211.299	511.56
211.517	-1828.49
211.735	18628.12
211.953	503.6
212.171	628.77
212.39	1642.75
212.608	1558.18
212.826	2102.39
213.044	-585.66
213.262	-1605.91
213.48	-8473.87
213.698	-2811.72
213.916	815.78
214.134	541.97
214.352	949.22
214.57	-12330.61
214.788	-4876.74
215.006	9871.13
215.224	3379.7
215.442	510.06
215.66	452.27
215.878	591.49
216.096	-462.03
216.314	-68.63
216.532	7.82
216.75	2.94
216.968	-60.42
217.185	-30.86
217.403	-68.41
217.621	-30.24
217.839	16.59
218.057	-12.24
218.275	-16.73
218.492	-254.17
218.71	411.25
218.928	278.26
219.146	200.34
219.363	263.28
219.581	183.42
219.799	309.77
220.017	976.13
220.234	-2134.97
220.452	-3768.32
220.67	2516.35
220.887	-425.8
221.105	-263.91
221.323	-77.88
221.54	-115.67
221.758	-104.09
221.976	-940.94
222.193	272.43
222.411	119.52
222.629	65.58
222.846	51.62
223.064	56.26
223.281	67.65
223.499	109.73
223.716	81.75
223.934	75.03
224.151	73.1
224.369	62.16
224.586	75.28
224.804	139.86
225.021	162.84
225.239	147.29
225.456	217.91
225.674	264.39
225.891	154.29
226.108	217.83
226.326	210.07
226.543	4674.77
226.76	-337.16
226.978	-102.8
227.195	-143.43
227.413	-87.25
227.63	-40.07
227.847	-16.01
228.064	-5.19
228.282	3.47
228.499	3.19
228.716	-6.48
228.934	4.59
229.151	2.81
229.368	-5.87
229.585	2.69
229.802	-1.97
230.02	-3.88
230.237	1.58
230.454	-3.89
230.671	-6.84
230.888	-11.79
231.105	-6.3
231.323	-14.23
231.54	-2.4
231.757	-1.88
231.974	-13.54
232.191	-22.12
232.408	-5.04
232.625	-0.3
232.842	-5.86
233.059	-36.57
233.276	-36.78
233.493	-43.93
233.71	-19.93
233.927	-28.79
234.144	-6.62
234.361	-5.24
234.578	-0.51
234.795	-12.66
235.012	-7.93
235.229	-2.14
235.446	8.33
235.663	5.84
235.879	11.06
236.096	0.8
236.313	-13.94
236.53	-27.57
236.747	-24.53
236.964	-19.44
237.181	-16.62
237.397	-42.96
237.614	-55.77
237.831	-37.42
238.048	-42.89
238.264	-46.07
238.481	-19.71
238.698	2.44
238.915	11.14
239.131	9.7
239.348	15.93
239.565	14.53
239.781	19.94
239.998	23.36
240.215	15.15
240.431	18.46
240.648	19.64
240.865	15.51
241.081	10.77
241.298	12.23
241.514	11.93
241.731	6.24
241.947	5.77
242.164	6.64
242.38	9.09
242.597	12.52
242.814	14.15
243.03	11.88
243.246	16.06
243.463	20.14
243.679	19.04
243.896	19.13
244.112	19.61
244.329	22.66
244.545	24.78
244.762	25.78
244.978	24.9
245.194	25.66
245.411	25.04
245.627	20.54
245.843	19.77
246.06	22.13
246.276	23.28
246.492	22.73
246.709	19.54
246.925	18.66
247.141	18.92
247.357	18.52
247.574	19.21
247.79	19.07
248.006	19.56
248.222	19.34
248.439	17.98
248.655	15.52
248.871	15.53
249.087	15.36
249.303	16.64
249.519	16.91
249.736	15.32
249.952	11.68
250.168	10.36
250.384	7.48
250.6	8.63
250.816	6.27
251.032	10.77
251.248	12.46
251.464	11.55
251.68	7.76
251.896	8.08
252.112	9.88
252.328	7.17
252.544	6.5
252.76	7.5
252.976	6.35
253.192	5.53
253.408	4.75
253.624	4
253.84	6.89
254.056	10.57
254.272	7.64
254.487	5.54
254.703	10.58
254.919	12.04
255.135	14.94
255.351	16.94
255.567	21.08
255.782	22.54
255.998	23.23
256.214	23.78
256.43	18.88
256.646	14.5
256.861	12.56
257.077	9.55
257.293	8.93
257.508	5.81
257.724	1.97
257.94	1.15
258.155	-0.03
258.371	-2.65
258.587	-0.47
258.802	-0.96
259.018	3.37
259.234	6.25
259.449	6.68
259.665	8.07
259.88	9.65
260.096	11.06
260.312	11.48
260.527	12.08
260.743	14.22
260.958	11.3
261.174	11.59
261.389	10.21
261.605	9.69
261.82	10.17
262.036	10.27
262.251	7.61
262.466	5.13
262.682	4.43
262.897	2.2
263.113	-0.72
263.328	2.8
263.543	4.72
263.759	4.25
263.974	3.9
264.189	5.94
264.405	4.68
264.62	4.88
264.835	4.67
265.051	1.45
265.266	4.13
265.481	0.9
265.696	1.91
265.912	1.45
266.127	2.47
266.342	4.12
266.557	3.96
266.773	4.84
266.988	7
267.203	6
267.418	8.14
267.633	7.12
267.848	8.45
268.064	8.09
268.279	8.98
268.494	10.01
268.709	8.67
268.924	8.38
269.139	10.35
269.354	7.79
269.569	9.69
269.784	9.63
269.999	8.81
270.214	8.67
270.429	8.14
270.644	7.52
270.859	8.06
271.074	10.29
271.289	9.96
271.504	7.25
271.719	10.03
271.934	11.06
272.149	11.76
272.363	12.05
272.578	13.23
272.793	12.96
273.008	11.91
273.223	10.9
273.438	8.93
273.653	10.18
273.867	12.18
274.082	8.32
274.297	7.72
274.512	4.81
274.726	5.75
274.941	6.08
275.156	6.54
275.371	10.42
275.585	11.23
275.8	11.1
276.015	9.43
276.229	7.74
276.444	11.67
276.659	10.2
276.873	11.91
277.088	9.32
277.302	8.75
277.517	9.29
277.732	6.09
277.946	4.88
278.161	5.81
278.375	5.11
278.59	3.71
278.804	0.14
279.019	1.1
279.233	0.44
279.448	2.19
279.662	3.15
279.877	5.2
280.091	5.71
280.306	8.44
280.52	9.25
280.735	10.08
280.949	9.66
281.163	11.35
281.378	9.79
281.592	9.39
281.806	10.53
282.021	11
282.235	6.82
282.449	4.65
282.664	3.44
282.878	6.78
283.092	8.89
283.307	11.09
283.521	10.59
283.735	11.06
283.949	11.71
284.164	11.52
284.378	11.44
284.592	14.14
284.806	15.6
285.02	16.43
285.234	13.3
285.449	12.9
285.663	9.85
285.877	10.77
286.091	11.3
286.305	13.28
286.519	12.32
286.733	13.52
286.947	11.72
287.161	14.49
287.375	15.45
287.589	16.71
287.803	16.06
288.017	18.29
288.231	17.93
288.445	16.64
288.659	13.81
288.873	16.79
289.087	15.46
289.301	17.97
289.515	15.9
289.729	15.77
289.943	13.6
290.157	12.21
290.371	13.14
290.584	14.19
290.798	17.51
291.012	18.97
291.226	17.78
291.44	15.27
291.654	14.37
291.867	14.91
292.081	13.22
292.295	14.36
292.509	15.64
292.722	13.99
292.936	11.58
293.15	11.19
293.364	11.23
293.577	7.76
293.791	8.43
294.005	7.58
294.218	6.73
294.432	5.45
294.645	6.34
294.859	3.9
295.073	7.99
295.286	8.12
295.5	8.09
295.713	9.38
295.927	11.28
296.14	14.03
296.354	15.32
296.568	15.6
296.781	17.39
296.994	18.64
297.208	20.89
297.421	18.94
297.635	19.23
297.848	16.65
298.062	15.01
298.275	14.02
298.489	12.91
298.702	13.9
298.915	13.24
299.129	11.79
299.342	9.26
299.555	7.81
299.769	7.86
299.982	7.56
300.195	8.93
300.409	8.42
300.622	8.93
300.835	8.32
301.048	4.81
301.262	3.84
301.475	3.25
301.688	3.06
301.901	2.34
302.115	0.79
302.328	2.34
302.541	0.78
302.754	0.65
302.967	0.7
303.18	0.62
303.393	0.41
303.607	3.88
303.82	6.01
304.033	5.26
304.246	7.45
304.459	7.82
304.672	7.56
304.885	11.24
305.098	11.78
305.311	10.85
305.524	11.29
305.737	11.55
305.95	10.95
306.163	8.99
306.376	9.3
306.589	8.41
306.802	9.97
307.015	10.02
307.228	9.01
307.44	8.84
307.653	8.91
307.866	11.77
308.079	13.24
308.292	11.95
308.505	14.34
308.718	14.13
308.93	14.76
309.143	13.16
309.356	14.29
309.569	14.56
309.781	16.51
309.994	17.61
310.207	13.68
310.42	13.37
310.632	14.11
310.845	14.1
311.058	16.42
311.27	14.76
311.483	13.79
311.696	13.52
311.908	12.59
312.121	9.54
312.333	8.36
312.546	9.66
312.759	9.12
312.971	7.3
313.184	4.24
313.396	0.63
313.609	-0.9
313.821	1.22
314.034	-0.3
314.246	0.44
314.459	2.98
314.671	2.79
314.884	3.19
315.096	2.26
315.309	4.72
315.521	7.51
315.733	6.53
315.946	10.41
316.158	9.84
316.371	8.11
316.583	8.18
316.795	6.95
317.008	9.72
317.22	9.11
317.432	9.88
317.644	8.88
317.857	6.25
318.069	6.53
318.281	7.27
318.494	8.12
318.706	8.63
318.918	6.06
319.13	7.42
319.342	5.67
319.555	7.25
319.767	7.19
319.979	8.88
320.191	10.75
320.403	13.73
320.615	13.51
320.827	13.36
321.039	10.97
321.252	12.31
321.464	11.2
321.676	11.33
321.888	8.82
322.1	9.29
322.312	7.6
322.524	4.83
322.736	2.29
322.948	0.7
323.16	2.15
323.372	6.77
323.584	6.33
323.796	8.43
324.007	8.46
324.219	8.33
324.431	8.9
324.643	8.79
324.855	10.38
325.067	11.27
325.279	11.62
325.491	9.92
325.702	9.94
325.914	11.41
326.126	9.52
326.338	9.9
326.55	11.94
326.761	11.73
326.973	11.71
327.185	12.68
327.396	13.03
327.608	12.61
327.82	12.17
328.032	9.71
328.243	10.02
328.455	9.39
328.666	8.57
328.878	9.31
329.09	9.8
329.301	9.83
329.513	9.27
329.725	9.79
329.936	10.27
330.148	7.84
330.359	9.76
330.571	11.17
330.782	11.15
330.994	10.08
331.205	9.09
331.417	8.83
331.628	9.4
331.84	10.83
332.051	8.19
332.262	7.44
332.474	11.33
332.685	10.29
332.897	7.14
333.108	7.99
333.319	9.49
333.531	10.17
333.742	8.99
333.953	8.42
334.165	9.43
334.376	12.94
334.587	12.89
334.799	14.14
335.01	13.08
335.221	13.95
335.432	13.5
335.644	13.39
335.855	11.89
336.066	12.64
336.277	13.67
336.488	12.76
336.7	12.15
336.911	12.75
337.122	12.37
337.333	14.38
337.544	13.39
337.755	15.67
337.966	17.59
338.177	18.09
338.388	18.6
338.599	18.39
338.811	17.62
339.022	15.52
339.233	16.27
339.444	16.92
339.655	17.17
339.866	16.5
340.076	15.87
340.287	15.54
340.498	15.95
340.709	16.47
340.92	18.17
341.131	18.1
341.342	17.03
341.553	16.33
341.764	14.75
341.975	14.4
342.185	16.68
342.396	17.45
342.607	16.88
342.818	17.71
343.029	17.77
343.239	17.16
343.45	17.15
343.661	20.32
343.872	22.58
344.082	22.72
344.293	22.82
344.504	23.76
344.714	22.9
344.925	22
345.136	21.9
345.346	21.34
345.557	19.85
345.768	20.91
345.978	19.74
346.189	15.88
346.399	15.63
346.61	15.63
346.821	14.04
347.031	15.51
347.242	15.51
347.452	13.46
347.663	11.84
347.873	11.54
348.084	8.75
348.294	9.05
348.504	10.43
348.715	11.92
348.925	11.95
349.136	13.06
349.346	12.44
349.557	11.66
349.767	11.43
349.977	14.29
350.188	14.6
350.398	16.73
350.608	16.71
350.819	17.73
351.029	16.44
351.239	17.38
351.449	15.91
351.66	14.19
351.87	14.32
352.08	14.88
352.29	13.28
352.501	13.38
352.711	13.12
352.921	12.76
353.131	12.08
353.341	11.36
353.552	11.13
353.762	10.93
353.972	11.31
354.182	12.59
354.392	13.95
354.602	15.46
354.812	15.38
355.022	13.93
355.232	13.45
355.442	15.34
355.652	16.46
355.862	15.58
356.072	16.12
356.282	17.13
356.492	17.49
356.702	17.28
356.912	17.23
357.122	16.63
357.332	18.24
357.542	20.06
357.752	18.64
357.962	19.33
358.171	19.92
358.381	20.16
358.591	19.83
358.801	19.46
359.011	19.18
359.221	18.36
359.43	19.85
359.64	18.94
359.85	17.66
360.06	17.79
360.269	17.88
360.479	17.35
360.689	17.26
360.899	17.36
361.108	16.52
361.318	16.03
361.528	15.23
361.737	14.94
361.947	15.6
362.156	15.62
362.366	15.59
362.576	14.71
362.785	15.03
362.995	14.97
363.204	14.24
363.414	14.31
363.623	14.14
363.833	14.78
364.042	13.47
364.252	12.9
364.461	12.52
364.671	12.82
364.88	13.51
365.09	12.01
365.299	11.65
365.509	12.23
365.718	12.16
365.927	13.01
366.137	12.77
366.346	13.1
366.555	11.99
366.765	11.5
366.974	10.77
367.183	7.81
367.393	8.36
367.602	8.08
367.811	8.91
368.021	9.2
368.23	8.43
368.439	8.68
368.648	8.91
368.857	9.89
369.067	11.18
369.276	10.85
369.485	12.76
369.694	12.88
369.903	11.8
370.112	10.65
370.321	11.45
370.531	11.69
370.74	11.59
370.949	11.44
371.158	10.53
371.367	11.26
371.576	12.07
371.785	13.41
371.994	13.3
372.203	14.25
372.412	13.07
372.621	12.64
372.83	12.8
373.039	13.46
373.248	13.51
373.457	13.67
373.666	11.65
373.874	11.82
374.083	10.98
374.292	11.52
374.501	10.88
374.71	11.69
374.919	12.43
375.128	12.15
375.336	12.03
375.545	12.11
375.754	12.55
375.963	13.33
376.171	12.49
376.38	12.57
376.589	13.09
376.798	13.91
377.006	14.21
377.215	14.35
377.424	14.81
377.632	13.84
377.841	13.37
378.05	13.19
378.258	13.42
378.467	14.19
378.675	12.93
378.884	12
379.093	11.9
379.301	11.6
379.51	10.43
379.718	10.58
379.927	11.36
380.135	11.36
380.344	11.1
380.552	10.1
380.761	9.26
380.969	10.3
381.177	10.88
381.386	10.78
381.594	10.96
381.803	11.24
382.011	9.93
382.219	9.21
382.428	9.21
382.636	9.82
382.845	10.12
383.053	9.78
383.261	9.13
383.469	8.02
383.678	8.15
383.886	8
384.094	7.97
384.302	9
384.511	9.39
384.719	9.97
384.927	9.66
385.135	10.25
385.343	10.23
385.552	10.98
385.76	11.57
385.968	11
386.176	10.68
386.384	11.22
386.592	10.62
386.8	10.27
387.008	9.81
387.216	10.01
387.424	9.29
387.633	9.73
387.841	9.02
388.049	9.05
388.257	9.77
388.465	9.9
388.672	9.33
388.88	9.03
389.088	9.54
389.296	9.5
389.504	9.23
389.712	9.43
389.92	9.56
390.128	9.83
390.336	9.5
390.544	9.3
390.751	9.39
390.959	8.99
391.167	9
391.375	8.38
391.583	9.1
391.79	8.94
391.998	8.78
392.206	8.67
392.414	8.61
392.621	8.74
392.829	8.39
393.037	8.59
393.244	8.46
393.452	8.63
393.66	8.66
393.867	8.03
394.075	8.23
394.283	8.29
394.49	7.62
394.698	7.12
394.905	7.09
395.113	7.38
395.32	6.71
395.528	6.84
395.735	6.81
395.943	6.71
396.15	7.09
396.358	6.65
396.565	6.73
396.773	7.2
396.98	7.92
397.188	7.57
397.395	7.29
397.602	7.84
397.81	7.78
398.017	7.94
398.225	7.85
398.432	7.06
398.639	7.37
398.847	7.18
399.054	7.01
399.261	6.38
399.468	6.38
399.676	6.38
399.883	5.98
400.09	6.18
400.297	6.32
400.505	6.69
400.712	6.91
400.919	7.09
401.126	7.11
401.333	7.18
401.54	7.47
401.748	7.35
401.955	6.91
402.162	7.32
402.369	7.33
402.576	7.11
402.783	6.77
402.99	6.93
403.197	6.79
403.404	7.03
403.611	7.06
403.818	6.96
404.025	7.17
404.232	7.55
404.439	7.42
404.646	7.35
404.853	7.59
405.06	8.13
405.267	7.99
405.474	7.74
405.681	7.56
405.887	7.61
406.094	7.67
406.301	7.55
406.508	7.5
406.715	7.27
406.922	7.13
407.128	6.47
407.335	5.99
407.542	5.77
407.749	6.08
407.955	6.33
408.162	6.55
408.369	6.65
408.575	6.72
408.782	6.82
408.989	6.63
409.195	6.78
409.402	7.01
409.609	7.22
409.815	7.53
410.022	7.36
410.228	7.07
410.435	6.65
410.642	6.84
410.848	7.03
411.055	6.81
411.261	7.21
411.468	7.09
411.674	7.05
411.881	6.71
412.087	6.7
412.294	6.47
412.5	6.32
412.706	6.43
412.913	5.92
413.119	5.76
413.326	5.73
413.532	5.56
413.738	5.83
413.945	5.97
414.151	6.38
414.357	6.07
414.564	6.32
414.77	6.58
414.976	6.63
415.182	7.05
415.389	7.14
415.595	7.21
415.801	7.24
416.007	6.72
416.214	6.6
416.42	6.48
416.626	6.63
416.832	6.48
417.038	6.2
417.244	6.2
417.45	5.98
417.657	5.9
417.863	5.96
418.069	6.14
418.275	6.54
418.481	6.77
418.687	6.65
418.893	6.64
419.099	6.78
419.305	6.94
419.511	6.86
419.717	6.93
419.923	6.94
420.129	6.84
420.335	6.78
420.541	6.61
420.746	6.49
420.952	6.68
421.158	6.61
421.364	6.67
421.57	6.5
421.776	6.51
421.982	6.55
422.187	6.62
422.393	6.75
422.599	6.67
422.805	6.86
423.01	6.84
423.216	6.75
423.422	6.88
423.628	6.64
423.833	6.73
424.039	6.81
424.245	6.86
424.45	6.85
424.656	6.62
424.862	6.77
425.067	6.65
425.273	6.59
425.478	6.62
425.684	6.71
425.889	6.84
426.095	6.97
426.301	6.81
426.506	6.75
426.712	6.68
426.917	7.03
427.123	6.67
427.328	6.57
427.533	6.85
427.739	6.75
427.944	6.4
428.15	6.42
428.355	6.29
428.561	6.19
428.766	5.77
428.971	5.92
429.177	5.7
429.382	5.87
429.587	5.88
429.793	5.62
429.998	5.44
430.203	5.7
430.408	5.61
430.614	6
430.819	6.2
431.024	6.67
431.229	6.48
431.434	6.41
431.64	6.47
431.845	6.33
432.05	6.49
432.255	6.49
432.46	6.53
432.665	6.92
432.87	6.68
433.076	6.61
433.281	6.21
433.486	6.25
433.691	6.33
433.896	6.08
434.101	6.28
434.306	6.11
434.511	6.23
434.716	6.3
434.921	5.85
435.126	5.93
435.331	5.96
435.535	6.19
435.74	6.11
435.945	6.06
436.15	6.18
436.355	6.08
436.56	5.82
436.765	5.91
436.97	5.66
437.174	5.76
437.379	5.64
437.584	5.59
437.789	5.37
437.993	5.55
438.198	5.42
438.403	5.47
438.608	5.25
438.812	5.51
439.017	5.58
439.222	5.69
439.426	5.75
439.631	5.69
439.836	5.82
440.04	6.02
440.245	5.84
440.45	5.89
440.654	5.95
440.859	6.08
441.063	6.12
441.268	5.95
441.472	5.89
441.677	5.96
441.881	5.87
442.086	5.8
442.29	5.76
442.495	5.87
442.699	5.85
442.904	5.9
443.108	6.17
443.312	6.27
443.517	6.28
443.721	6.35
443.925	6.43
444.13	6.67
444.334	6.84
444.538	6.93
444.743	6.96
444.947	6.93
445.151	6.83
445.356	6.67
445.56	6.44
445.764	6.4
445.968	6.41
446.173	6.23
446.377	6.13
446.581	5.94
446.785	5.89
446.989	5.78
447.193	5.8
447.398	5.85
447.602	5.78
447.806	5.77
448.01	5.77
448.214	5.73
448.418	5.81
448.622	5.76
448.826	5.83
449.03	5.77
449.234	5.67
449.438	5.69
449.642	5.55
449.846	5.58
450.05	5.61
450.254	5.62
450.458	5.51
450.662	5.39
450.866	5.24
451.069	5.26
451.273	5.11
451.477	5.21
451.681	5.3
451.885	5.5
452.089	5.4
452.292	5.44
452.496	5.38
452.7	5.42
452.904	5.6
453.107	5.7
453.311	5.66
453.515	5.95
453.719	5.9
453.922	5.73
454.126	5.43
454.33	5.23
454.533	5.19
454.737	5.35
454.94	5.24
455.144	5.03
455.348	4.96
455.551	5.04
455.755	4.93
455.958	5.2
456.162	5.47
456.365	5.53
456.569	5.85
456.772	5.95
456.976	5.8
457.179	5.94
457.383	5.91
457.586	5.98
457.79	5.91
457.993	6
458.196	5.92
458.4	5.87
458.603	5.92
458.807	6.01
459.01	5.84
459.213	5.88
459.417	5.82
459.62	5.82
459.823	5.85
460.026	5.75
460.23	5.68
460.433	5.68
460.636	5.55
460.839	5.63
461.042	5.56
461.246	5.75
461.449	5.76
461.652	5.76
461.855	5.7
462.058	5.67
462.261	5.84
462.464	5.88
462.668	5.97
462.871	5.96
463.074	5.94
463.277	5.76
463.48	5.7
463.683	5.63
463.886	5.72
464.089	5.9
464.292	5.91
464.495	5.87
464.698	5.93
464.901	5.73
465.104	5.83
465.306	5.62
465.509	5.89
465.712	5.82
465.915	5.9
466.118	5.74
466.321	5.63
466.524	5.69
466.726	5.53
466.929	5.37
467.132	5.41
467.335	5.42
467.538	5.49
467.74	5.4
467.943	5.57
468.146	5.47
468.348	5.35
468.551	5.23
468.754	5.23
468.956	5.28
469.159	5.18
469.362	5.24
469.564	5.28
469.767	5.28
469.969	5.35
470.172	5.11
470.375	5.35
470.577	5.45
470.78	5.67
470.982	5.58
471.185	5.44
471.387	5.54
471.59	5.6
471.792	5.46
471.995	5.26
472.197	5.01
472.399	5.1
472.602	4.75
472.804	4.84
473.007	5
473.209	4.84
473.411	4.81
473.614	4.78
473.816	4.66
474.018	4.83
474.22	5.14
474.423	5.29
474.625	5.29
474.827	5.56
475.03	5.38
475.232	4.94
475.434	4.98
475.636	5.22
475.838	5.5
476.04	5.52
476.243	5.72
476.445	5.63
476.647	5.58
476.849	5.51
477.051	5.3
477.253	5.54
477.455	5.63
477.657	5.69
477.859	5.65
478.061	5.47
478.263	5.49
478.465	5.2
478.667	5.17
478.869	5.23
479.071	5.17
479.273	5.28
479.475	5.24
479.677	5.38
479.879	5.25
480.081	5.3
480.283	5.35
480.485	5.32
480.686	5.25
480.888	5.25
481.09	5.31
481.292	5.45
481.494	5.52
481.695	5.6
481.897	5.65
482.099	5.76
482.301	5.81
482.502	5.9
482.704	6.06
482.906	6.11
483.107	6.17
483.309	6.17
483.511	6.16
483.712	6.1
483.914	6.05
484.115	6.05
484.317	6.05
484.519	6.03
484.72	5.98
484.922	5.88
485.123	5.89
485.325	5.88
485.526	5.86
485.728	5.83
485.929	5.85
486.131	5.83
486.332	5.86
486.534	5.88
486.735	5.92
486.936	5.93
487.138	5.91
487.339	5.9
487.541	5.81
487.742	5.83
487.943	5.75
488.144	5.71
488.346	5.78
488.547	5.68
488.748	5.71
488.95	5.63
489.151	5.62
489.352	5.64
489.553	5.64
489.755	5.78
489.956	5.72
490.157	5.84
490.358	5.84
490.559	5.75
490.76	5.85
490.961	5.84
491.163	5.83
491.364	5.81
491.565	5.83
491.766	5.81
491.967	5.67
492.168	5.71
492.369	5.78
492.57	5.76
492.771	5.8
492.972	5.73
493.173	5.63
493.374	5.6
493.575	5.57
493.776	5.52
493.976	5.48
494.177	5.59
494.378	5.57
494.579	5.43
494.78	5.55
494.981	5.52
495.182	5.52
495.382	5.62
495.583	5.71
495.784	5.77
495.985	5.72
496.185	5.82
496.386	5.57
496.587	5.52
496.788	5.47
496.988	5.38
497.189	5.39
497.39	5.54
497.59	5.46
497.791	5.52
497.992	5.62
498.192	5.53
498.393	5.43
498.593	5.54
498.794	5.62
498.994	5.75
499.195	5.9
499.395	5.87
499.596	5.67
499.796	5.5
499.997	5.46
500.197	5.26
500.398	5.31
500.598	5.14
500.799	5.14
500.999	5.08
501.199	5.04
501.4	4.94
501.6	4.92
501.801	5.11
502.001	5.11
502.201	5.09
502.402	5.23
502.602	5.2
502.802	5.52
503.002	5.7
503.203	5.65
503.403	5.57
503.603	5.52
503.803	5.7
504.003	5.89
504.204	6.13
504.404	6.03
504.604	5.99
504.804	6.07
505.004	6.08
505.204	6.06
505.404	6.27
505.604	6.18
505.804	6.28
506.005	6.32
506.205	6.07
506.405	6.17
506.605	6.4
506.805	6.32
507.005	6.27
507.204	6.33
507.404	6.29
507.604	6.29
507.804	6.55
508.004	6.69
508.204	6.67
508.404	6.73
508.604	6.72
508.804	6.52
509.003	6.69
509.203	6.91
509.403	6.79
509.603	6.85
509.803	6.78
510.002	6.76
510.202	6.65
510.402	6.54
510.602	6.61
510.801	6.56
511.001	6.64
511.201	6.65
511.4	6.54
511.6	6.67
511.8	6.77
511.999	6.9
512.199	6.93
512.398	6.98
512.598	7.09
512.797	7.06
512.997	6.95
513.197	7.13
513.396	7.15
513.596	7.04
513.795	7.16
513.994	7.1
514.194	7
514.393	6.89
514.593	6.92
514.792	7.01
514.992	6.91
515.191	7.13
515.39	7
515.59	6.99
515.789	7.32
515.988	7.16
516.188	7.24
516.387	7.21
516.586	7.3
516.786	7.32
516.985	7.22
517.184	7.33
517.383	7.28
517.582	7.32
517.782	7.34
517.981	7.34
518.18	7.47
518.379	7.44
518.578	7.52
518.777	7.62
518.976	7.66
519.176	7.88
519.375	8.01
519.574	8.17
519.773	8.27
519.972	8.19
520.171	8.28
520.37	8.28
520.569	8.41
520.768	8.42
520.967	8.52
521.166	8.51
521.365	8.41
521.564	8.33
521.762	8.25
521.961	8.33
522.16	8.57
522.359	8.59
522.558	8.52
522.757	8.56
522.956	8.58
523.154	8.6
523.353	8.55
523.552	8.55
523.751	8.5
523.949	8.62
524.148	8.57
524.347	8.52
524.546	8.39
524.744	8.49
524.943	8.5
525.142	8.54
525.34	8.56
525.539	8.63
525.737	8.58
525.936	8.7
526.135	8.63
526.333	8.79
526.532	8.94
526.73	9.09
526.929	9.17
527.127	9.3
527.326	9.36
527.524	9.39
527.723	9.49
527.921	9.64
528.12	9.54
528.318	9.58
528.516	9.51
528.715	9.53
528.913	9.51
529.112	9.46
529.31	9.42
529.508	9.38
529.707	9.37
529.905	9.33
530.103	9.21
530.301	9.31
530.5	9.31
530.698	9.34
530.896	9.29
531.094	9.36
531.293	9.38
531.491	9.46
531.689	9.66
531.887	9.58
532.085	9.61
532.283	9.75
532.481	9.83
532.68	9.81
532.878	9.92
533.076	9.94
533.274	9.86
533.472	9.9
533.67	9.79
533.868	9.73
534.066	9.92
534.264	9.9
534.462	9.95
534.66	9.91
534.858	10.05
535.056	10.01
535.253	10.07
535.451	10.2
535.649	10.21
535.847	10.36
536.045	10.41
536.243	10.37
536.441	10.52
536.638	10.54
536.836	10.7
537.034	10.68
537.232	10.64
537.43	10.66
537.627	10.56
537.825	10.57
538.023	10.59
538.22	10.71
538.418	10.8
538.616	10.79
538.813	10.87
539.011	10.85
539.209	10.89
539.406	10.93
539.604	10.98
539.801	11.04
539.999	11.28
540.196	11.44
540.394	11.36
540.591	11.54
540.789	11.65
540.986	11.7
541.184	11.76
541.381	11.81
541.579	11.88
541.776	11.92
541.974	12.03
542.171	12.05
542.368	12.06
542.566	12.14
542.763	11.98
542.96	11.91
543.158	11.98
543.355	11.92
543.552	11.92
543.75	11.98
543.947	11.97
544.144	12.1
544.341	12.11
544.539	12.06
544.736	12.08
544.933	12.2
545.13	12.27
545.327	12.28
545.524	12.44
545.722	12.55
545.919	12.69
546.116	12.86
546.313	12.94
546.51	13.02
546.707	13.08
546.904	13.15
547.101	13.16
547.298	13.27
547.495	13.24
547.692	13.25
547.889	13.3
548.086	13.3
548.283	13.23
548.48	13.1
548.677	13.11
548.874	13.46
549.07	13.59
549.267	13.71
549.464	13.86
549.661	13.89
549.858	13.85
550.055	13.95
550.251	14.05
550.448	14.22
550.645	14.35
550.842	14.44
551.038	14.09
551.235	14.16
551.432	14.32
551.628	14.3
551.825	14.34
552.022	14.51
552.218	14.44
552.415	14.23
552.612	14.26
552.808	14.22
553.005	14.36
553.201	14.51
553.398	14.52
553.594	14.58
553.791	14.48
553.987	14.55
554.184	14.37
554.38	14.41
554.577	14.77
554.773	15.18
554.97	15.25
555.166	15.06
555.362	14.95
555.559	14.92
555.755	14.94
555.952	15.28
556.148	15.44
556.344	15.67
556.541	15.84
556.737	15.8
556.933	15.73
557.129	15.86
557.326	16.19
557.522	16.31
557.718	16.48
557.914	16.49
558.11	16.48
558.307	16.66
558.503	17
558.699	17.17
558.895	17.4
559.091	17.27
559.287	17.28
559.483	17.22
559.679	17.27
559.876	17.28
560.072	17.05
560.268	17.2
560.464	17.13
560.66	17.07
560.856	17.09
561.052	17.03
561.247	17.19
561.443	17.44
561.639	17.67
561.835	17.9
562.031	17.84
562.227	18.32
562.423	18.5
562.619	18.64
562.815	18.46
563.01	18.46
563.206	18.69
563.402	18.7
563.598	18.57
563.793	18.45
563.989	18.69
564.185	18.93
564.381	18.92
564.576	18.85
564.772	18.81
564.968	18.96
565.163	18.99
565.359	18.98
565.555	19.13
565.75	19.14
565.946	19.16
566.141	19.06
566.337	19.14
566.532	19.22
566.728	19.46
566.923	19.5
567.119	19.71
567.314	19.84
567.51	19.91
567.705	19.88
567.901	20.07
568.096	19.96
568.292	20.09
568.487	20.31
568.682	20.42
568.878	20.31
569.073	20.59
569.268	20.77
569.464	20.93
569.659	20.86
569.854	20.97
570.05	21.03
570.245	21.36
570.44	21.33
570.635	21.16
570.831	21.19
571.026	21.27
571.221	21.29
571.416	21.26
571.611	21.27
571.806	21.43
572.002	21.36
572.197	21.55
572.392	21.67
572.587	21.82
572.782	21.95
572.977	21.87
573.172	21.92
573.367	21.98
573.562	21.94
573.757	21.94
573.952	21.8
574.147	21.97
574.342	21.8
574.537	21.91
574.732	21.85
574.927	21.92
575.121	21.94
575.316	22.06
575.511	22.09
575.706	22.29
575.901	22.37
576.096	22.5
576.29	22.51
576.485	22.4
576.68	22.21
576.875	22.27
577.069	22.23
577.264	22.33
577.459	22.24
577.654	22.2
577.848	22.13
578.043	22.08
578.238	22.33
578.432	22.48
578.627	22.9
578.821	22.67
579.016	22.63
579.21	22.72
579.405	22.95
579.6	22.85
579.794	22.77
579.989	22.74
580.183	22.85
580.378	22.69
580.572	22.64
580.766	22.45
580.961	22.96
581.155	23.08
581.35	23.06
581.544	22.75
581.738	22.84
581.933	22.91
582.127	22.77
582.321	22.89
582.516	22.77
582.71	22.76
582.904	22.95
583.099	22.98
583.293	23.14
583.487	23.34
583.681	23.7
583.875	23.83
584.07	23.91
584.264	24.19
584.458	24.18
584.652	24.51
584.846	24.6
585.04	24.41
585.234	24.43
585.428	24.17
585.623	23.96
585.817	23.81
586.011	23.93
586.205	24.17
586.399	24.08
586.593	24.22
586.787	24.16
586.981	24.18
587.174	24.49
587.368	24.43
587.562	24.43
587.756	24.61
587.95	24.62
588.144	24.38
588.338	24.19
588.532	24.26
588.725	23.93
588.919	23.96
589.113	23.81
589.307	23.63
589.501	23.52
589.694	23.76
589.888	23.61
590.082	23.71
590.275	23.73
590.469	23.79
590.663	24.09
590.856	24.48
591.05	24.49
591.244	24.8
591.437	24.79
591.631	24.74
591.824	24.64
592.018	25
592.212	25.17
592.405	25.32
592.599	25.27
592.792	25.32
592.986	25.24
593.179	25.48
593.372	25.35
593.566	25.29
593.759	25.23
593.953	25.41
594.146	25.36
594.339	25.42
594.533	25.35
594.726	25.54
594.92	25.36
595.113	25.23
595.306	25.34
595.499	25.57
595.693	25.87
595.886	26.15
596.079	26.34
596.272	26.34
596.466	26.15
596.659	26.35
596.852	26.38
597.045	26.33
597.238	26.47
597.431	26.34
597.624	26.16
597.818	26.29
598.011	26.29
598.204	26.09
598.397	25.98
598.59	26.08
598.783	26.16
598.976	25.98
599.169	26.17
599.362	26.06
599.555	26.19
599.748	26.31
599.941	26.01
600.134	26.2
600.326	26.38
600.519	26.37
600.712	26.56
600.905	26.3
601.098	26.3
601.291	26.2
601.483	26.26
601.676	26.29
601.869	26.2
602.062	26.22
602.255	26.35
602.447	26.35
602.64	26.35
602.833	26.4
603.025	26.57
603.218	26.68
603.411	26.74
603.603	26.9
603.796	26.67
603.989	26.7
604.181	26.88
604.374	26.72
604.566	26.83
604.759	27.01
604.951	26.89
605.144	27.03
605.336	27.19
605.529	27.15
605.721	27.26
605.914	27.4
606.106	27.61
606.299	27.68
606.491	27.64
606.683	27.39
606.876	27.32
607.068	27.43
607.26	27.35
607.453	27
607.645	27.12
607.837	26.96
608.03	27.29
608.222	26.92
608.414	26.63
608.606	26.73
608.799	27.02
608.991	26.88
609.183	27.04
609.375	26.74
609.567	26.82
609.759	26.83
609.952	26.88
610.144	26.83
610.336	26.97
610.528	26.95
610.72	27.05
610.912	27.02
611.104	27.01
611.296	26.77
611.488	26.88
611.68	26.76
611.872	26.82
612.064	26.55
612.256	26.32
612.448	26.56
612.64	26.79
612.832	26.66
613.023	26.54
613.215	26.94
613.407	27.23
613.599	27.42
613.791	27.5
613.983	27.44
614.174	27.87
614.366	27.96
614.558	27.61
614.75	27.81
614.941	27.81
615.133	27.36
615.325	26.85
615.516	26.43
615.708	26.56
615.9	27.08
616.091	26.97
616.283	26.9
616.475	26.97
616.666	27.18
616.858	27.02
617.049	26.97
617.241	27.34
617.432	27.79
617.624	27.93
617.815	27.77
618.007	27.34
618.198	27.3
618.39	27.08
618.581	26.95
618.773	26.8
618.964	26.79
619.155	26.72
619.347	27.2
619.538	27.26
619.729	27.05
619.921	27.01
620.112	27.31
620.303	27.79
620.494	27.8
620.686	27.92
620.877	28.34
621.068	28.6
621.259	28.93
621.451	28.51
621.642	28.29
621.833	28.58
622.024	28.87
622.215	28.69
622.406	28.24
622.597	28.13
622.788	28.13
622.98	27.79
623.171	27.38
623.362	27.08
623.553	27.03
623.744	27.05
623.935	27.16
624.126	26.72
624.317	26.81
624.508	27.03
624.698	27.41
624.889	27.55
625.08	27.39
625.271	27.59
625.462	28.1
625.653	27.99
625.844	28.05
626.034	28.2
626.225	28.49
626.416	28.47
626.607	28.67
626.798	28.55
626.988	28.65
627.179	28.72
627.37	28.78
627.56	28.54
627.751	29
627.942	29.16
628.132	29.15
628.323	29.03
628.514	29.06
628.704	28.85
628.895	28.94
629.085	28.66
629.276	28.67
629.466	28.81
629.657	28.69
629.847	28.66
630.038	28.81
630.228	28.67
630.419	28.55
630.609	28.54
630.8	28.47
630.99	28.28
631.181	28.24
631.371	28.25
631.561	28.4
631.752	28.31
631.942	28.02
632.132	27.62
632.323	28.14
632.513	28.2
632.703	27.98
632.893	28.23
633.084	28.58
633.274	28.47
633.464	28.54
633.654	28.25
633.844	28.08
634.034	28.29
634.225	28.01
634.415	27.27
634.605	27.65
634.795	28.11
634.985	28.05
635.175	27.91
635.365	28.24
635.555	28.32
635.745	28.22
635.935	28.73
636.125	28.21
636.315	28.48
636.505	28.67
636.695	28.29
636.885	27.86
637.075	27.82
637.265	28.04
637.455	28.05
637.644	28.26
637.834	28.35
638.024	28.13
638.214	28.32
638.404	28.57
638.593	28.9
638.783	29.29
638.973	29.31
639.163	29.42
639.352	29.14
639.542	29.05
639.732	28.88
639.921	28.62
640.111	28.75
640.301	29.11
640.49	28.8
640.68	28.77
640.87	28.53
641.059	28.68
641.249	28.35
641.438	28.66
641.628	28.06
641.817	28.34
642.007	28.52
642.196	28.27
642.386	28.32
642.575	28.8
642.764	28.87
642.954	29.1
643.143	29.51
643.333	29.3
643.522	29.05
643.711	29.75
643.901	29.73
644.09	29.89
644.279	29.78
644.469	29.51
644.658	28.98
644.847	29.04
645.036	28.58
645.226	28.62
645.415	28.56
645.604	28.2
645.793	27.83
645.982	27.45
646.171	27.26
646.361	26.92
646.55	27.08
646.739	27.56
646.928	27.2
647.117	27.27
647.306	27.19
647.495	27.47
647.684	28.22
647.873	28.54
648.062	28.43
648.251	28.6
648.44	29.61
648.629	29.35
648.818	29.46
649.007	29.71
649.196	29.96
649.384	29.64
649.573	29.92
649.762	29.31
649.951	29.71
650.14	30.1
650.328	30.1
650.517	29.89
650.706	29.97
650.895	30.12
651.083	29.96
651.272	30.15
651.461	29.75
651.65	29.57
651.838	30.06
652.027	29.43
652.216	29.25
652.404	29.26
652.593	28.94
652.781	28.97
652.97	28.92
653.158	28.95
653.347	29.44
653.535	30.42
653.724	30.43
653.912	30.24
654.101	30.43
654.289	30.19
654.478	30.19
654.666	30.24
654.855	30.04
655.043	30.07
655.231	30.16
655.42	29.64
655.608	29.21
655.796	29.27
655.985	29.84
656.173	29.95
656.361	29.97
656.55	29.61
656.738	30.18
656.926	31.01
657.114	30.89
657.302	31.14
657.491	31.14
657.679	31.11
657.867	30.85
658.055	30.52
658.243	30.08
658.431	30.44
658.619	30.8
658.807	30.91
658.996	30.67
659.184	30.3
659.372	30.01
659.56	29.87
659.748	29.89
659.936	30.13
660.124	29.9
660.311	30.55
660.499	30.33
660.687	30.29
660.875	30.38
661.063	30.2
661.251	30.25
661.439	30.17
661.627	29.86
661.814	29.76
662.002	29.88
662.19	29.93
662.378	29.98
662.565	29.87
662.753	29.54
662.941	28.69
663.129	28.97
663.316	29.05
663.504	29.3
663.692	29.7
663.879	30.16
664.067	29.91
664.254	29.69
664.442	29.46
664.63	30.02
664.817	30.38
665.005	30.79
665.192	30.17
665.38	30.37
665.567	29.96
665.755	29.8
665.942	29.34
666.13	29.48
666.317	30.02
666.504	29.53
666.692	29.43
666.879	29.72
667.067	29.44
667.254	29.68
667.441	29.5
667.629	29.28
667.816	29.72
668.003	29.55
668.19	28.97
668.378	28.56
668.565	28.74
668.752	28.99
668.939	28.8
669.127	28.7
669.314	28.8
669.501	29.04
669.688	28.97
669.875	28.83
670.062	28.7
670.249	29.22
670.436	29.4
670.623	29.86
670.81	29.41
670.997	29.44
671.184	29.5
671.371	30.08
671.558	29.6
671.745	30.08
671.932	29.94
672.119	30.34
672.306	31.18
672.493	31.18
672.68	30.2
672.867	30.17
673.054	30.05
673.24	30.14
673.427	29.65
673.614	30.45
673.801	30.81
673.988	31.21
674.174	31.08
674.361	30.45
674.548	30.55
674.734	30.57
674.921	30.43
675.108	30.65
675.294	31.07
675.481	30.93
675.668	30.35
675.854	29.96
676.041	30.01
676.227	29.71
676.414	29.37
676.601	29.36
676.787	30.28
676.974	31.03
677.16	30.89
677.347	30.56
677.533	30.5
677.719	30.6
677.906	30.81
678.092	30.2
678.279	30.42
678.465	30.47
678.651	30.71
678.838	30.67
679.024	30.39
679.21	30.25
679.397	30.43
679.583	30.71
679.769	30.48
679.955	30.34
680.142	30.78
680.328	30.97
680.514	31.15
680.7	30.78
680.886	30.27
681.073	30.19
681.259	30.11
681.445	30.46
681.631	30.09
681.817	30.32
682.003	30.24
682.189	30.16
682.375	30.19
682.561	30.3
682.747	30.37
682.933	30.47
683.119	30.35
683.305	30.33
683.491	29.66
683.677	30.08
683.863	30.48
684.049	30.33
684.235	30.04
684.42	30.22
684.606	29.75
684.792	30
684.978	30.7
685.164	30.71
685.349	30.88
685.535	31.29
685.721	31.31
685.907	31.31
686.092	31.89
686.278	32.06
686.464	31.56
686.649	31.88
686.835	31.58
687.021	31.36
687.206	31.79
687.392	31.46
687.577	31.53
687.763	31.37
687.948	30.98
688.134	30.68
688.319	30.43
688.505	30.74
688.69	31.13
688.876	30.64
689.061	30.9
689.247	30.48
689.432	31.42
689.618	31.01
689.803	31.21
689.988	31.14
690.174	30.95
690.359	31.25
690.544	31.24
690.73	30.82
690.915	31.55
691.1	31.23
691.285	31.74
691.471	30.96
691.656	32
691.841	31.88
692.026	32.04
692.211	32.17
692.396	31.7
692.582	31.66
692.767	32.01
692.952	31.93
693.137	31.59
693.322	30.55
693.507	31.18
693.692	30.01
693.877	29.8
694.062	30.02
694.247	30.04
694.432	30.54
694.617	30.59
694.802	30.48
694.987	30.38
695.172	30.44
695.357	31.03
695.541	30.68
695.726	31
695.911	30.71
696.096	30.63
696.281	30.87
696.466	30.87
696.65	30.7
696.835	30.37
697.02	30.33
697.204	30.37
697.389	30.34
697.574	30.74
697.759	31.03
697.943	31.69
698.128	31.83
698.312	31.78
698.497	31.25
698.682	31.34
698.866	31.47
699.051	31.87
699.235	31.97
699.42	31.91
699.604	31.47
699.789	31.1
699.973	30.86
700.158	30.42
700.342	30.73
700.527	31.27
700.711	31.69
700.895	31.78
701.08	31.37
701.264	31.44
701.448	31.72
701.633	32.04
701.817	32.21
702.001	32.31
702.186	33.35
702.37	33.5
702.554	32.96
702.738	32.46
702.923	32.02
703.107	32.24
703.291	32.52
703.475	32.54
703.659	32.6
703.843	32.19
704.027	32.04
704.212	31.42
704.396	31.63
704.58	31.74
704.764	32.21
704.948	32.88
705.132	32.54
705.316	31.98
705.5	31.69
705.684	31.19
705.868	31.42
706.052	31.18
706.235	30.56
706.419	29.47
706.603	30.35
706.787	29.56
706.971	29.23
707.155	29.94
707.339	30.09
707.522	30.29
707.706	30.8
707.89	30.48
708.074	29.42
708.257	29.78
708.441	30.81
708.625	30.59
708.808	31.1
708.992	30.81
709.176	30.18
709.359	30.41
709.543	30.62
709.727	30.1
709.91	30.37
710.094	31.84
710.277	31.94
710.461	31.04
710.644	31.2
710.828	31.14
711.011	31.34
711.195	31.42
711.378	30.92
711.562	30.62
711.745	30.6
711.928	30.41
712.112	29.69
712.295	29.73
712.478	30.03
712.662	29.84
712.845	29.93
713.028	30.34
713.212	30.01
713.395	30.89
713.578	30.9
713.761	31.08
713.945	31.4
714.128	31.9
714.311	31.73
714.494	31.48
714.677	31.52
714.86	31.42
715.043	31.05
715.227	31.3
715.41	30.88
715.593	31.35
715.776	32.19
715.959	32.35
716.142	32.19
716.325	31.83
716.508	31.44
716.691	31.41
716.874	31.52
717.057	31.33
717.239	30.95
717.422	31.09
717.605	29.93
717.788	29.39
717.971	28.39
718.154	29.55
718.337	30.4
718.519	31.07
718.702	30.78
718.885	30.66
719.068	31.64
719.25	32.61
719.433	31.67
719.616	31.34
719.798	31.05
719.981	31.89
720.164	30.27
720.346	30.21
720.529	29.99
720.712	30.71
720.894	31.57
721.077	30.82
721.259	29.54
721.442	30.42
721.624	30.78
721.807	31.17
721.989	31.29
722.172	32.5
722.354	31.7
722.537	31.58
722.719	31.82
722.901	31.25
723.084	31.02
723.266	31.74
723.448	30.89
723.631	31.66
723.813	31.94
723.995	31.84
724.178	31.79
724.36	32.82
724.542	33.29
724.724	32.86
724.907	32.08
725.089	32.99
725.271	33.36
725.453	34.38
725.635	34.6
725.817	33.29
725.999	33.95
726.181	33.11
726.364	31.87
726.546	32.34
726.728	31.53
726.91	31.46
727.092	30.23
727.274	29.57
727.456	29.39
727.638	29.27
727.819	29.91
728.001	29.51
728.183	29.81
728.365	31.24
728.547	29.75
728.729	30.69
728.911	31.64
729.093	32.51
729.274	32.67
729.456	32.5
729.638	32.66
729.82	31.79
730.001	32.05
730.183	32.09
730.365	31.94
730.546	32.61
730.728	33.42
730.91	32.83
731.091	33.07
731.273	33.23
731.455	32.89
731.636	33.59
731.818	35.97
731.999	35.64
732.181	35.14
732.362	34.1
732.544	33.9
732.725	32.38
732.907	31.93
733.088	31.54
733.27	31.85
733.451	32.05
733.633	31.21
733.814	29.83
733.995	28.37
734.177	27.72
734.358	28.5
734.539	29.48
734.721	30.32
734.902	31.47
735.083	31.56
735.264	30.92
735.446	31.55
735.627	31.02
735.808	31.05
735.989	33.99
736.17	34.34
736.351	32.82
736.533	31.46
736.714	31.28
736.895	31.27
737.076	29.99
737.257	29.51
737.438	29.1
737.619	31.15
737.8	30.86
737.981	29.08
738.162	30.33
738.343	31.59
738.524	32.72
738.705	31.05
738.886	30.57
739.067	31.32
739.247	31.04
739.428	31.59
739.609	30.72
739.79	30.67
739.971	30.35
740.151	29.37
740.332	28.21
740.513	27.2
740.694	28.51
740.874	29.45
741.055	29.85
741.236	30.82
741.417	30.18
741.597	30.1
741.778	31.12
741.958	31.62
742.139	30.59
742.32	31.77
742.5	30.88
742.681	31.56
742.861	30.23
743.042	29.78
743.222	28.38
743.403	27.76
743.583	26.77
743.764	25.34
743.944	25.17
744.124	27.02
744.305	26.73
744.485	27.38
744.666	27.62
744.846	27.89
745.026	28.52
745.207	29.78
745.387	29.88
745.567	30.86
745.747	30.82
745.928	30.77
746.108	33
746.288	32.94
746.468	33.38
746.648	33.75
746.829	33.93
747.009	33.75
747.189	34.53
747.369	36.15
747.549	36.79
747.729	35.98
747.909	36.44
748.089	35.59
748.269	35.97
748.449	36.49
748.629	34.94
748.809	35.05
748.989	35.48
749.169	35.1
749.349	32.51
749.529	31.9
749.709	32.82
749.889	33.12
750.068	31.93
750.248	33.08
750.428	33.16
750.608	33.84
750.788	33.85
750.967	31.95
751.147	32.11
751.327	33.15
751.507	33.68
751.686	33.07
751.866	32.54
752.046	32.08
752.225	31.72
752.405	31.83
752.585	31.24
752.764	31.09
752.944	31.64
753.123	31.95
753.303	32.42
753.482	31.19
753.662	31.47
753.841	31.55
754.021	30.56
754.2	29.43
754.38	29.48
754.559	28.97
754.739	27.98
754.918	28.21
755.097	26.8
755.277	27.9
755.456	26.66
755.635	27.15
755.815	27.05
755.994	28.87
756.173	28.3
756.352	27.06
756.532	27.95
756.711	28.41
756.89	28.86
757.069	29.77
757.248	27.29
757.427	30.13
757.607	29.48
757.786	29.99
757.965	28.53
758.144	28.82
758.323	30.59
758.502	29.26
758.681	27.74
758.86	26.16
759.039	25.99
759.218	27.52
759.397	26.81
759.576	26.31
759.755	24.64
759.934	25.61
760.113	26.07
760.291	25.06
760.47	26.27
760.649	28.22
760.828	28.81
761.007	29.1
761.186	29.32
761.364	29.4
761.543	29.44
761.722	31.61
761.901	32.7
762.079	32.58
762.258	32.5
762.437	34.38
762.615	35.28
762.794	35.89
762.972	35.87
763.151	35.39
763.33	35.59
763.508	36.18
763.687	35.48
763.865	34.77
764.044	35.15
764.222	34.9
764.401	32.78
764.579	31.98
764.758	32.27
764.936	31.87
765.114	31.82
765.293	31.82
765.471	31.24
765.65	31.96
765.828	31.69
766.006	29.81
766.184	29.02
766.363	29.58
766.541	30.32
766.719	31.62
766.898	33.19
767.076	32.7
767.254	31.06
767.432	31.16
767.61	30.55
767.788	29.67
767.967	32.05
768.145	35.05
768.323	34.87
768.501	33.54
768.679	31.09
768.857	29.31
769.035	29.66
769.213	32.78
769.391	32.22
769.569	30.44
769.747	32.67
769.925	32.08
770.103	30.58
770.281	30.85
770.459	32.07
770.636	33.61
770.814	34.14
770.992	35
771.17	33.59
771.348	34.09
771.525	36.83
771.703	34.22
771.881	32.99
772.059	32.9
772.236	31.35
772.414	30.11
772.592	29.8
772.769	29.93
772.947	28.82
773.125	27.49
773.302	27.77
773.48	25.12
773.657	26.68
773.835	24.7
774.013	22.58
774.19	22.28
774.368	21.44
774.545	16.8
774.723	16.74
774.9	18.58
775.077	19.26
775.255	20.97
775.432	21.88
775.61	20.16
775.787	23.67
775.964	22.95
776.142	23.32
776.319	24.16
776.496	27.72
776.674	25.69
776.851	24.36
777.028	25.02
777.205	23.2
777.382	23.19
777.56	24.62
777.737	23.36
777.914	23.8
778.091	26.97
778.268	25.89
778.445	25.38
778.622	25.75
778.8	25.73
778.977	23.58
779.154	23.55
779.331	21.79
779.508	25.54
779.685	26.33
779.862	26.02
780.038	23.59
780.215	22.81
780.392	21.28
780.569	24.72
780.746	25.99
780.923	27.99
781.1	30.35
781.277	30.64
781.453	25.26
781.63	26.13
781.807	27.82
781.984	29.23
782.16	31.83
782.337	32.68
782.514	30.37
782.691	26.91
782.867	23.52
783.044	22.54
783.221	23.02
783.397	24.41
783.574	23.7
783.75	24.53
783.927	26.34
784.103	24.86
784.28	25.2
784.456	25.55
784.633	26.23
784.809	28.45
784.986	27.48
785.162	28.53
785.339	27.64
785.515	28.81
785.692	28.37
785.868	22.39
786.044	22.12
786.221	23.31
786.397	20.56
786.573	22.28
786.749	26.24
786.926	22.74
787.102	22.06
787.278	25.77
787.454	22.56
787.631	22.94
787.807	24.71
787.983	27.17
788.159	25.89
788.335	26.58
788.511	28.12
788.687	24.74
788.863	30.6
789.039	31.23
789.216	28.23
789.392	29.35
789.568	28.01
789.744	29.93
789.919	28.9
790.095	28.5
790.271	30.48
790.447	29.53
790.623	28.18
790.799	23.03
790.975	23.45
791.151	23.99
791.327	26.37
791.502	26.7
791.678	25.79
791.854	26.62
792.03	25.89
792.205	23.39
792.381	21.56
792.557	19.22
792.733	18.58
792.908	17.81
793.084	18.03
793.259	16.84
793.435	19.04
793.611	19.41
793.786	22.4
793.962	23.36
794.137	24
794.313	22.93
794.488	27.05
794.664	31.71
794.839	30.33
795.015	29.81
795.19	28.27
795.366	25.07
795.541	22.71
795.716	18.1
795.892	17.8
796.067	16.13
796.242	17.7
796.418	18.79
796.593	15.42
796.768	18.35
796.944	16.55
797.119	15.15
797.294	16.43
797.469	17.06
797.644	16.61
797.82	16.49
797.995	20.38
798.17	19.55
798.345	20.6
798.52	23.48
798.695	23.25
798.87	26.74
799.045	27.49
799.22	21.66
799.395	20.92
799.57	24.37
799.745	24.15
799.92	20.5
800.095	18.82
800.27	13.95
800.445	14.37
800.62	13.47
800.795	12.14
800.97	14.9
801.145	22.03
801.319	21.86
801.494	17.75
801.669	17.58
801.844	17.63
802.018	20.56
802.193	20.17
802.368	19.17
802.543	21.51
802.717	18.72
802.892	21.69
803.067	22.26
803.241	23.58
803.416	25.85
803.59	25.46
803.765	26.74
803.94	24.77
804.114	27.57
804.289	22.82
804.463	15.68
804.638	18.86
804.812	14.04
804.986	8.09
805.161	6.66
805.335	5.16
805.51	2.82
805.684	4.74
805.858	3.01
806.033	1.4
806.207	3.7
806.381	9.44
806.556	9.31
806.73	11.51
806.904	16.16
807.078	16.31
807.253	17.17
807.427	23.7
807.601	21.64
807.775	26.38
807.949	27.17
808.123	28.02
808.298	27.89
808.472	27.43
808.646	30.44
808.82	29.66
808.994	31.36
809.168	31.46
809.342	27.1
809.516	28.32
809.69	24.72
809.864	26.26
810.038	21.97
810.212	20.6
810.385	18.55
810.559	14.03
810.733	11.91
810.907	12.33
811.081	10.59
811.255	13.28
811.428	12.94
811.602	8.94
811.776	11.67
811.95	18.42
812.123	16.01
812.297	19
812.471	18.65
812.644	16.44
812.818	17.69
812.992	18.27
813.165	9.74
813.339	8.59
813.512	18.43
813.686	16.59
813.86	17.85
814.033	18.95
814.207	15.4
814.38	14.77
814.554	17.1
814.727	17.67
814.9	12.85
815.074	21.12
815.247	26.47
815.421	12.71
815.594	10.82
815.767	7.06
815.941	11.26
816.114	5.78
816.287	8.23
816.46	7.44
816.634	5.08
816.807	17.25
816.98	17.34
817.153	11.46
817.327	18.72
817.5	19.77
817.673	16.58
817.846	18.13
818.019	20.77
818.192	16.99
818.365	18.75
818.538	23.62
818.711	21.82
818.884	17.38
819.057	27.2
819.23	29.12
819.403	26.18
819.576	33.32
819.749	30.45
819.922	35.59
820.095	40.07
820.268	41.61
820.441	37.69
820.614	39.19
820.786	39.53
820.959	34.31
821.132	29.97
821.305	30.27
821.477	29.31
821.65	31.45
821.823	32.1
821.996	31.39
822.168	30.91
822.341	31.77
822.514	30.73
822.686	31.25
822.859	32.35
823.031	33.44
823.204	33.71
823.376	33.46
823.549	33.26
823.722	32.33
823.894	32.65
824.067	33.2
824.239	32.24
824.411	32.82
824.584	32.6
824.756	32.21
824.929	32.34
825.101	34.12
825.273	35.1
825.446	34.62
825.618	34.63
825.79	34.66
825.963	34.76
826.135	37.64
826.307	37.78
826.479	38
826.652	38.06
826.824	38.81
826.996	37.84
827.168	37.83
827.34	36.91
827.512	35.57
827.684	35.11
827.856	33.3
828.029	31.95
828.201	30.82
828.373	31.26
828.545	31
828.717	29.41
828.889	26
829.061	24.05
829.232	23.36
829.404	23.78
829.576	23.09
829.748	25.55
829.92	24.4
830.092	24.87
830.264	20.54
830.436	21.28
830.607	20.78
830.779	19.1
830.951	18.5
831.123	19.19
831.294	22.13
831.466	25.21
831.638	23.05
831.809	19.39
831.981	11.7
832.153	18.87
832.324	12.49
832.496	15.72
832.667	23.88
832.839	25.54
833.011	26.75
833.182	26.32
833.354	26.59
833.525	27.86
833.697	27.62
833.868	34.17
834.039	31.51
834.211	33.64
834.382	33.5
834.554	30.49
834.725	29.78
834.896	28.69
835.068	30.09
835.239	25.9
835.41	21.76
835.581	22.32
835.753	19.47
835.924	22.23
836.095	19.98
836.266	18.55
836.438	16.01
836.609	14.07
836.78	16.21
836.951	11.03
837.122	12.38
837.293	10.2
837.464	11.29
837.635	10.12
837.806	7.11
837.977	5.62
838.148	7.14
838.319	8.98
838.49	7.67
838.661	10.14
838.832	17.41
839.003	16.29
839.174	26.87
839.345	34.33
839.516	31.12
839.687	26.17
839.857	31.06
840.028	29.06
840.199	35.87
840.37	29.4
840.54	20.55
840.711	14.96
840.882	14.99
841.053	11.57
841.223	11.69
841.394	7.17
841.564	5.97
841.735	-2.97
841.906	-4.96
842.076	-8.34
842.247	-4.41
842.417	-7.83
842.588	-8.32
842.758	-5.64
842.929	-5.44
843.099	-10.44
843.27	2.07
843.44	4.18
843.611	3.03
843.781	-2.79
843.951	-6.21
844.122	-8.47
844.292	-3.84
844.462	-7.66
844.633	-22.65
844.803	-50.52
844.973	-48.54
845.144	-62.16
845.314	-64.77
845.484	-26.38
845.654	-27.16
845.824	-44.09
845.995	-24.38
846.165	-13.87
846.335	-16.43
846.505	5.99
846.675	20.6
846.845	9.9
847.015	21.9
847.185	11.85
847.355	2.02
847.525	13.74
847.695	25.55
847.865	11.31
848.035	8.6
848.205	15.95
848.375	13.53
848.545	23.16
848.715	34.07
848.884	-0.31
849.054	11.8
849.224	13.72
849.394	-1.9
849.564	-10.01
849.733	-6.51
849.903	-1.13
850.073	20.24
850.243	20.48
850.412	24.17
850.582	23.74
850.752	42.74
850.921	37.25
851.091	41.27
851.26	54.87
851.43	46.57
851.599	43.97
851.769	44.92
851.939	23.78
852.108	8.73
852.278	22.4
852.447	13.6
852.616	8.56
852.786	-5.04
852.955	-28.09
853.125	-42.3
853.294	-54.57
853.463	-52.15
853.633	-43.12
853.802	-47.19
853.971	-41.4
854.141	-92.82
854.31	-64.58
854.479	-58.65
854.648	-28.39
854.818	-19.24
854.987	3.95
855.156	28.79
855.325	37.6
855.494	12.51
855.663	-211.6
855.832	-25.26
856.001	-9.17
856.171	24.33
856.34	-0.68
856.509	-72.49
856.678	-299.89
856.847	-203.1
857.016	-144.37
857.185	-45.39
857.353	-30.52
857.522	-38.79
857.691	-101.29
857.86	-173.11
858.029	-390.65
858.198	-201.11
858.367	-272.3
858.535	-721.16
858.704	-800.34
858.873	1584.25
859.042	906.23
859.21	494
859.379	-616.88
859.548	3568.77
859.717	-208.33
859.885	-121.84
860.054	-82.41
860.222	-134.5
860.391	-151.52
860.56	-87.74
860.728	-96.85
860.897	-161.32
861.065	-105.77
861.234	-169.88
861.402	-94.63
861.571	-161.97
861.739	-223.03
861.908	-152.7
862.076	-37.14
862.244	-13.05
862.413	-33.02
862.581	-0.8
862.749	11.64
862.918	5.79
863.086	10.32
863.254	-20.52
863.423	3.66
863.591	-24.08
863.759	-82.18
863.927	-122.07
864.096	-149.61
864.264	-188
864.432	-105.43
864.6	-66.12
864.768	-76.72
864.936	-140.95
865.104	369.44
865.272	281.73
865.44	-697.9
865.608	-249.4
865.776	-413.89
865.944	-321.28
866.112	-189.31
866.28	-264.27
866.448	-310.88
866.616	-437.63
866.784	-205.03
866.952	17.59
867.12	53.48
867.288	81.43
867.455	16.34
867.623	53.07
867.791	35.74
867.959	32.11
868.127	16.33
868.294	30.47
868.462	-11.56
868.63	-369.75
868.797	-1237.97
868.965	-853.21
869.133	-3984.05
869.3	-470.38
869.468	-154.19
869.636	-259.25
869.803	-147.24
869.971	-149.14
870.138	-111.93
870.306	-95.44
870.473	-39.57
870.641	-60.9
870.808	-83.06
870.975	-45.64
871.143	-50.19
871.31	-74.61
871.478	-28.5
871.645	-56.13
871.812	-44.59
871.98	-17.92
872.147	14.44
872.314	29.63
872.482	34.51
872.649	40.3
872.816	22.86
872.983	43.96
873.15	28.25
873.318	7.24
873.485	14.36
873.652	19.09
873.819	-13
873.986	-6.41
874.153	-33.58
874.32	-62.86
874.487	-184.57
874.654	-271.05
874.821	-287.67
874.988	-296.34
875.155	-170.74
875.322	-229.22
875.489	-223.43
875.656	-596.43
875.823	-1381.52
875.99	1460.39
876.157	1103.18
876.324	-2369.55
876.49	-1707.96
876.657	1026.86
876.824	1488.65
876.991	-651.76
877.157	-237.5
877.324	-138.54
877.491	-98.92
877.658	-100.73
877.824	-48.08
877.991	-13.34
878.157	-20.31
878.324	11.51
878.491	19
878.657	40.88
878.824	42.56
878.99	33.32
879.157	27.09
879.323	11.76
879.49	82.08
879.656	83.92
879.823	0.3
879.989	7.72
880.156	-128.06
880.322	-65.97
880.488	-56.71
880.655	-81.58
880.821	-122.94
880.987	-105.38
881.154	-57.51
881.32	-14.16
881.486	-7.2
881.652	-2.71
881.819	3.08
881.985	19.07
882.151	22.4
882.317	19.49
882.483	22.26
882.649	26.47
882.816	27.32
882.982	26.11
883.148	25.98
883.314	25.72
883.48	29.74
883.646	28.35
883.812	25.54
883.978	24.71
884.144	29.35
884.31	28.39
884.476	28.64
884.642	27.87
884.807	26.2
884.973	25.3
885.139	23.68
885.305	21.58
885.471	20.69
885.637	17.71
885.802	12.8
885.968	12.68
886.134	16.89
886.3	21.89
886.465	27.45
886.631	32.73
886.797	29.16
886.962	31.52
887.128	29.67
887.293	30.96
887.459	36.85
887.625	30.59
887.79	14.31
887.956	4.95
888.121	-5.87
888.287	-21.83
888.452	-22.26
888.618	-24.46
888.783	-54.89
