Data from 2937886_Reflection_2.txt Node
Date: Wed Jul 15 14:32:16 EDT 2015
User: robert
Spectrometer: USB4E03001
Autoset integration time: false
Trigger mode: 4
Integration Time (sec): 1.000000E-1
Scans to average: 10
Electric dark correction enabled: true
Nonlinearity correction enabled: false
Boxcar width: 5
Stray light correction enabled: false
XAxis mode: Wavelengths
Stop averaging: false
Number of Pixels in Spectrum: 3648
>>>>>Begin Spectral Data<<<<<
177.566	73.42
177.785	87.88
178.005	66.51
178.225	8.72
178.445	35.08
178.665	0.46
178.885	30.14
179.105	55.52
179.324	63.55
179.544	11.3
179.764	-117.16
179.984	-0.46
180.204	-5.74
180.423	2.29
180.643	-36.45
180.863	-51.43
181.083	-50.48
181.302	-32.54
181.522	22.34
181.742	30.84
181.961	30.26
182.181	74.73
182.401	100.11
182.621	338.98
182.84	225.87
183.06	209.54
183.279	162.25
183.499	189.61
183.719	876.73
183.938	189.93
184.158	177.44
184.377	80.66
184.597	115.45
184.816	106.98
185.036	72.5
185.256	46.54
185.475	79.77
185.695	68
185.914	30.08
186.134	17.31
186.353	10.19
186.572	34.83
186.792	51.96
187.011	-356.2
187.231	796.23
187.45	97.65
187.67	88.01
187.889	-187.19
188.108	30.74
188.328	194.97
188.547	100.46
188.766	31.16
188.986	-260.69
189.205	-13.14
189.424	-16.81
189.644	-25.89
189.863	-0.34
190.082	-13.49
190.302	-23.81
190.521	-15.41
190.74	10.49
190.959	24.09
191.178	35.68
191.398	72.23
191.617	71.21
191.836	64.54
192.055	91.86
192.274	94.4
192.494	125.52
192.713	158.2
192.932	109.42
193.151	124.62
193.37	113.49
193.589	159.77
193.808	25.67
194.027	78.57
194.246	20.25
194.465	55.73
194.685	57.44
194.904	66.03
195.123	44.45
195.342	22.09
195.561	33.61
195.78	24.07
195.999	22.49
196.218	28.39
196.436	42.16
196.655	11.38
196.874	-1910.96
197.093	265.21
197.312	120.97
197.531	254.2
197.75	253.05
197.969	124.55
198.188	74.26
198.407	52.31
198.625	142.57
198.844	-3.89
199.063	296.07
199.282	-93.94
199.501	43.92
199.719	-80.31
199.938	-235.67
200.157	-171.41
200.376	-173.57
200.594	-302.3
200.813	2161.1
201.032	-851.8
201.251	2690.78
201.469	-906.37
201.688	1561.93
201.907	434.73
202.125	508.9
202.344	510.94
202.563	446.36
202.781	498.11
203	-6074.11
203.218	-256.42
203.437	-275.14
203.656	-75.73
203.874	-52.65
204.093	1.7
204.311	-8.75
204.53	5.91
204.748	29.69
204.967	21
205.185	40.61
205.404	30
205.622	7.6
205.841	-8.26
206.059	26.44
206.278	46.97
206.496	42.16
206.715	53.02
206.933	53.68
207.151	50.82
207.37	55.41
207.588	39.3
207.806	41.03
208.025	40.39
208.243	76.58
208.461	31.36
208.68	-175.38
208.898	-36.69
209.116	32.4
209.335	-208.22
209.553	-28.77
209.771	-12.17
209.989	33.63
210.208	35.44
210.426	59.01
210.644	34.1
210.862	33.37
211.081	47.41
211.299	12.65
211.517	-14.2
211.735	-34.29
211.953	-69.64
212.171	-122.31
212.39	-597.65
212.608	-172.62
212.826	-152.24
213.044	-211.4
213.262	-113.25
213.48	-159.3
213.698	-104.93
213.916	-73.46
214.134	-44.86
214.352	1.19
214.57	-3.36
214.788	38.95
215.006	32.46
215.224	36.27
215.442	55.52
215.66	74.65
215.878	73.83
216.096	91.24
216.314	45.26
216.532	78.09
216.75	95.86
216.968	122.05
217.185	126.64
217.403	76.31
217.621	98.71
217.839	114.35
218.057	104.06
218.275	105.34
218.492	97.77
218.71	119.14
218.928	75.77
219.146	55.14
219.363	68.45
219.581	65.05
219.799	77.93
220.017	77.75
220.234	71.45
220.452	58.91
220.67	81.91
220.887	-2.66
221.105	8.24
221.323	51.32
221.54	114.43
221.758	16.64
221.976	-9.62
222.193	72.28
222.411	65.36
222.629	66.49
222.846	67.99
223.064	41.64
223.281	52.33
223.499	57.11
223.716	38.37
223.934	34.22
224.151	37.15
224.369	43.02
224.586	20.79
224.804	9.07
225.021	14
225.239	-0.83
225.456	4.09
225.674	4.6
225.891	-10.9
226.108	-10.01
226.326	-20.85
226.543	-13.33
226.76	-15.37
226.978	3.24
227.195	6.65
227.413	-5.44
227.63	5.94
227.847	8.99
228.064	12.2
228.282	19.62
228.499	21.83
228.716	24.42
228.934	25.22
229.151	21.59
229.368	20.12
229.585	21.42
229.802	21.32
230.02	20.07
230.237	19.2
230.454	16.59
230.671	13.88
230.888	15
231.105	10.76
231.323	10.08
231.54	7.12
231.757	8.88
231.974	7.15
232.191	10.18
232.408	14.62
232.625	17.02
232.842	24.47
233.059	22.22
233.276	16.47
233.493	27.75
233.71	20.91
233.927	22.83
234.144	17.48
234.361	21.67
234.578	20.81
234.795	19.64
235.012	18.33
235.229	14.1
235.446	17.15
235.663	20.17
235.879	13.44
236.096	15.76
236.313	18.6
236.53	16.3
236.747	16.31
236.964	17.96
237.181	22.73
237.397	26.29
237.614	27.17
237.831	23
238.048	21.6
238.264	19.31
238.481	30.68
238.698	26.6
238.915	39.07
239.131	30.17
239.348	24.08
239.565	21.92
239.781	22.5
239.998	21.32
240.215	23.03
240.431	24.98
240.648	23.23
240.865	17.81
241.081	20.06
241.298	15.27
241.514	17.44
241.731	18.31
241.947	15.77
242.164	14.2
242.38	16.76
242.597	15.59
242.814	14.35
243.03	16.48
243.246	15.34
243.463	15.03
243.679	15.42
243.896	15.02
244.112	15.9
244.329	15.88
244.545	16.23
244.762	13.06
244.978	14.9
245.194	15.87
245.411	13.23
245.627	15.04
245.843	13.5
246.06	14.52
246.276	15.27
246.492	13.3
246.709	14.99
246.925	14.39
247.141	15.03
247.357	14.78
247.574	14.37
247.79	14.03
248.006	14.08
248.222	15.54
248.439	14.58
248.655	13.87
248.871	14.19
249.087	13.58
249.303	14.38
249.519	14.36
249.736	15
249.952	15.42
250.168	18.03
250.384	17.66
250.6	15.27
250.816	15.62
251.032	18.44
251.248	20.52
251.464	18.76
251.68	18.8
251.896	18.35
252.112	14.53
252.328	13.14
252.544	14.39
252.76	12.82
252.976	13.21
253.192	13.34
253.408	11.72
253.624	8.56
253.84	7.59
254.056	5.51
254.272	5.51
254.487	9.61
254.703	9.58
254.919	4.81
255.135	7.86
255.351	8.49
255.567	7.75
255.782	9.74
255.998	12.73
256.214	11.89
256.43	13.8
256.646	10.67
256.861	9.21
257.077	11.98
257.293	12.91
257.508	13.53
257.724	10.3
257.94	10.95
258.155	11.1
258.371	11.72
258.587	11.85
258.802	11.45
259.018	12.12
259.234	12.2
259.449	10.76
259.665	10.09
259.88	8.95
260.096	10.57
260.312	10.82
260.527	10.34
260.743	10.18
260.958	10.78
261.174	10.73
261.389	10.68
261.605	9.31
261.82	9.14
262.036	9.69
262.251	10.86
262.466	8.56
262.682	7.09
262.897	6.57
263.113	5.87
263.328	7.5
263.543	7.99
263.759	7.73
263.974	8.03
264.189	9.73
264.405	9.54
264.62	10.21
264.835	12.11
265.051	12.61
265.266	13.36
265.481	13.63
265.696	11.26
265.912	9.36
266.127	7.37
266.342	7.74
266.557	8.45
266.773	7.74
266.988	7.53
267.203	7.39
267.418	8.07
267.633	7.5
267.848	7.58
268.064	7.56
268.279	8.53
268.494	10.08
268.709	10.97
268.924	8.99
269.139	11.29
269.354	10.52
269.569	9.23
269.784	8.2
269.999	9.42
270.214	8.97
270.429	8.22
270.644	8.03
270.859	6.75
271.074	7.15
271.289	7.69
271.504	6.86
271.719	6.8
271.934	6.63
272.149	6.87
272.363	6.99
272.578	6.1
272.793	5.88
273.008	6.17
273.223	8.74
273.438	8.49
273.653	9.2
273.867	10.62
274.082	10.24
274.297	9.96
274.512	10.16
274.726	8.99
274.941	9.89
275.156	12.23
275.371	10.2
275.585	6.94
275.8	5.93
276.015	5.09
276.229	1.76
276.444	1.24
276.659	1.66
276.873	0.95
277.088	2.88
277.302	2.78
277.517	2.39
277.732	3.44
277.946	3.85
278.161	4.21
278.375	3.61
278.59	3.29
278.804	3.03
279.019	4.78
279.233	4.78
279.448	2
279.662	2.33
279.877	-0.17
280.091	0.88
280.306	1.32
280.52	1.34
280.735	1.39
280.949	3.01
281.163	4.71
281.378	4.54
281.592	3.94
281.806	4.24
282.021	6.14
282.235	7.15
282.449	6.96
282.664	8.15
282.878	10.59
283.092	11.5
283.307	11.5
283.521	12.63
283.735	14.03
283.949	14.51
284.164	16.09
284.378	14.9
284.592	16.02
284.806	16.13
285.02	15.19
285.234	13.47
285.449	12.86
285.663	11.46
285.877	10.02
286.091	10.02
286.305	11.48
286.519	10.39
286.733	10.26
286.947	9.31
287.161	9.17
287.375	10.45
287.589	10.99
287.803	11.51
288.017	12.22
288.231	12.86
288.445	12.04
288.659	10.62
288.873	10.39
289.087	10.42
289.301	9.14
289.515	8.55
289.729	6.37
289.943	6.03
290.157	6.3
290.371	7.14
290.584	4.9
290.798	3.9
291.012	3.09
291.226	2.36
291.44	1.05
291.654	2.78
291.867	3.25
292.081	4.09
292.295	3.51
292.509	3.83
292.722	5
292.936	8.02
293.15	10.53
293.364	13.36
293.577	14.16
293.791	14.71
294.005	14.59
294.218	15.22
294.432	14.28
294.645	14.3
294.859	12.74
295.073	11.84
295.286	11.52
295.5	10.13
295.713	9
295.927	8.68
296.14	9.65
296.354	10.41
296.568	10.34
296.781	11.13
296.994	11.1
297.208	11.75
297.421	12.14
297.635	11.08
297.848	11.64
298.062	11.4
298.275	11.77
298.489	12
298.702	11.21
298.915	9.87
299.129	10.85
299.342	10.83
299.555	11
299.769	10.41
299.982	11.48
300.195	9.21
300.409	10.25
300.622	11.83
300.835	10.11
301.048	9.88
301.262	11.96
301.475	11.63
301.688	12.8
301.901	13.54
302.115	13.86
302.328	13.08
302.541	14.73
302.754	13.22
302.967	12.31
303.18	12.04
303.393	13.58
303.607	12.86
303.82	10.69
304.033	9.99
304.246	7.75
304.459	7.04
304.672	8.47
304.885	9.48
305.098	9.85
305.311	11.98
305.524	15.02
305.737	12.96
305.95	13.43
306.163	16.2
306.376	18.16
306.589	20.54
306.802	20.48
307.015	20.2
307.228	18.54
307.44	18.91
307.653	16.95
307.866	15.32
308.079	15.18
308.292	13.3
308.505	12.06
308.718	8.81
308.93	7.03
309.143	6.7
309.356	5.72
309.569	5.15
309.781	6.72
309.994	5.31
310.207	5.91
310.42	7.2
310.632	9.43
310.845	9.16
311.058	11.19
311.27	11.78
311.483	11.85
311.696	12.65
311.908	12.87
312.121	10.79
312.333	11.2
312.546	11.08
312.759	11.49
312.971	10.62
313.184	9.46
313.396	8.71
313.609	8.85
313.821	11.07
314.034	10.94
314.246	12.45
314.459	14.79
314.671	14.43
314.884	14.25
315.096	13.07
315.309	11.72
315.521	15.05
315.733	14.72
315.946	14.74
316.158	14.37
316.371	13.65
316.583	12.99
316.795	12.88
317.008	13.32
317.22	13.99
317.432	14.32
317.644	16.05
317.857	14.15
318.069	14.13
318.281	13.78
318.494	12.2
318.706	12.55
318.918	12.16
319.13	9.51
319.342	10.88
319.555	9.65
319.767	8.88
319.979	8.92
320.191	10.14
320.403	9.74
320.615	9.38
320.827	8.91
321.039	10.33
321.252	12.11
321.464	13.42
321.676	14.36
321.888	14.1
322.1	14.93
322.312	14.64
322.524	15.16
322.736	15.89
322.948	16.3
323.16	17.6
323.372	15.96
323.584	15.6
323.796	15.54
324.007	13.42
324.219	13.72
324.431	14.15
324.643	13.85
324.855	12.98
325.067	12.57
325.279	11.43
325.491	9.78
325.702	11.41
325.914	11.01
326.126	11.8
326.338	10.76
326.55	10.7
326.761	11.09
326.973	10.35
327.185	10.22
327.396	10.54
327.608	10.93
327.82	11.1
328.032	9.26
328.243	7.04
328.455	6.33
328.666	9.27
328.878	10.22
329.09	7.93
329.301	8.91
329.513	8.21
329.725	7.14
329.936	8.51
330.148	8.81
330.359	8.88
330.571	9.6
330.782	9.84
330.994	7.63
331.205	7.43
331.417	8.35
331.628	7.19
331.84	8.07
332.051	10.01
332.262	9.28
332.474	8.72
332.685	8.54
332.897	9.55
333.108	8.89
333.319	9.65
333.531	8.58
333.742	7.86
333.953	8.68
334.165	8.62
334.376	7.96
334.587	7.35
334.799	8.69
335.01	9.78
335.221	9.56
335.432	11.02
335.644	11.11
335.855	12.09
336.066	13.02
336.277	13.61
336.488	13.33
336.7	12.67
336.911	11.7
337.122	12.16
337.333	11.29
337.544	11.98
337.755	10.64
337.966	10.12
338.177	9.31
338.388	9.09
338.599	9.07
338.811	9.82
339.022	10.57
339.233	13.39
339.444	12.2
339.655	13.03
339.866	13.4
340.076	14.93
340.287	15.72
340.498	16.78
340.709	17.19
340.92	16.53
341.131	16.6
341.342	15.97
341.553	14.99
341.764	15.43
341.975	15.69
342.185	15.42
342.396	14.8
342.607	13.85
342.818	12.12
343.029	12.89
343.239	13.75
343.45	13.87
343.661	12.65
343.872	13.48
344.082	14.95
344.293	14.77
344.504	13.98
344.714	12.24
344.925	13.28
345.136	14.09
345.346	13.17
345.557	13.01
345.768	14.47
345.978	16.71
346.189	16.15
346.399	14.5
346.61	14.07
346.821	14.63
347.031	15.71
347.242	16.03
347.452	16.5
347.663	16.17
347.873	15.4
348.084	12.89
348.294	12.8
348.504	11.74
348.715	12.59
348.925	12.73
349.136	12.14
349.346	11.21
349.557	10.29
349.767	9.97
349.977	10.53
350.188	11.24
350.398	10.95
350.608	10.78
350.819	11.76
351.029	10.42
351.239	10.83
351.449	11.33
351.66	11.94
351.87	13.03
352.08	13.1
352.29	12.82
352.501	13.91
352.711	15.19
352.921	14.39
353.131	14.49
353.341	15.35
353.552	14.97
353.762	14.56
353.972	15.72
354.182	16.05
354.392	16.2
354.602	17.75
354.812	16.42
355.022	15.96
355.232	16.46
355.442	16.67
355.652	16.54
355.862	17.45
356.072	18.28
356.282	17.89
356.492	17.36
356.702	16.71
356.912	14.82
357.122	14.86
357.332	15.32
357.542	14.74
357.752	14.37
357.962	14.08
358.171	13.93
358.381	12.93
358.591	12.8
358.801	12.32
359.011	12.03
359.221	12.72
359.43	12.78
359.64	11.52
359.85	12.67
360.06	13.78
360.269	13.83
360.479	12.96
360.689	13.21
360.899	13.34
361.108	13.5
361.318	12.95
361.528	12.98
361.737	11.84
361.947	12.33
362.156	11.22
362.366	10.19
362.576	9.16
362.785	8.74
362.995	8.38
363.204	7.45
363.414	6.43
363.623	7.61
363.833	7.43
364.042	8.66
364.252	8.98
364.461	8.86
364.671	8.26
364.88	9.08
365.09	9.54
365.299	11.04
365.509	10.95
365.718	11.38
365.927	11.27
366.137	10.41
366.346	10.78
366.555	10.34
366.765	11.29
366.974	11.95
367.183	11.7
367.393	10.54
367.602	9.16
367.811	9.37
368.021	9.02
368.23	9.16
368.439	8.95
368.648	8.36
368.857	8.66
369.067	8.43
369.276	7.79
369.485	7.32
369.694	8.74
369.903	8.49
370.112	9.45
370.321	10.39
370.531	10.67
370.74	11.88
370.949	11.22
371.158	10.55
371.367	10.17
371.576	9.88
371.785	10.41
371.994	10.45
372.203	10.15
372.412	9.62
372.621	9.56
372.83	8.85
373.039	8.38
373.248	9.22
373.457	8.95
373.666	9.44
373.874	9.64
374.083	9.81
374.292	9.82
374.501	10.19
374.71	10.21
374.919	9.69
375.128	10.48
375.336	10.22
375.545	9.45
375.754	10.06
375.963	9.54
376.171	9.94
376.38	10.68
376.589	10.89
376.798	11
377.006	11.21
377.215	11.35
377.424	11.2
377.632	11.03
377.841	11.72
378.05	11.19
378.258	11.38
378.467	11.35
378.675	10.98
378.884	10.66
379.093	10.85
379.301	10.59
379.51	10.69
379.718	10.1
379.927	10.55
380.135	10.33
380.344	10.4
380.552	9.89
380.761	10.17
380.969	10.23
381.177	10.36
381.386	10.23
381.594	10.57
381.803	10.84
382.011	10.51
382.219	10.43
382.428	10.23
382.636	10.55
382.845	10.71
383.053	10.83
383.261	10.63
383.469	10.23
383.678	10.58
383.886	10.18
384.094	9.6
384.302	9.85
384.511	9.64
384.719	9.51
384.927	9.06
385.135	8.73
385.343	8.58
385.552	9.02
385.76	9.07
385.968	8.31
386.176	8.46
386.384	8.78
386.592	8.4
386.8	8.44
387.008	8.51
387.216	8.39
387.424	8.51
387.633	7.96
387.841	7.5
388.049	7.56
388.257	7.81
388.465	7.63
388.672	6.83
388.88	6.71
389.088	6.35
389.296	6.65
389.504	7.04
389.712	7.05
389.92	6.95
390.128	7
390.336	6.82
390.544	6.6
390.751	6.48
390.959	6.54
391.167	6.95
391.375	7.44
391.583	7.21
391.79	7.08
391.998	7.34
392.206	7.62
392.414	7.26
392.621	7.32
392.829	7.16
393.037	6.84
393.244	7.4
393.452	7.32
393.66	7.23
393.867	6.97
394.075	6.74
394.283	6.72
394.49	6.65
394.698	6.96
394.905	6.74
395.113	6.85
395.32	6.9
395.528	6.52
395.735	6.51
395.943	6.42
396.15	6.86
396.358	6.95
396.565	6.79
396.773	6.85
396.98	6.24
397.188	6.46
397.395	6.49
397.602	6.85
397.81	6.81
398.017	6.64
398.225	6.04
398.432	5.54
398.639	5.45
398.847	5.38
399.054	5.25
399.261	5.43
399.468	5.43
399.676	5.6
399.883	5.76
400.09	6.17
400.297	6.34
400.505	6.7
400.712	6.35
400.919	6.32
401.126	6.45
401.333	6.58
401.54	6.53
401.748	6.36
401.955	5.88
402.162	6.01
402.369	5.56
402.576	5.19
402.783	5.1
402.99	5.44
403.197	5.41
403.404	5.11
403.611	5.14
403.818	5.17
404.025	5.12
404.232	5.36
404.439	5.09
404.646	5.06
404.853	5
405.06	4.94
405.267	5.17
405.474	5.24
405.681	5.37
405.887	5.21
406.094	5.6
406.301	5.77
406.508	6.1
406.715	6.17
406.922	6.42
407.128	6.71
407.335	6.83
407.542	6.63
407.749	6.82
407.955	6.8
408.162	6.61
408.369	6.32
408.575	6.51
408.782	6.2
408.989	6.14
409.195	6.33
409.402	6.06
409.609	6.33
409.815	6.19
410.022	5.85
410.228	5.91
410.435	6.39
410.642	6.3
410.848	6.09
411.055	5.9
411.261	5.88
411.468	5.37
411.674	5.83
411.881	5.76
412.087	6.05
412.294	6.29
412.5	6.47
412.706	6.01
412.913	6.22
413.119	6.53
413.326	6.98
413.532	7.02
413.738	7.32
413.945	7.07
414.151	6.92
414.357	6.76
414.564	6.76
414.77	6.66
414.976	6.61
415.182	6.29
415.389	5.96
415.595	5.8
415.801	5.81
416.007	5.69
416.214	5.7
416.42	5.61
416.626	5.74
416.832	5.64
417.038	5.69
417.244	5.74
417.45	5.87
417.657	5.78
417.863	5.78
418.069	5.74
418.275	5.62
418.481	5.57
418.687	5.7
418.893	5.83
419.099	6.04
419.305	5.88
419.511	5.92
419.717	6.12
419.923	6.09
420.129	6.06
420.335	5.98
420.541	6.06
420.746	6.05
420.952	6.08
421.158	5.82
421.364	5.5
421.57	5.5
421.776	5.63
421.982	5.46
422.187	5.41
422.393	5.38
422.599	5.27
422.805	5.25
423.01	5.21
423.216	5.11
423.422	5.29
423.628	5.38
423.833	5.42
424.039	5.28
424.245	5.36
424.45	5.42
424.656	5.41
424.862	5.6
425.067	5.62
425.273	5.65
425.478	5.58
425.684	5.15
425.889	5.27
426.095	5.27
426.301	5.59
426.506	5.49
426.712	5.58
426.917	5.64
427.123	5.49
427.328	5.54
427.533	5.62
427.739	5.58
427.944	6.02
428.15	6.01
428.355	5.85
428.561	5.34
428.766	5.11
428.971	5.08
429.177	5.01
429.382	4.73
429.587	4.54
429.793	4.49
429.998	4.47
430.203	4.56
430.408	4.74
430.614	5.03
430.819	4.98
431.024	4.94
431.229	4.94
431.434	5.13
431.64	5.28
431.845	5.51
432.05	5.47
432.255	5.72
432.46	5.77
432.665	5.51
432.87	5.32
433.076	5.29
433.281	5.6
433.486	5.63
433.691	5.61
433.896	5.93
434.101	5.8
434.306	6.09
434.511	5.9
434.716	5.7
434.921	5.87
435.126	5.9
435.331	6
435.535	5.87
435.74	5.91
435.945	5.69
436.15	5.51
436.355	5.39
436.56	4.93
436.765	4.94
436.97	4.88
437.174	4.7
437.379	4.85
437.584	4.98
437.789	5.04
437.993	4.81
438.198	4.72
438.403	4.82
438.608	4.82
438.812	5.04
439.017	5.02
439.222	5.21
439.426	5.28
439.631	5.16
439.836	5.05
440.04	5.17
440.245	5.12
440.45	5.26
440.654	5.22
440.859	5.24
441.063	5.02
441.268	5.1
441.472	4.97
441.677	4.87
441.881	4.85
442.086	4.85
442.29	4.78
442.495	4.84
442.699	4.93
442.904	4.79
443.108	4.9
443.312	4.88
443.517	4.9
443.721	4.87
443.925	4.94
444.13	4.93
444.334	5.07
444.538	4.97
444.743	5.08
444.947	4.96
445.151	5.16
445.356	5.08
445.56	5.33
445.764	5.29
445.968	5.3
446.173	5.34
446.377	5.51
446.581	5.36
446.785	5.54
446.989	5.6
447.193	5.62
447.398	5.64
447.602	5.67
447.806	5.64
448.01	5.61
448.214	5.61
448.418	5.57
448.622	5.56
448.826	5.7
449.03	5.56
449.234	5.38
449.438	5.29
449.642	5.07
449.846	5.19
450.05	5.03
450.254	5.13
450.458	5.04
450.662	5.3
450.866	5.26
451.069	5.17
451.273	5.18
451.477	5.16
451.681	5.34
451.885	5.56
452.089	5.59
452.292	5.73
452.496	5.73
452.7	5.76
452.904	5.54
453.107	5.28
453.311	5.2
453.515	5.11
453.719	5.19
453.922	5.1
454.126	5.14
454.33	5.09
454.533	4.97
454.737	5.09
454.94	5.27
455.144	5.27
455.348	5.47
455.551	5.57
455.755	5.71
455.958	5.6
456.162	5.53
456.365	5.34
456.569	5.19
456.772	5.3
456.976	5.05
457.179	4.99
457.383	5.06
457.586	4.95
457.79	4.87
457.993	4.82
458.196	4.82
458.4	4.76
458.603	4.62
458.807	4.75
459.01	4.69
459.213	4.92
459.417	4.74
459.62	4.68
459.823	4.76
460.026	4.74
460.23	4.8
460.433	4.95
460.636	5.08
460.839	5.22
461.042	5.3
461.246	5.31
461.449	5.15
461.652	5.33
461.855	5.47
462.058	5.4
462.261	5.59
462.464	5.6
462.668	5.44
462.871	5.35
463.074	5.37
463.277	5.16
463.48	5.24
463.683	5.29
463.886	5.37
464.089	5.56
464.292	5.77
464.495	5.66
464.698	5.43
464.901	5.38
465.104	5.52
465.306	5.35
465.509	5.4
465.712	5.42
465.915	5.43
466.118	5.33
466.321	5.11
466.524	4.99
466.726	5
466.929	5.2
467.132	5.48
467.335	5.33
467.538	5.38
467.74	5.45
467.943	5.43
468.146	5.36
468.348	5.33
468.551	5.22
468.754	5.17
468.956	4.87
469.159	4.85
469.362	4.98
469.564	4.96
469.767	4.98
469.969	4.85
470.172	4.98
470.375	5.09
470.577	5.04
470.78	5.12
470.982	5.02
471.185	5.34
471.387	5.33
471.59	5.04
471.792	5.22
471.995	5.35
472.197	5.42
472.399	5.3
472.602	5.11
472.804	5.11
473.007	5.02
473.209	5.31
473.411	5.07
473.614	4.95
473.816	5.01
474.018	5.02
474.22	4.96
474.423	4.81
474.625	4.68
474.827	4.71
475.03	4.99
475.232	4.92
475.434	4.93
475.636	5.15
475.838	5.12
476.04	5.12
476.243	4.87
476.445	4.95
476.647	4.86
476.849	4.76
477.051	4.9
477.253	4.8
477.455	4.9
477.657	4.83
477.859	4.93
478.061	4.83
478.263	4.9
478.465	5.02
478.667	5.05
478.869	5.16
479.071	5.17
479.273	5.03
479.475	4.97
479.677	4.63
479.879	4.48
480.081	4.42
480.283	4.52
480.485	4.6
480.686	4.61
480.888	4.43
481.09	4.57
481.292	4.74
481.494	4.91
481.695	4.91
481.897	5.14
482.099	5.28
482.301	5.14
482.502	5.25
482.704	5.1
482.906	4.98
483.107	4.97
483.309	4.95
483.511	4.91
483.712	4.88
483.914	4.82
484.115	4.75
484.317	4.67
484.519	4.7
484.72	4.62
484.922	4.6
485.123	4.67
485.325	4.67
485.526	4.57
485.728	4.54
485.929	4.58
486.131	4.69
486.332	4.82
486.534	4.85
486.735	4.92
486.936	4.97
487.138	4.99
487.339	4.92
487.541	4.91
487.742	4.97
487.943	4.99
488.144	4.97
488.346	4.97
488.547	4.98
488.748	5.01
488.95	4.97
489.151	4.9
489.352	4.91
489.553	4.97
489.755	5.02
489.956	5.04
490.157	5.08
490.358	4.98
490.559	4.97
490.76	4.91
490.961	4.87
491.163	4.85
491.364	4.92
491.565	4.82
491.766	4.79
491.967	4.87
492.168	4.9
492.369	4.89
492.57	4.88
492.771	4.8
492.972	4.82
493.173	4.81
493.374	4.77
493.575	4.66
493.776	4.85
493.976	4.82
494.177	4.74
494.378	4.58
494.579	4.5
494.78	4.36
494.981	4.3
495.182	4.18
495.382	4.36
495.583	4.37
495.784	4.42
495.985	4.33
496.185	4.39
496.386	4.4
496.587	4.66
496.788	4.78
496.988	5.11
497.189	5.14
497.39	5.15
497.59	5.13
497.791	5.23
497.992	5.12
498.192	5.16
498.393	5.25
498.593	5.21
498.794	5.14
498.994	5.23
499.195	4.98
499.395	4.97
499.596	4.96
499.796	4.84
499.997	4.89
500.197	5.12
500.398	5.17
500.598	5.16
500.799	5.31
500.999	5.27
501.199	5.05
501.4	5.23
501.6	5.37
501.801	5.45
502.001	5.49
502.201	5.34
502.402	5.4
502.602	5.3
502.802	5.25
503.002	5.08
503.203	5.23
503.403	5.53
503.603	5.6
503.803	5.65
504.003	5.7
504.204	5.75
504.404	5.73
504.604	5.56
504.804	5.42
505.004	5.51
505.204	5.4
505.404	5.29
505.604	4.88
505.804	4.88
506.005	4.71
506.205	4.79
506.405	4.75
506.605	4.8
506.805	4.97
507.005	5.28
507.204	5.28
507.404	5.3
507.604	5.21
507.804	5.39
508.004	5.32
508.204	5.41
508.404	5.42
508.604	5.33
508.804	5.43
509.003	5.37
509.203	5.35
509.403	5.42
509.603	5.59
509.803	5.69
510.002	5.73
510.202	5.84
510.402	5.88
510.602	5.85
510.801	5.86
511.001	5.83
511.201	5.97
511.4	5.9
511.6	5.81
511.8	5.69
511.999	5.66
512.199	5.68
512.398	5.58
512.598	5.67
512.797	5.65
512.997	5.72
513.197	5.67
513.396	5.59
513.596	5.55
513.795	5.51
513.994	5.64
514.194	5.74
514.393	5.78
514.593	5.79
514.792	5.65
514.992	5.75
515.191	5.74
515.39	5.91
515.59	5.98
515.789	6.13
515.988	6.17
516.188	6.15
516.387	6.08
516.586	6.14
516.786	6.14
516.985	6.2
517.184	6.08
517.383	6.24
517.582	6.18
517.782	6.23
517.981	6.24
518.18	6.34
518.379	6.5
518.578	6.58
518.777	6.59
518.976	6.64
519.176	6.75
519.375	6.8
519.574	6.71
519.773	6.72
519.972	6.78
520.171	6.71
520.37	6.66
520.569	6.52
520.768	6.44
520.967	6.54
521.166	6.65
521.365	6.63
521.564	6.69
521.762	6.8
521.961	6.97
522.16	6.92
522.359	7.09
522.558	7.18
522.757	7.37
522.956	7.5
523.154	7.55
523.353	7.5
523.552	7.48
523.751	7.53
523.949	7.65
524.148	7.77
524.347	7.73
524.546	7.71
524.744	7.76
524.943	7.61
525.142	7.63
525.34	7.47
525.539	7.38
525.737	7.4
525.936	7.36
526.135	7.24
526.333	7.2
526.532	7.29
526.73	7.28
526.929	7.3
527.127	7.48
527.326	7.48
527.524	7.66
527.723	7.73
527.921	7.77
528.12	7.76
528.318	7.84
528.516	7.82
528.715	7.8
528.913	7.84
529.112	7.85
529.31	7.81
529.508	7.82
529.707	7.78
529.905	7.84
530.103	7.88
530.301	7.99
530.5	8
530.698	8
530.896	8.08
531.094	8.15
531.293	8.11
531.491	8.13
531.689	8.14
531.887	8.12
532.085	8.12
532.283	8.16
532.481	8.15
532.68	8.18
532.878	8.22
533.076	8.21
533.274	8.12
533.472	8.25
533.67	8.25
533.868	8.35
534.066	8.44
534.264	8.36
534.462	8.34
534.66	8.28
534.858	8.26
535.056	8.23
535.253	8.3
535.451	8.47
535.649	8.54
535.847	8.64
536.045	8.58
536.243	8.61
536.441	8.82
536.638	8.86
536.836	8.95
537.034	8.96
537.232	9.17
537.43	9.14
537.627	9.12
537.825	9.11
538.023	9.1
538.22	9.24
538.418	9.17
538.616	9.29
538.813	9.26
539.011	9.41
539.209	9.51
539.406	9.48
539.604	9.48
539.801	9.54
539.999	9.68
540.196	9.65
540.394	9.64
540.591	9.76
540.789	9.75
540.986	9.89
541.184	9.88
541.381	9.82
541.579	9.88
541.776	9.94
541.974	9.95
542.171	9.8
542.368	9.87
542.566	9.89
542.763	9.84
542.96	9.82
543.158	9.77
543.355	9.76
543.552	9.82
543.75	9.79
543.947	9.87
544.144	9.84
544.341	10.09
544.539	10.05
544.736	10.06
544.933	10.09
545.13	10.18
545.327	10.28
545.524	10.25
545.722	10.27
545.919	10.45
546.116	10.44
546.313	10.46
546.51	10.32
546.707	10.49
546.904	10.55
547.101	10.68
547.298	10.53
547.495	10.38
547.692	10.47
547.889	10.42
548.086	10.23
548.283	10.28
548.48	10.51
548.677	10.7
548.874	10.65
549.07	10.69
549.267	10.64
549.464	10.93
549.661	11.04
549.858	11.11
550.055	11.31
550.251	11.35
550.448	11.44
550.645	11.44
550.842	11.38
551.038	11.35
551.235	11.48
551.432	11.49
551.628	11.6
551.825	11.61
552.022	11.75
552.218	11.87
552.415	11.99
552.612	12.07
552.808	12.08
553.005	12.13
553.201	12.11
553.398	12.08
553.594	12.15
553.791	12.13
553.987	12.16
554.184	12.08
554.38	12.22
554.577	12.11
554.773	11.95
554.97	12.01
555.166	12.17
555.362	12.26
555.559	12.11
555.755	12.11
555.952	12.17
556.148	12.47
556.344	12.57
556.541	12.5
556.737	12.84
556.933	13.23
557.129	13.06
557.326	13.21
557.522	13.54
557.718	13.7
557.914	13.95
558.11	14.03
558.307	14.18
558.503	14.17
558.699	14.31
558.895	14.32
559.091	14.23
559.287	14.29
559.483	14.11
559.679	14.1
559.876	14.14
560.072	13.93
560.268	13.77
560.464	13.66
560.66	13.72
560.856	13.73
561.052	13.56
561.247	13.26
561.443	13.24
561.639	13.44
561.835	13.38
562.031	13.31
562.227	13.45
562.423	13.48
562.619	13.43
562.815	13.33
563.01	13.34
563.206	13.6
563.402	13.95
563.598	14.08
563.793	14.02
563.989	14
564.185	14.26
564.381	14.36
564.576	14.36
564.772	14.5
564.968	14.73
565.163	14.77
565.359	14.75
565.555	14.8
565.75	14.82
565.946	15.1
566.141	15.08
566.337	15
566.532	14.92
566.728	15.2
566.923	15.38
567.119	15.48
567.314	15.6
567.51	15.66
567.705	15.55
567.901	15.58
568.096	15.18
568.292	15.39
568.487	15.53
568.682	15.73
568.878	15.71
569.073	15.61
569.268	15.53
569.464	15.6
569.659	15.5
569.854	15.76
570.05	15.8
570.245	15.93
570.44	15.73
570.635	15.78
570.831	15.81
571.026	15.78
571.221	15.84
571.416	15.92
571.611	15.85
571.806	16.02
572.002	15.97
572.197	15.9
572.392	15.81
572.587	15.89
572.782	15.93
572.977	15.91
573.172	15.76
573.367	15.78
573.562	15.66
573.757	15.67
573.952	15.55
574.147	15.62
574.342	15.92
574.537	15.95
574.732	16.04
574.927	15.83
575.121	15.71
575.316	15.8
575.511	15.63
575.706	15.86
575.901	15.82
576.096	15.89
576.29	15.67
576.485	15.74
576.68	15.94
576.875	15.94
577.069	16.16
577.264	16.28
577.459	16.3
577.654	16.33
577.848	16.12
578.043	16.19
578.238	16.25
578.432	16.13
578.627	15.89
578.821	15.63
579.016	15.75
579.21	15.67
579.405	15.8
579.6	15.8
579.794	15.95
579.989	15.87
580.183	15.99
580.378	15.97
580.572	16.32
580.766	16.38
580.961	16.54
581.155	16.38
581.35	16.57
581.544	16.49
581.738	16.58
581.933	16.81
582.127	17.36
582.321	17.19
582.516	17.33
582.71	17.36
582.904	17.39
583.099	17.49
583.293	17.62
583.487	17.78
583.681	17.95
583.875	18.04
584.07	17.75
584.264	17.6
584.458	17.73
584.652	17.56
584.846	17.69
585.04	17.61
585.234	17.6
585.428	17.55
585.623	17.33
585.817	17.24
586.011	16.78
586.205	16.99
586.399	16.93
586.593	16.8
586.787	16.98
586.981	16.7
587.174	16.73
587.368	16.69
587.562	16.82
587.756	16.56
587.95	16.73
588.144	17.19
588.338	17.22
588.532	17.24
588.725	17.39
588.919	17.31
589.113	17.66
589.307	17.89
589.501	18.02
589.694	17.76
589.888	18.2
590.082	18.11
590.275	18.21
590.469	18.19
590.663	18.02
590.856	18.03
591.05	18.32
591.244	18.2
591.437	18.01
591.631	18.04
591.824	18.36
592.018	18.16
592.212	18.23
592.405	17.97
592.599	17.93
592.792	18.09
592.986	18.12
593.179	17.74
593.372	17.67
593.566	17.89
593.759	17.86
593.953	17.8
594.146	17.79
594.339	17.68
594.533	17.88
594.726	17.73
594.92	17.75
595.113	17.79
595.306	17.97
595.499	17.82
595.693	17.9
595.886	17.91
596.079	17.88
596.272	17.86
596.466	17.99
596.659	18.04
596.852	18.21
597.045	18.12
597.238	18.16
597.431	18.18
597.624	18.43
597.818	18.28
598.011	18.48
598.204	18.71
598.397	18.69
598.59	18.36
598.783	18.42
598.976	18.39
599.169	18.56
599.362	18.25
599.555	18.05
599.748	17.63
599.941	17.69
600.134	17.59
600.326	17.43
600.519	17.82
600.712	18.24
600.905	18.22
601.098	18.11
601.291	18.25
601.483	18.34
601.676	18.44
601.869	18.79
602.062	18.66
602.255	18.47
602.447	18.69
602.64	18.76
602.833	18.71
603.025	18.54
603.218	18.61
603.411	18.48
603.603	18.74
603.796	18.74
603.989	18.92
604.181	18.96
604.374	18.78
604.566	18.51
604.759	18.15
604.951	18.07
605.144	18.16
605.336	18.22
605.529	18.29
605.721	18.06
605.914	18.14
606.106	17.86
606.299	18.02
606.491	18.39
606.683	18.51
606.876	18.45
607.068	18.43
607.26	18.35
607.453	18.19
607.645	18.07
607.837	18.32
608.03	18.38
608.222	18.52
608.414	18.25
608.606	18.05
608.799	18.21
608.991	18.63
609.183	18.58
609.375	18.59
609.567	18.69
609.759	18.64
609.952	18.56
610.144	18.47
610.336	18.49
610.528	18.69
610.72	18.79
610.912	18.53
611.104	18.4
611.296	18.44
611.488	18.46
611.68	18.35
611.872	18.46
612.064	18.61
612.256	18.66
612.448	18.37
612.64	18.09
612.832	18.03
613.023	18.45
613.215	18.33
613.407	18.81
613.599	18.99
613.791	18.91
613.983	18.85
614.174	18.51
614.366	18.51
614.558	18.93
614.75	19.22
614.941	18.89
615.133	18.53
615.325	19.06
615.516	18.71
615.708	18.49
615.9	19.01
616.091	18.81
616.283	18.95
616.475	18.85
616.666	18.57
616.858	18.18
617.049	18.69
617.241	18.46
617.432	18.33
617.624	18.4
617.815	18.23
618.007	17.75
618.198	18.26
618.39	18.26
618.581	18.4
618.773	18.4
618.964	18.83
619.155	18.97
619.347	19.45
619.538	19.27
619.729	19.16
619.921	19.8
620.112	20.08
620.303	19.78
620.494	19.83
620.686	19.62
620.877	19.82
621.068	19.63
621.259	19
621.451	19
621.642	19.33
621.833	19.43
622.024	19.12
622.215	19.2
622.406	19.23
622.597	19.34
622.788	19.24
622.98	19.42
623.171	19.7
623.362	20.22
623.553	20.04
623.744	19.55
623.935	19.57
624.126	19.56
624.317	19.82
624.508	20.28
624.698	19.89
624.889	20.08
625.08	20.01
625.271	19.83
625.462	19.92
625.653	19.78
625.844	20.05
626.034	19.84
626.225	19.65
626.416	19.27
626.607	18.53
626.798	19.08
626.988	19.06
627.179	18.89
627.37	19.12
627.56	18.68
627.751	18.84
627.942	18.84
628.132	18.95
628.323	18.83
628.514	18.74
628.704	19.21
628.895	18.98
629.085	18.85
629.276	18.85
629.466	18.87
629.657	19.22
629.847	19.28
630.038	19.12
630.228	18.87
630.419	19.18
630.609	19.55
630.8	19.39
630.99	19.13
631.181	19.48
631.371	19.72
631.561	19.63
631.752	19.77
631.942	20.09
632.132	20.49
632.323	20.94
632.513	20.75
632.703	20.44
632.893	20.73
633.084	21.17
633.274	21.28
633.464	20.96
633.654	21.03
633.844	20.66
634.034	20.38
634.225	20.41
634.415	20.55
634.605	20.88
634.795	21.2
634.985	21.15
635.175	20.72
635.365	20.28
635.555	20.65
635.745	20.59
635.935	20.78
636.125	20.78
636.315	20.75
636.505	20.33
636.695	20.36
636.885	20.14
637.075	19.82
637.265	20.55
637.455	20.74
637.644	20.34
637.834	20.04
638.024	19.94
638.214	19.54
638.404	19
638.593	19.18
638.783	19.45
638.973	19.64
639.163	19.75
639.352	19.24
639.542	19.69
639.732	19.44
639.921	19.73
640.111	19.47
640.301	20.03
640.49	19.87
640.68	20.11
640.87	19.56
641.059	19.23
641.249	19.44
641.438	19.11
641.628	18.78
641.817	19.15
642.007	19.22
642.196	19.31
642.386	19.37
642.575	19.64
642.764	18.94
642.954	19.16
643.143	19.08
643.333	18.99
643.522	19.26
643.711	19.48
643.901	19.83
644.09	19.37
644.279	19.43
644.469	19.22
644.658	19.23
644.847	19.86
645.036	19.48
645.226	19.67
645.415	19.76
645.604	19.65
645.793	19.43
645.982	19.11
646.171	19.04
646.361	19.39
646.55	19.15
646.739	19
646.928	18.66
647.117	18.96
647.306	19.27
647.495	19.37
647.684	19.73
647.873	19.82
648.062	20.16
648.251	20.41
648.44	20.13
648.629	20.31
648.818	21.03
649.007	21.24
649.196	21.07
649.384	21.11
649.573	20.61
649.762	20.54
649.951	20.01
650.14	19.89
650.328	19.95
650.517	20.42
650.706	20.5
650.895	20.19
651.083	20.15
651.272	20.02
651.461	19.75
651.65	20.14
651.838	19.62
652.027	20.23
652.216	19.97
652.404	20.14
652.593	19.87
652.781	19.58
652.97	19.64
653.158	19.4
653.347	19.78
653.535	19.94
653.724	19.78
653.912	20.09
654.101	19.66
654.289	20.22
654.478	20.37
654.666	20.46
654.855	21.18
655.043	20.79
655.231	21.6
655.42	21.77
655.608	21.72
655.796	21.81
655.985	21.88
656.173	22.16
656.361	22
656.55	22.11
656.738	22.22
656.926	22.29
657.114	22.22
657.302	21.84
657.491	22.02
657.679	22.25
657.867	22.52
658.055	22.28
658.243	22.43
658.431	22.55
658.619	22.4
658.807	22.4
658.996	22.09
659.184	22.26
659.372	22.28
659.56	22.24
659.748	21.93
659.936	21.74
660.124	22.16
660.311	22.02
660.499	21.57
660.687	21.58
660.875	21.39
661.063	21.56
661.251	21.94
661.439	21.92
661.627	21.85
661.814	22.22
662.002	22.16
662.19	22.33
662.378	22.23
662.565	22.47
662.753	22.12
662.941	22.19
663.129	21.8
663.316	21.01
663.504	20.62
663.692	20.23
663.879	19.74
664.067	19.73
664.254	18.71
664.442	18.49
664.63	18.44
664.817	18.56
665.005	18.37
665.192	18.62
665.38	19.07
665.567	19.53
665.755	19.59
665.942	19.42
666.13	19.03
666.317	19.73
666.504	20.28
666.692	20.91
666.879	21
667.067	21.19
667.254	20.93
667.441	21.6
667.629	21.45
667.816	21.64
668.003	21.81
668.19	22.56
668.378	22.39
668.565	22.09
668.752	21.05
668.939	20.91
669.127	21.19
669.314	21.61
669.501	20.62
669.688	20.62
669.875	20.62
670.062	20.79
670.249	20.44
670.436	20.35
670.623	20.1
670.81	21.01
670.997	21.36
671.184	21.25
671.371	21.28
671.558	21.34
671.745	21.7
671.932	21.86
672.119	22.04
672.306	22.37
672.493	22.82
672.68	23.34
672.867	22.84
673.054	22.62
673.24	21.93
673.427	21.69
673.614	21.81
673.801	21.7
673.988	21.33
674.174	21.21
674.361	21.36
674.548	20.97
674.734	20.41
674.921	20.31
675.108	20.99
675.294	21.27
675.481	20.93
675.668	21.21
675.854	21.11
676.041	21.38
676.227	21.28
676.414	20.37
676.601	20.4
676.787	20.36
676.974	20.36
677.16	19.52
677.347	19.85
677.533	19.64
677.719	19.57
677.906	19.33
678.092	19.61
678.279	19.86
678.465	20.34
678.651	20.65
678.838	21
679.024	21.1
679.21	21.35
679.397	21.37
679.583	21.86
679.769	21.75
679.955	21.25
680.142	20.48
680.328	20.53
680.514	20.45
680.7	20.43
680.886	20.49
681.073	20.53
681.259	20.08
681.445	20
681.631	19.63
681.817	19.75
682.003	20.44
682.189	20.99
682.375	20.92
682.561	21.21
682.747	21.45
682.933	21.52
683.119	21.58
683.305	22.03
683.491	21.72
683.677	22.66
683.863	22.49
684.049	22.38
684.235	22.84
684.42	22.85
684.606	22.65
684.792	22.56
684.978	22.69
685.164	22.54
685.349	22.58
685.535	23.05
685.721	22.24
685.907	22.45
686.092	22.13
686.278	21.64
686.464	21.51
686.649	21.84
686.835	21.76
687.021	21.56
687.206	21.4
687.392	21.84
687.577	21.86
687.763	22.65
687.948	22.65
688.134	23.18
688.319	22.76
688.505	22.85
688.69	22.08
688.876	21.86
689.061	21.94
689.247	22.25
689.432	21.87
689.618	21.62
689.803	21.01
689.988	21.07
690.174	20.5
690.359	20.66
690.544	20.26
690.73	20.1
690.915	20.9
691.1	21.44
691.285	21.27
691.471	22.02
691.656	22.23
691.841	22.09
692.026	21.99
692.211	22.31
692.396	22.66
692.582	22.9
692.767	23.3
692.952	22.5
693.137	22.53
693.322	22.41
693.507	21.53
693.692	21.66
693.877	21.83
694.062	21.72
694.247	22.28
694.432	22.17
694.617	21.8
694.802	22.54
694.987	22.31
695.172	22.15
695.357	22.44
695.541	22.31
695.726	21.84
695.911	21.92
696.096	22.1
696.281	22.26
696.466	21.69
696.65	21.87
696.835	21.24
697.02	21.29
697.204	21.06
697.389	21.45
697.574	21.07
697.759	21.26
697.943	20.84
698.128	21.21
698.312	20.5
698.497	20.84
698.682	21.4
698.866	21.7
699.051	22.01
699.235	21.73
699.42	21.19
699.604	21.56
699.789	21.41
699.973	21.86
700.158	21.5
700.342	22.04
700.527	22.4
700.711	22.39
700.895	22.24
701.08	22.58
701.264	23.26
701.448	23.63
701.633	23.63
701.817	24.14
702.001	23.63
702.186	23.75
702.37	23.56
702.554	22.55
702.738	22.16
702.923	21.88
703.107	21.12
703.291	20.79
703.475	20.71
703.659	21.18
703.843	21.22
704.027	21.68
704.212	20.58
704.396	20.14
704.58	20.82
704.764	20.38
704.948	20.7
705.132	20.27
705.316	19.98
705.5	20.02
705.684	19.44
705.868	18.87
706.052	18.67
706.235	19.74
706.419	19.75
706.603	19.77
706.787	20.34
706.971	21.04
707.155	21.67
707.339	21.9
707.522	21.63
707.706	22.25
707.89	22.25
708.074	23.07
708.257	23.88
708.441	24.51
708.625	24.71
708.808	24.4
708.992	24.15
709.176	23.8
709.359	23.52
709.543	23.86
709.727	23.27
709.91	23.12
710.094	22.98
710.277	22.5
710.461	21.96
710.644	21.61
710.828	22.03
711.011	21.84
711.195	22.22
711.378	22.12
711.562	22.44
711.745	21.98
711.928	21.83
712.112	20.65
712.295	19.66
712.478	19.66
712.662	19.23
712.845	19.26
713.028	18.92
713.212	18.07
713.395	18.22
713.578	17.71
713.761	18.66
713.945	19.01
714.128	19.54
714.311	20.31
714.494	20.57
714.677	21.06
714.86	21.3
715.043	21.77
715.227	22.33
715.41	22.47
715.593	23.07
715.776	22.76
715.959	22.9
716.142	23.11
716.325	24.03
716.508	23.67
716.691	23.19
716.874	23.06
717.057	22.23
717.239	22.27
717.422	22.64
717.605	22.04
717.788	22.29
717.971	22.55
718.154	23.03
718.337	21.48
718.519	21.73
718.702	21.98
718.885	21.76
719.068	22.8
719.25	21.7
719.433	21.79
719.616	22.66
719.798	21.79
719.981	21.61
720.164	21.41
720.346	22.27
720.529	22.63
720.712	22.97
720.894	22.67
721.077	21.63
721.259	22.86
721.442	21.91
721.624	21.1
721.807	21.82
721.989	22.16
722.172	21.88
722.354	21.73
722.537	19.96
722.719	20.42
722.901	20.47
723.084	21.54
723.266	20.94
723.448	21.98
723.631	21.7
723.813	22.36
723.995	22.06
724.178	22.42
724.36	22.13
724.542	23.08
724.724	23.11
724.907	23.99
725.089	23.26
725.271	22.64
725.453	22.27
725.635	22.53
725.817	20.95
725.999	20.68
726.181	20.85
726.364	20.61
726.546	21.01
726.728	21.41
726.91	20.02
727.092	19.3
727.274	20.63
727.456	20.02
727.638	20.08
727.819	21.43
728.001	22.15
728.183	21.54
728.365	21.75
728.547	21.78
728.729	20.58
728.911	21.53
729.093	21.74
729.274	21.95
729.456	23.62
729.638	23.8
729.82	23.97
730.001	24.09
730.183	24.7
730.365	24.58
730.546	24.97
730.728	25.79
730.91	25.36
731.091	25.89
731.273	25.46
731.455	24.3
731.636	24.92
731.818	24.54
731.999	24.37
732.181	24.05
732.362	24.07
732.544	23.44
732.725	22.89
732.907	22.9
733.088	23.16
733.27	23.51
733.451	23.09
733.633	22.99
733.814	23.65
733.995	23.82
734.177	23.33
734.358	23.36
734.539	23.72
734.721	24.35
734.902	24.28
735.083	24.05
735.264	22.62
735.446	23.65
735.627	23.23
735.808	22.39
735.989	20.5
736.17	20.47
736.351	19.23
736.533	19.81
736.714	20.3
736.895	19.43
737.076	20.14
737.257	22.39
737.438	22.11
737.619	22.14
737.8	23.26
737.981	24.55
738.162	24.74
738.343	26.87
738.524	27.38
738.705	26.39
738.886	28.1
739.067	27.28
739.247	27.18
739.428	26.53
739.609	27.28
739.79	26.25
739.971	26.64
740.151	26.37
740.332	25.43
740.513	24.81
740.694	25.68
740.874	24.76
741.055	25.08
741.236	25.31
741.417	25.7
741.597	25.44
741.778	25.33
741.958	24.78
742.139	26.92
742.32	25.92
742.5	25.72
742.681	24.54
742.861	23.99
743.042	23.23
743.222	21.9
743.403	21.86
743.583	20.85
743.764	20.47
743.944	22.07
744.124	20.7
744.305	22.21
744.485	21.47
744.666	23.17
744.846	22.78
745.026	23.95
745.207	24.56
745.387	25.12
745.567	26.55
745.747	26.72
745.928	24.57
746.108	24.68
746.288	24.16
746.468	24.33
746.648	22.9
746.829	23.64
747.009	23.48
747.189	22.89
747.369	22.54
747.549	19.98
747.729	20.82
747.909	20.75
748.089	21.31
748.269	19.52
748.449	21.12
748.629	21.84
748.809	22.5
748.989	23.41
749.169	23.24
749.349	22.32
749.529	23.18
749.709	22.69
749.889	24.29
750.068	22.74
750.248	25.81
750.428	25.11
750.608	24.96
750.788	25.19
750.967	24.79
751.147	25.98
751.327	27.87
751.507	27.88
751.686	27.72
751.866	27.03
752.046	26.92
752.225	24.14
752.405	23.62
752.585	24.08
752.764	23.22
752.944	22.22
753.123	21.4
753.303	21.66
753.482	21.61
753.662	21.24
753.841	20.84
754.021	21.85
754.2	24.28
754.38	24.94
754.559	24.85
754.739	24.6
754.918	24.4
755.097	25.24
755.277	23.23
755.456	23.15
755.635	24.44
755.815	25.19
755.994	26.54
756.173	25.11
756.352	25.31
756.532	25.6
756.711	26.26
756.89	26.71
757.069	26.72
757.248	27.12
757.427	26.67
757.607	26.26
757.786	26.2
757.965	25.07
758.144	25.99
758.323	25.4
758.502	25.68
758.681	25.14
758.86	24.92
759.039	25.22
759.218	25.95
759.397	26.65
759.576	25.96
759.755	26.16
759.934	26.55
760.113	26.77
760.291	25.96
760.47	24.79
760.649	24.29
760.828	25.61
761.007	24.41
761.186	23.64
761.364	23.88
761.543	24.99
761.722	23.59
761.901	22.72
762.079	22.37
762.258	23.4
762.437	23.92
762.615	24.75
762.794	24.19
762.972	23.54
763.151	22.36
763.33	22.56
763.508	21.6
763.687	22.3
763.865	22.32
764.044	21.91
764.222	21.97
764.401	21.31
764.579	21.49
764.758	21.38
764.936	22.8
765.114	24.16
765.293	23.97
765.471	25.71
765.65	25.32
765.828	26.71
766.006	27.46
766.184	27.63
766.363	28.78
766.541	28.56
766.719	29.19
766.898	27.93
767.076	27.56
767.254	27.91
767.432	25.74
767.61	25.61
767.788	24.73
767.967	24.46
768.145	24.69
768.323	21.59
768.501	21.23
768.679	19.94
768.857	20.96
769.035	21.14
769.213	21.87
769.391	22.7
769.569	23.94
769.747	22.88
769.925	23.44
770.103	23.3
770.281	26.94
770.459	26.08
770.636	27.47
770.814	28.66
770.992	28.04
771.17	26.81
771.348	25.65
771.525	24.21
771.703	24.85
771.881	23.66
772.059	21.89
772.236	21.24
772.414	21.38
772.592	22.28
772.769	22.89
772.947	24.24
773.125	25.14
773.302	27.35
773.48	27.62
773.657	26.02
773.835	26.23
774.013	28.55
774.19	28.87
774.368	31.02
774.545	30.02
774.723	27.4
774.9	25.73
775.077	26.91
775.255	27.4
775.432	26.22
775.61	28.9
775.787	29.8
775.964	30.1
776.142	28.36
776.319	28.07
776.496	26.18
776.674	26.23
776.851	26.11
777.028	21.41
777.205	20.6
777.382	22.71
777.56	22.65
777.737	24
777.914	23.81
778.091	25.27
778.268	24.01
778.445	23.91
778.622	25.89
778.8	27.19
778.977	28.08
779.154	26.7
779.331	26.82
779.508	27.39
779.685	29.26
779.862	29.22
780.038	27.77
780.215	26.12
780.392	27.23
780.569	25.42
780.746	24.74
780.923	27.58
781.1	26.86
781.277	27.58
781.453	27.83
781.63	24.07
781.807	21.28
781.984	24.2
782.16	27.67
782.337	26.96
782.514	27.17
782.691	28.36
782.867	27.3
783.044	28.73
783.221	25.82
783.397	23.52
783.574	24.06
783.75	25.71
783.927	25
784.103	24.19
784.28	26.93
784.456	22.95
784.633	19.97
784.809	20.47
784.986	19.81
785.162	24.16
785.339	24.69
785.515	24.38
785.692	26.07
785.868	23.56
786.044	22.21
786.221	18.86
786.397	22.52
786.573	22.86
786.749	22.49
786.926	22.56
787.102	17.28
787.278	21.53
787.454	21.98
787.631	20.89
787.807	22.47
787.983	20.06
788.159	22.58
788.335	22.17
788.511	25.96
788.687	26.33
788.863	25.92
789.039	26.51
789.216	22.52
789.392	22.75
789.568	21.97
789.744	20.03
789.919	22.58
790.095	19.97
790.271	21.01
790.447	19.11
790.623	20.61
790.799	21.93
790.975	23.83
791.151	23.41
791.327	22.3
791.502	19.7
791.678	22.28
791.854	23.31
792.03	24.61
792.205	24.66
792.381	24.98
792.557	23.5
792.733	25.37
792.908	25.84
793.084	26.26
793.259	26.09
793.435	31.18
793.611	30.93
793.786	32.74
793.962	34.69
794.137	34.68
794.313	34.61
794.488	32.29
794.664	28.64
794.839	27.82
795.015	30.57
795.19	26.97
795.366	26.61
795.541	26.8
795.716	23.44
795.892	21.05
796.067	21.65
796.242	22.03
796.418	21.17
796.593	20.08
796.768	23.03
796.944	22.39
797.119	26.22
797.294	26.85
797.469	26.73
797.644	27.69
797.82	26.92
797.995	24.71
798.17	25.1
798.345	27.23
798.52	27.39
798.695	26.98
798.87	24.53
799.045	23.65
799.22	20.26
799.395	19.73
799.57	18.34
799.745	21.26
799.92	24.95
800.095	22.55
800.27	25.14
800.445	27.56
800.62	24.71
800.795	26.52
800.97	24.63
801.145	24.69
801.319	24.31
801.494	24.71
801.669	26.91
801.844	25.29
802.018	27.24
802.193	24.33
802.368	23.47
802.543	24.25
802.717	23.48
802.892	25.91
803.067	26.48
803.241	22.8
803.416	25.74
803.59	27.5
803.765	28.4
803.94	24.56
804.114	28.31
804.289	28.53
804.463	28.55
804.638	28.27
804.812	26.99
804.986	28.35
805.161	29.64
805.335	30.18
805.51	24.72
805.684	24.87
805.858	28.63
806.033	27.38
806.207	29.61
806.381	28.62
806.556	30.38
806.73	29.62
806.904	29.33
807.078	26.42
807.253	24.9
807.427	24.46
807.601	23.79
807.775	24.34
807.949	20.89
808.123	16.65
808.298	18.58
808.472	16.9
808.646	22.46
808.82	23.93
808.994	28.09
809.168	28.06
809.342	30.52
809.516	26.51
809.69	26.55
809.864	27.76
810.038	27.97
810.212	27.67
810.385	31.21
810.559	25.77
810.733	22.04
810.907	22.23
811.081	20.09
811.255	23.46
811.428	24.55
811.602	21.59
811.776	20.82
811.95	22.19
812.123	21.19
812.297	17.68
812.471	23.49
812.644	26.53
812.818	30.26
812.992	36.78
813.165	40.66
813.339	44.27
813.512	48.38
813.686	44.58
813.86	43.43
814.033	45.47
814.207	45.06
814.38	44.88
814.554	46.44
814.727	38.4
814.9	34.53
815.074	24.4
815.247	23.34
815.421	20.17
815.594	24.23
815.767	25.13
815.941	19.66
816.114	19.58
816.287	16.33
816.46	13.75
816.634	21.7
816.807	17.3
816.98	17.78
817.153	18.62
817.327	19.22
817.5	24.21
817.673	21.98
817.846	23.75
818.019	23.43
818.192	25.68
818.365	20.91
818.538	20.57
818.711	24.97
818.884	22.67
819.057	18.06
819.23	17.85
819.403	15.96
819.576	20.93
819.749	26.36
819.922	24.11
820.095	22.57
820.268	26.44
820.441	27.53
820.614	29.57
820.786	28.84
820.959	29.26
821.132	27.84
821.305	25.93
821.477	24.62
821.65	24.36
821.823	25.35
821.996	26.36
822.168	26.57
822.341	25.62
822.514	25.25
822.686	26.08
822.859	25.82
823.031	26.27
823.204	26.28
823.376	27.64
823.549	27.47
823.722	27.84
823.894	28.39
824.067	28.34
824.239	27.41
824.411	27.21
824.584	27.78
824.756	28.5
824.929	28.05
825.101	27.8
825.273	25.33
825.446	25.16
825.618	24.95
825.79	23.67
825.963	23.85
826.135	26.08
826.307	26.79
826.479	26.04
826.652	25.89
826.824	25.93
826.996	25.92
827.168	26.96
827.34	25.64
827.512	23.93
827.684	22.66
827.856	22.67
828.029	22.61
828.201	21.68
828.373	20.78
828.545	20.36
828.717	19.28
828.889	19.9
829.061	18.07
829.232	19.86
829.404	21
829.576	20.63
829.748	17.99
829.92	17.48
830.092	17.22
830.264	19.37
830.436	20.97
830.607	22.43
830.779	22.7
830.951	23.55
831.123	19.74
831.294	20.42
831.466	22.27
831.638	22.62
831.809	20.38
831.981	20.22
832.153	20.18
832.324	15.75
832.496	17.36
832.667	15.24
832.839	16.83
833.011	24.13
833.182	22.31
833.354	23.08
833.525	23.77
833.697	24.58
833.868	25.02
834.039	23.53
834.211	27.58
834.382	26.75
834.554	29.12
834.725	29.4
834.896	25.62
835.068	25.57
835.239	23.14
835.41	23.84
835.581	20.01
835.753	18.89
835.924	20.1
836.095	19.17
836.266	19.53
836.438	17.25
836.609	17.97
836.78	22.1
836.951	21.46
837.122	24.69
837.293	24.28
837.464	29.92
837.635	31.53
837.806	30.27
837.977	28.46
838.148	29.92
838.319	31.98
838.49	26.75
838.661	23.03
838.832	28.69
839.003	25.46
839.174	25.54
839.345	27.63
839.516	29.71
839.687	29.77
839.857	30.02
840.028	23.3
840.199	18.34
840.37	21.08
840.54	27.11
840.711	30.07
840.882	35.69
841.053	36.62
841.223	31.65
841.394	30.46
841.564	32.28
841.735	29.39
841.906	33.84
842.076	37.03
842.247	41.63
842.417	35.44
842.588	30.11
842.758	22.58
842.929	24.67
843.099	28.24
843.27	27.41
843.44	28.57
843.611	34.14
843.781	36.9
843.951	32.62
844.122	22.15
844.292	20.91
844.462	22.97
844.633	28.84
844.803	33.52
844.973	23.86
845.144	30.62
845.314	34.18
845.484	34.98
845.654	26.45
845.824	35.78
845.995	48.07
846.165	47.68
846.335	43.46
846.505	42.44
846.675	36.44
846.845	44.32
847.015	37.27
847.185	2.15
847.355	4.44
847.525	2.83
847.695	-8.13
847.865	-11.63
848.035	-4.91
848.205	-1.52
848.375	-3.21
848.545	-6.88
848.715	-2.96
848.884	-5.16
849.054	17.36
849.224	15.12
849.394	16.61
849.564	15.16
849.733	6.49
849.903	9.99
850.073	11.12
850.243	11.72
850.412	13.03
850.582	17.28
850.752	14.41
850.921	6.22
851.091	-0.49
851.26	4.82
851.43	2.84
851.599	21.46
851.769	19.7
851.939	31.65
852.108	32.83
852.278	31.06
852.447	24.53
852.616	23.14
852.786	12.05
852.955	13.66
853.125	12.61
853.294	8.31
853.463	-10.17
853.633	-3.38
853.802	-33.45
853.971	-34.12
854.141	-17.79
854.31	-15.09
854.479	-10.98
854.648	13.13
854.818	30
854.987	38.1
855.156	53.35
855.325	70.73
855.494	57.79
855.663	61.18
855.832	84.32
856.001	61.57
856.171	57.19
856.34	65.69
856.509	49.92
856.678	48.7
856.847	59.36
857.016	46.05
857.185	40.23
857.353	35.48
857.522	33.43
857.691	17.9
857.86	31.1
858.029	37.2
858.198	37.36
858.367	45.64
858.535	43.26
858.704	40.46
858.873	45.02
859.042	41.34
859.21	43.53
859.379	56.04
859.548	59.03
859.717	57.27
859.885	66.78
860.054	63.56
860.222	63.43
860.391	61.09
860.56	49.39
860.728	43.73
860.897	55.52
861.065	53.24
861.234	45.96
861.402	47.07
861.571	50.91
861.739	34.95
861.908	35.74
862.076	26.24
862.244	18.41
862.413	7.61
862.581	23.66
862.749	31.88
862.918	40.57
863.086	16.97
863.254	-16.96
863.423	-25.66
863.591	-6.32
863.759	-13.24
863.927	6.54
864.096	13.51
864.264	25.22
864.432	14.08
864.6	-1.66
864.768	3.07
864.936	16.73
865.104	25.18
865.272	38.22
865.44	44.2
865.608	36.47
865.776	19.08
865.944	11.56
866.112	8.21
866.28	4.74
866.448	-3.28
866.616	-24.15
866.784	4.64
866.952	-0.65
867.12	-2.79
867.288	-7.73
867.455	-8.39
867.623	19.26
867.791	33.92
867.959	33.95
868.127	41.73
868.294	34.18
868.462	36.96
868.63	17.5
868.797	29.17
868.965	21.69
869.133	29.26
869.3	30.08
869.468	20.85
869.636	12.95
869.803	32.22
869.971	17
870.138	31.19
870.306	30.65
870.473	49.49
870.641	62.15
870.808	68.73
870.975	58.31
871.143	45.1
871.31	61.66
871.478	47.74
871.645	56.32
871.812	69.27
871.98	73.87
872.147	88.05
872.314	79.96
872.482	61.9
872.649	62.25
872.816	57.72
872.983	58.13
873.15	44.96
873.318	51.46
873.485	43.94
873.652	38.58
873.819	23.26
873.986	11.25
874.153	7.52
874.32	8.87
874.487	7.19
874.654	6.99
874.821	17.67
874.988	22.85
875.155	14.32
875.322	11.77
875.489	-0.49
875.656	5.73
875.823	9.13
875.99	14.83
876.157	26.97
876.324	37.22
876.49	37.14
876.657	19
876.824	13.03
876.991	24.23
877.157	-18.38
877.324	8.8
877.491	-5.87
877.658	-6.16
877.824	0.3
877.991	-0.16
878.157	-25.06
878.324	-3.27
878.491	12.5
878.657	24.53
878.824	26.23
878.99	55.38
879.157	48.26
879.323	50.21
879.49	47.47
879.656	37.12
879.823	19.61
879.989	27.14
880.156	18.9
880.322	9.4
880.488	10.81
880.655	8.32
880.821	-7.42
880.987	-12.56
881.154	-20.45
881.32	-8.17
881.486	-10.34
881.652	1
881.819	5.37
881.985	8.98
882.151	15.71
882.317	19.97
882.483	24.65
882.649	29.73
882.816	28.09
882.982	31.27
883.148	27.34
883.314	30.35
883.48	30.24
883.646	28.52
883.812	28.99
883.978	31.31
884.144	27.66
884.31	27.55
884.476	26.96
884.642	28.65
884.807	25.76
884.973	26.1
885.139	23.21
885.305	28.6
885.471	28.24
885.637	30.05
885.802	27.39
885.968	30.91
886.134	25.08
886.3	24.52
886.465	26.01
886.631	31.41
886.797	26.53
886.962	33.09
887.128	27.64
887.293	28.02
887.459	22.18
887.625	19.65
887.79	15.82
887.956	29.69
888.121	31.47
888.287	21.27
888.452	13.43
888.618	33.16
888.783	16.89
