Data from 2937823_Reflection_1.txt Node
Date: Wed Jul 15 17:11:16 EDT 2015
User: robert
Spectrometer: USB4E03001
Autoset integration time: false
Trigger mode: 4
Integration Time (sec): 1.000000E-1
Scans to average: 10
Electric dark correction enabled: true
Nonlinearity correction enabled: false
Boxcar width: 5
Stray light correction enabled: false
XAxis mode: Wavelengths
Stop averaging: false
Number of Pixels in Spectrum: 3648
>>>>>Begin Spectral Data<<<<<
177.566	-122.29
177.785	-47.33
178.005	-89.81
178.225	5292.5
178.445	-95.63
178.665	67.72
178.885	-90.98
179.105	0.95
179.324	-157.26
179.544	-608.03
179.764	78.92
179.984	-5.51
180.204	3.08
180.423	-58.88
180.643	-700.84
180.863	-92.25
181.083	-111.49
181.302	-175.12
181.522	-398.43
181.742	-257.34
181.961	-572.96
182.181	-1160.45
182.401	10803.57
182.621	609.29
182.84	-635.79
183.06	-260.76
183.279	-236.91
183.499	-218.21
183.719	-423.41
183.938	-375.29
184.158	-248.28
184.377	-106.78
184.597	-127.88
184.816	-81.54
185.036	-62.66
185.256	-138.56
185.475	-167.84
185.695	-325.3
185.914	-259.85
186.134	-149.22
186.353	-100.51
186.572	-90.31
186.792	-125.62
187.011	-302.23
187.231	-307.74
187.45	-357.21
187.67	-243.02
187.889	-266.23
188.108	-457.94
188.328	-885.34
188.547	-3039.04
188.766	940.52
188.986	1073.53
189.205	1036.48
189.424	-247.32
189.644	-448.65
189.863	-362.5
190.082	-197.38
190.302	-148.44
190.521	-37.92
190.74	-22.81
190.959	-6.04
191.178	-22.46
191.398	-5.73
191.617	-5.51
191.836	4.23
192.055	19.27
192.274	5.67
192.494	-23.97
192.713	-22.02
192.932	-70.22
193.151	-50.26
193.37	-75.9
193.589	-47.39
193.808	-48.01
194.027	-31.32
194.246	-47.4
194.465	-54.44
194.685	-30.35
194.904	-49.45
195.123	-54.84
195.342	-107.88
195.561	-134.66
195.78	-75.54
195.999	-75.83
196.218	-118.87
196.436	-257.24
196.655	-205.02
196.874	-320.25
197.093	-380.63
197.312	-290.55
197.531	-487.92
197.75	-147.51
197.969	-161.78
198.188	-9254.12
198.407	423.88
198.625	394.4
198.844	453.59
199.063	424.5
199.282	633.14
199.501	311.51
199.719	286.49
199.938	248.49
200.157	389.22
200.376	465.6
200.594	408.92
200.813	1376.22
201.032	-711.15
201.251	-36600
201.469	-1389.98
201.688	-223.94
201.907	-150.96
202.125	-224.77
202.344	-52.86
202.563	-483.57
202.781	-96.68
203	-190.45
203.218	-73.34
203.437	-82.33
203.656	-64.08
203.874	-97.69
204.093	-93.58
204.311	-81.8
204.53	-31.9
204.748	-88.9
204.967	-29.8
205.185	-65.22
205.404	-34.01
205.622	-27.25
205.841	-72.32
206.059	-29.43
206.278	-31.51
206.496	-64.72
206.715	-115.09
206.933	-260.92
207.151	-108.26
207.37	-139.19
207.588	-62.84
207.806	-106.03
208.025	-446.51
208.243	-450.14
208.461	3396.84
208.68	1295
208.898	608.54
209.116	122.31
209.335	84.27
209.553	136.39
209.771	191.54
209.989	195.57
210.208	140.35
210.426	153.47
210.644	614.86
210.862	892.7
211.081	778.01
211.299	-122028.57
211.517	-180.71
211.735	-169.02
211.953	-95.96
212.171	-139.67
212.39	-308.14
212.608	-281.31
212.826	-261.55
213.044	-135.35
213.262	-128.92
213.48	-89.54
213.698	-78.69
213.916	-117.36
214.134	-103.78
214.352	-78.07
214.57	-42.16
214.788	-29.49
215.006	0.93
215.224	15.33
215.442	-2.87
215.66	6.26
215.878	9.88
216.096	25.28
216.314	33.57
216.532	13.24
216.75	16.81
216.968	9.94
217.185	9.87
217.403	4.14
217.621	-64.41
217.839	-32.28
218.057	-136.79
218.275	-365.71
218.492	-156.62
218.71	-1664.46
218.928	181.98
219.146	101.15
219.363	73.56
219.581	21.25
219.799	45.25
220.017	29.69
220.234	59.74
220.452	162.76
220.67	-138.41
220.887	-48.47
221.105	11.64
221.323	178.55
221.54	247.52
221.758	239.17
221.976	201.89
222.193	373.56
222.411	506.19
222.629	203.75
222.846	107.51
223.064	131.09
223.281	135.83
223.499	125.59
223.716	156.95
223.934	118.79
224.151	63.42
224.369	44.85
224.586	-0.3
224.804	33.61
225.021	64.02
225.239	91.84
225.456	72.59
225.674	91.42
225.891	75.92
226.108	44.25
226.326	43.11
226.543	59.42
226.76	62.19
226.978	51.58
227.195	46.8
227.413	38.92
227.63	34.63
227.847	28.15
228.064	21.95
228.282	18.7
228.499	20.67
228.716	23.59
228.934	24.96
229.151	26.23
229.368	24.93
229.585	25.97
229.802	26.24
230.02	28.58
230.237	31.28
230.454	37.24
230.671	40.97
230.888	47.45
231.105	49
231.323	47.62
231.54	44.86
231.757	46.12
231.974	46.79
232.191	48.79
232.408	48.07
232.625	47.77
232.842	37.64
233.059	28.87
233.276	22.79
233.493	20
233.71	23.33
233.927	39.57
234.144	47.16
234.361	48.95
234.578	51.44
234.795	49.86
235.012	50.43
235.229	53.65
235.446	53.88
235.663	46.01
235.879	46.62
236.096	48.09
236.313	41.62
236.53	39.32
236.747	34.66
236.964	31.84
237.181	32.84
237.397	30.65
237.614	33.63
237.831	39.8
238.048	43.79
238.264	45.99
238.481	40.52
238.698	36.31
238.915	33.07
239.131	34.27
239.348	34.76
239.565	32.73
239.781	37.38
239.998	38.1
240.215	34.89
240.431	34.72
240.648	37.91
240.865	37.36
241.081	34.24
241.298	31.4
241.514	29.87
241.731	27.11
241.947	26.92
242.164	23.26
242.38	23.15
242.597	22.84
242.814	21.08
243.03	16.35
243.246	15.62
243.463	16.33
243.679	18.55
243.896	18.72
244.112	20.59
244.329	21.74
244.545	23.4
244.762	23.21
244.978	23.85
245.194	24.34
245.411	27.86
245.627	28.77
245.843	27.56
246.06	24.26
246.276	23.34
246.492	21.78
246.709	20.81
246.925	20.14
247.141	19.14
247.357	18.34
247.574	18.36
247.79	17.67
248.006	17.83
248.222	17.12
248.439	17.9
248.655	18
248.871	16.92
249.087	16.55
249.303	17.22
249.519	15.84
249.736	15.4
249.952	15.02
250.168	17.22
250.384	17.52
250.6	19.11
250.816	19.05
251.032	18.19
251.248	19.82
251.464	19.96
251.68	20.23
251.896	22.22
252.112	22.49
252.328	22.67
252.544	20.9
252.76	18.4
252.976	18.83
253.192	19.75
253.408	20.92
253.624	23.86
253.84	25.67
254.056	23.75
254.272	22.92
254.487	23.17
254.703	20.27
254.919	20.78
255.135	22.66
255.351	21.96
255.567	19.26
255.782	16.6
255.998	13.51
256.214	10.21
256.43	12.09
256.646	14.19
256.861	14.68
257.077	17.8
257.293	15.51
257.508	14.76
257.724	14.41
257.94	13.6
258.155	12.33
258.371	10.7
258.587	11.17
258.802	10.74
259.018	11.58
259.234	11.85
259.449	10.98
259.665	11.76
259.88	12.11
260.096	12.3
260.312	13.38
260.527	13.25
260.743	13.78
260.958	13.18
261.174	13.6
261.389	12.85
261.605	12.83
261.82	13.95
262.036	13.58
262.251	14.09
262.466	14.02
262.682	12.53
262.897	15.35
263.113	16.89
263.328	17.95
263.543	18.76
263.759	18.11
263.974	19.88
264.189	20.4
264.405	20.81
264.62	20.48
264.835	18.61
265.051	17.98
265.266	17.3
265.481	15.64
265.696	17.42
265.912	17.2
266.127	19.18
266.342	16.57
266.557	16.05
266.773	16.02
266.988	15.63
267.203	16.43
267.418	16.94
267.633	16
267.848	16.46
268.064	15.48
268.279	14.64
268.494	13.27
268.709	14.36
268.924	13.28
269.139	13.8
269.354	13.26
269.569	13.33
269.784	12.34
269.999	11.07
270.214	10.03
270.429	10.16
270.644	10.62
270.859	10.16
271.074	9.14
271.289	10.12
271.504	9.41
271.719	8.85
271.934	9.35
272.149	8.91
272.363	9.22
272.578	9.65
272.793	9.39
273.008	9.78
273.223	11.22
273.438	12.14
273.653	12.32
273.867	11.75
274.082	13.85
274.297	15.18
274.512	16.51
274.726	16.9
274.941	18.11
275.156	16.2
275.371	15.08
275.585	14.77
275.8	13.6
276.015	13.14
276.229	14.28
276.444	13.3
276.659	12.22
276.873	11.36
277.088	11.58
277.302	10.11
277.517	13.34
277.732	13.29
277.946	13.56
278.161	13.3
278.375	13.8
278.59	13.32
278.804	12.78
279.019	9.54
279.233	10.26
279.448	11.56
279.662	12.18
279.877	11.21
280.091	11.81
280.306	9.13
280.52	9.07
280.735	11.07
280.949	10.54
281.163	11.8
281.378	13.39
281.592	14.49
281.806	13.9
282.021	12.69
282.235	13.02
282.449	13.16
282.664	14.84
282.878	14.98
283.092	12.3
283.307	13.88
283.521	12.88
283.735	14.16
283.949	14.94
284.164	13.93
284.378	13.8
284.592	12.56
284.806	12.15
285.02	12.39
285.234	13.73
285.449	15.54
285.663	15.47
285.877	15.02
286.091	16.1
286.305	14.65
286.519	15.06
286.733	16.03
286.947	15.61
287.161	16.43
287.375	15.17
287.589	14.6
287.803	14.23
288.017	12.6
288.231	11.92
288.445	10.57
288.659	11.99
288.873	12.78
289.087	11.7
289.301	14.43
289.515	14.16
289.729	15.31
289.943	15.96
290.157	16.36
290.371	16.99
290.584	18.19
290.798	18.22
291.012	17.34
291.226	16.37
291.44	17.17
291.654	17.06
291.867	17.5
292.081	18.59
292.295	18.1
292.509	16.78
292.722	17.09
292.936	19.15
293.15	19.31
293.364	18.66
293.577	18.62
293.791	18.45
294.005	16.29
294.218	15.45
294.432	13.99
294.645	12.46
294.859	14.46
295.073	14.55
295.286	12.56
295.5	12.01
295.713	11.12
295.927	11.5
296.14	10.97
296.354	12.11
296.568	11.41
296.781	11.01
296.994	12.66
297.208	11.17
297.421	11.1
297.635	11.49
297.848	11.79
298.062	12.41
298.275	13.06
298.489	14.74
298.702	14.99
298.915	15.5
299.129	16.29
299.342	16.91
299.555	18.45
299.769	17.95
299.982	16.37
300.195	16.2
300.409	18.02
300.622	16.82
300.835	13.63
301.048	12.38
301.262	13.01
301.475	12.73
301.688	12.95
301.901	12.64
302.115	14.63
302.328	15.39
302.541	15.64
302.754	13.73
302.967	14.33
303.18	15.22
303.393	15.85
303.607	15.11
303.82	15.86
304.033	12.77
304.246	12.16
304.459	10.52
304.672	12.27
304.885	12.6
305.098	12.32
305.311	13.12
305.524	14.26
305.737	14.04
305.95	14.86
306.163	14.94
306.376	16.7
306.589	16.98
306.802	17.49
307.015	14.73
307.228	12.4
307.44	11.24
307.653	11.19
307.866	10.2
308.079	10.7
308.292	11.25
308.505	10.16
308.718	10.78
308.93	9.48
309.143	9.85
309.356	11.74
309.569	11.03
309.781	12.58
309.994	13.65
310.207	14.29
310.42	13.39
310.632	13.37
310.845	13.84
311.058	13.51
311.27	14.64
311.483	13.55
311.696	12.99
311.908	14.68
312.121	14.6
312.333	13.86
312.546	13.04
312.759	13.89
312.971	13.76
313.184	14.73
313.396	14.05
313.609	12.4
313.821	13.77
314.034	13.96
314.246	14.23
314.459	15
314.671	14.28
314.884	15.71
315.096	14.59
315.309	14.15
315.521	13.59
315.733	14.05
315.946	14.29
316.158	14.81
316.371	14.34
316.583	13.22
316.795	12.73
317.008	11.66
317.22	10.36
317.432	11.91
317.644	13.71
317.857	15.53
318.069	16.77
318.281	17.73
318.494	17.26
318.706	16.04
318.918	16.32
319.13	15.89
319.342	15.69
319.555	15.33
319.767	14.08
319.979	11.89
320.191	8.43
320.403	6.04
320.615	6.41
320.827	5.23
321.039	6.42
321.252	6.1
321.464	5.92
321.676	8.2
321.888	9
322.1	9.32
322.312	9.16
322.524	8.46
322.736	8.84
322.948	9.23
323.16	12.22
323.372	12.87
323.584	13.6
323.796	15.06
324.007	14.14
324.219	14.46
324.431	13.24
324.643	13.47
324.855	15.11
325.067	15.04
325.279	14.65
325.491	13.61
325.702	13.6
325.914	13.42
326.126	11.94
326.338	12.04
326.55	11.62
326.761	11.31
326.973	9.84
327.185	9.7
327.396	10.2
327.608	9.55
327.82	8.11
328.032	8.25
328.243	8.46
328.455	8.58
328.666	9.09
328.878	10.16
329.09	11.78
329.301	12.7
329.513	11.19
329.725	9.13
329.936	9.74
330.148	10.5
330.359	10.33
330.571	10.89
330.782	11.99
330.994	10.03
331.205	9.62
331.417	9.35
331.628	9.66
331.84	10.41
332.051	13.23
332.262	13.07
332.474	12.92
332.685	12.48
332.897	11.78
333.108	11.51
333.319	13.76
333.531	14.01
333.742	15.07
333.953	14.24
334.165	14.03
334.376	12.43
334.587	11.32
334.799	10.89
335.01	11.02
335.221	10.88
335.432	11.37
335.644	10.83
335.855	10.4
336.066	10.55
336.277	9.97
336.488	9.79
336.7	10.13
336.911	10.78
337.122	12.08
337.333	11.32
337.544	10.86
337.755	10.43
337.966	10.24
338.177	9.22
338.388	9.31
338.599	11.99
338.811	11.07
339.022	11.01
339.233	10.44
339.444	9.32
339.655	9.5
339.866	10
340.076	10.6
340.287	9.26
340.498	9.7
340.709	8.11
340.92	7.54
341.131	9.78
341.342	10.65
341.553	11.43
341.764	11.8
341.975	12.31
342.185	11.43
342.396	11.58
342.607	13.45
342.818	14.72
343.029	15.15
343.239	15.09
343.45	13.98
343.661	13.29
343.872	12.58
344.082	13.68
344.293	13.74
344.504	14.34
344.714	13.08
344.925	13.13
345.136	13.85
345.346	13.8
345.557	13.32
345.768	14.59
345.978	14.57
346.189	15.12
346.399	13.76
346.61	14.51
346.821	15.25
347.031	15.58
347.242	15.63
347.452	13.65
347.663	13.43
347.873	13.56
348.084	11.4
348.294	11.59
348.504	11.52
348.715	13.34
348.925	12.72
349.136	12.61
349.346	12.48
349.557	11.28
349.767	10.74
349.977	11.73
350.188	10.57
350.398	10.27
350.608	9.86
350.819	9.18
351.029	8.57
351.239	8.22
351.449	6.9
351.66	7.02
351.87	6.73
352.08	7.83
352.29	7.69
352.501	8.85
352.711	10.83
352.921	10.13
353.131	10.89
353.341	9.46
353.552	9.82
353.762	10.09
353.972	10.25
354.182	10.45
354.392	9.79
354.602	9.1
354.812	8.55
355.022	7.51
355.232	8.18
355.442	8.51
355.652	8.28
355.862	7.2
356.072	8.31
356.282	7.96
356.492	6.85
356.702	6.97
356.912	8.03
357.122	8.39
357.332	9
357.542	8.65
357.752	7.71
357.962	7.8
358.171	8.84
358.381	8.34
358.591	8.54
358.801	10.22
359.011	10.53
359.221	9.36
359.43	8.08
359.64	7.56
359.85	7.29
360.06	7.53
360.269	7.79
360.479	7.44
360.689	7.01
360.899	6.14
361.108	5.5
361.318	5.81
361.528	6.65
361.737	7.1
361.947	7.54
362.156	7.81
362.366	8.07
362.576	7.97
362.785	7.58
362.995	7.5
363.204	8.15
363.414	8.25
363.623	8.1
363.833	7.63
364.042	7.91
364.252	7.64
364.461	7.45
364.671	6.91
364.88	7.7
365.09	8.98
365.299	9.16
365.509	9.12
365.718	10.27
365.927	11.09
366.137	11.4
366.346	11.77
366.555	10.41
366.765	10.73
366.974	10.83
367.183	10.4
367.393	9.5
367.602	9.77
367.811	9.87
368.021	9.32
368.23	7.92
368.439	8.02
368.648	7.7
368.857	9.03
369.067	9.37
369.276	9.78
369.485	9.25
369.694	9.57
369.903	9.21
370.112	9.37
370.321	8.99
370.531	9.64
370.74	8.72
370.949	8.38
371.158	8.53
371.367	8.36
371.576	8.32
371.785	8.65
371.994	8.21
372.203	8.37
372.412	7.72
372.621	7.08
372.83	7.3
373.039	7.31
373.248	7.9
373.457	7.13
373.666	7.2
373.874	7.15
374.083	6.7
374.292	7.04
374.501	7.42
374.71	7.64
374.919	8.15
375.128	7.05
375.336	7.46
375.545	7.24
375.754	7.86
375.963	7.12
376.171	6.44
376.38	7.09
376.589	6.43
376.798	6.11
377.006	6.23
377.215	5.98
377.424	6.32
377.632	6.26
377.841	5.74
378.05	5.63
378.258	6.68
378.467	7.31
378.675	6.51
378.884	7.44
379.093	7.41
379.301	7.81
379.51	7.7
379.718	7.92
379.927	8.51
380.135	9.02
380.344	8.57
380.552	7.92
380.761	7.28
380.969	7.86
381.177	7.14
381.386	7.17
381.594	7.19
381.803	7.87
382.011	7.74
382.219	6.6
382.428	6.64
382.636	7.23
382.845	7.64
383.053	8
383.261	7.97
383.469	8.03
383.678	7.81
383.886	7.41
384.094	6.22
384.302	5.92
384.511	6.22
384.719	6.36
384.927	6.59
385.135	6.51
385.343	6.53
385.552	6.15
385.76	6.34
385.968	6.18
386.176	6.08
386.384	6.52
386.592	6.34
386.8	6.28
387.008	6.36
387.216	5.9
387.424	5.54
387.633	5.54
387.841	6.14
388.049	5.85
388.257	6.18
388.465	6.03
388.672	6.18
388.88	6.66
389.088	6.6
389.296	5.91
389.504	5.96
389.712	6.33
389.92	6.11
390.128	5.82
390.336	5.76
390.544	5.41
390.751	5.44
390.959	5.46
391.167	5.57
391.375	5.5
391.583	5.7
391.79	5.5
391.998	5.38
392.206	5.03
392.414	4.72
392.621	4.94
392.829	5.21
393.037	5.55
393.244	5.55
393.452	5.29
393.66	5.42
393.867	5.2
394.075	5.12
394.283	5.09
394.49	5.7
394.698	6.24
394.905	6.12
395.113	5.8
395.32	5.38
395.528	5.28
395.735	5.14
395.943	4.89
396.15	4.56
396.358	4.49
396.565	4.37
396.773	3.98
396.98	3.44
397.188	3.26
397.395	3.22
397.602	3.52
397.81	3.39
398.017	3.7
398.225	4.06
398.432	4.52
398.639	4.64
398.847	4.57
399.054	4.91
399.261	4.91
399.468	5.15
399.676	6.02
399.883	5.6
400.09	5.86
400.297	5.81
400.505	5.62
400.712	5.95
400.919	6.16
401.126	6.2
401.333	5.81
401.54	5.69
401.748	5.54
401.955	5.02
402.162	5.14
402.369	4.7
402.576	4.66
402.783	4.59
402.99	4.15
403.197	4.11
403.404	4.45
403.611	4.51
403.818	4.73
404.025	4.61
404.232	4.43
404.439	4.39
404.646	4.44
404.853	4.39
405.06	4.48
405.267	4.49
405.474	4.69
405.681	4.58
405.887	4.45
406.094	4.41
406.301	4.6
406.508	4.63
406.715	4.74
406.922	5.1
407.128	5.15
407.335	4.85
407.542	4.85
407.749	4.07
407.955	3.87
408.162	3.96
408.369	4.23
408.575	4.49
408.782	4.59
408.989	4.62
409.195	4.77
409.402	4.45
409.609	4.73
409.815	5.2
410.022	6.05
410.228	6.05
410.435	6.08
410.642	5.78
410.848	5.43
411.055	5.5
411.261	5.55
411.468	5.11
411.674	5.14
411.881	5.18
412.087	4.87
412.294	4.29
412.5	4.17
412.706	3.98
412.913	4.09
413.119	4.24
413.326	4.11
413.532	4.16
413.738	4.74
413.945	4.73
414.151	4.74
414.357	4.95
414.564	5.12
414.77	5.06
414.976	5.21
415.182	5
415.389	4.74
415.595	4.59
415.801	4.6
416.007	4.14
416.214	4.41
416.42	4.44
416.626	4.45
416.832	4.49
417.038	4.76
417.244	5.09
417.45	5.14
417.657	5.4
417.863	5.33
418.069	5.21
418.275	5.16
418.481	5.31
418.687	5.18
418.893	5
419.099	5.09
419.305	4.99
419.511	4.62
419.717	4.6
419.923	4.63
420.129	4.72
420.335	4.7
420.541	4.72
420.746	4.49
420.952	4.54
421.158	4.65
421.364	4.47
421.57	4.41
421.776	4.46
421.982	4.5
422.187	4.41
422.393	4.24
422.599	4.27
422.805	4.34
423.01	4.27
423.216	4.19
423.422	3.96
423.628	4.09
423.833	4.06
424.039	3.96
424.245	3.95
424.45	3.85
424.656	4.03
424.862	4.08
425.067	3.88
425.273	3.98
425.478	3.85
425.684	3.89
425.889	3.89
426.095	3.85
426.301	4.1
426.506	3.92
426.712	3.86
426.917	3.95
427.123	3.68
427.328	3.86
427.533	4
427.739	4.23
427.944	4.2
428.15	4.09
428.355	4.1
428.561	4.21
428.766	4.3
428.971	4.6
429.177	4.36
429.382	4.48
429.587	4.29
429.793	4.01
429.998	4.07
430.203	4.18
430.408	4.17
430.614	4.12
430.819	3.87
431.024	4.12
431.229	3.83
431.434	4.04
431.64	4.03
431.845	4.47
432.05	4.71
432.255	4.49
432.46	4.54
432.665	4.46
432.87	4.53
433.076	4.46
433.281	4.37
433.486	4.52
433.691	4.35
433.896	4.35
434.101	3.95
434.306	3.66
434.511	3.82
434.716	3.74
434.921	3.88
435.126	3.75
435.331	3.74
435.535	3.79
435.74	3.79
435.945	3.67
436.15	3.73
436.355	3.83
436.56	3.97
436.765	3.91
436.97	3.91
437.174	3.98
437.379	4.09
437.584	4.22
437.789	4.18
437.993	4.13
438.198	4.03
438.403	4.06
438.608	4.05
438.812	4.05
439.017	4.24
439.222	4.18
439.426	4.01
439.631	3.99
439.836	3.88
440.04	3.82
440.245	3.73
440.45	3.89
440.654	3.6
440.859	3.64
441.063	3.62
441.268	3.35
441.472	3.36
441.677	3.33
441.881	3.29
442.086	3.27
442.29	3.25
442.495	3.2
442.699	3.11
442.904	3.36
443.108	3.38
443.312	3.21
443.517	3.32
443.721	3.38
443.925	3.3
444.13	3.27
444.334	3.18
444.538	3.23
444.743	3.41
444.947	3.51
445.151	3.47
445.356	3.36
445.56	3.45
445.764	3.47
445.968	3.47
446.173	3.46
446.377	3.53
446.581	3.72
446.785	3.54
446.989	3.5
447.193	3.5
447.398	3.54
447.602	3.67
447.806	3.62
448.01	3.55
448.214	3.79
448.418	3.76
448.622	3.73
448.826	3.58
449.03	3.63
449.234	3.57
449.438	3.74
449.642	3.57
449.846	3.49
450.05	3.71
450.254	3.78
450.458	3.33
450.662	3.58
450.866	3.63
451.069	3.76
451.273	3.84
451.477	3.86
451.681	3.43
451.885	3.57
452.089	3.79
452.292	3.53
452.496	3.52
452.7	3.7
452.904	3.7
453.107	3.8
453.311	3.66
453.515	3.75
453.719	3.99
453.922	4.12
454.126	4.04
454.33	3.84
454.533	4
454.737	3.98
454.94	3.9
455.144	3.92
455.348	3.66
455.551	3.8
455.755	3.69
455.958	3.41
456.162	3.42
456.365	3.4
456.569	3.39
456.772	3.42
456.976	3.45
457.179	3.33
457.383	3.23
457.586	3.2
457.79	3.08
457.993	3.11
458.196	3.12
458.4	3.17
458.603	3.2
458.807	3.19
459.01	3.25
459.213	3.32
459.417	3.34
459.62	3.36
459.823	3.44
460.026	3.54
460.23	3.49
460.433	3.42
460.636	3.44
460.839	3.49
461.042	3.44
461.246	3.43
461.449	3.36
461.652	3.41
461.855	3.33
462.058	3.36
462.261	3.38
462.464	3.44
462.668	3.67
462.871	3.64
463.074	3.46
463.277	3.47
463.48	3.14
463.683	3.36
463.886	3.36
464.089	3.59
464.292	3.36
464.495	3.1
464.698	3.19
464.901	3.17
465.104	3.04
465.306	2.97
465.509	3.06
465.712	3.2
465.915	2.9
466.118	2.89
466.321	2.74
466.524	2.75
466.726	2.93
466.929	2.81
467.132	2.68
467.335	2.78
467.538	2.98
467.74	2.94
467.943	2.97
468.146	3.16
468.348	3.18
468.551	3.28
468.754	3.4
468.956	3.5
469.159	3.56
469.362	3.69
469.564	3.48
469.767	3.31
469.969	3.46
470.172	3.71
470.375	3.51
470.577	3.6
470.78	3.55
470.982	3.48
471.185	3.17
471.387	3.15
471.59	3.08
471.792	3.52
471.995	3.81
472.197	3.73
472.399	3.41
472.602	3.51
472.804	3.52
473.007	3.47
473.209	3.62
473.411	3.76
473.614	3.88
473.816	3.92
474.018	3.46
474.22	3.48
474.423	3.67
474.625	3.73
474.827	3.82
475.03	3.71
475.232	3.8
475.434	3.74
475.636	3.75
475.838	3.7
476.04	3.74
476.243	3.89
476.445	3.83
476.647	3.6
476.849	3.61
477.051	3.53
477.253	3.71
477.455	3.68
477.657	3.77
477.859	3.83
478.061	3.93
478.263	3.75
478.465	4.09
478.667	3.82
478.869	3.82
479.071	3.97
479.273	3.96
479.475	3.66
479.677	3.45
479.879	3.43
480.081	3.23
480.283	3.17
480.485	3.23
480.686	3.05
480.888	3.09
481.09	3.2
481.292	3.14
481.494	2.98
481.695	3.12
481.897	3.21
482.099	3.2
482.301	3.23
482.502	3.06
482.704	3.09
482.906	3.07
483.107	3.13
483.309	3.06
483.511	3.02
483.712	3.1
483.914	3.12
484.115	3.1
484.317	3.09
484.519	3.08
484.72	3.08
484.922	3.1
485.123	3.08
485.325	3.11
485.526	3.12
485.728	3.16
485.929	3.08
486.131	3.01
486.332	3.06
486.534	3.06
486.735	3.06
486.936	3.19
487.138	3.16
487.339	3.13
487.541	3.07
487.742	3.05
487.943	2.97
488.144	3.03
488.346	3.08
488.547	3.09
488.748	3.03
488.95	3.09
489.151	2.98
489.352	3.04
489.553	3.08
489.755	3.08
489.956	3.18
490.157	3.21
490.358	3.3
490.559	3.28
490.76	3.22
490.961	3.26
491.163	3.27
491.364	3.3
491.565	3.12
491.766	3.03
491.967	3.03
492.168	2.93
492.369	3
492.57	3
492.771	3
492.972	2.96
493.173	2.93
493.374	2.85
493.575	2.87
493.776	3.03
493.976	3.12
494.177	3.21
494.378	3.14
494.579	3.08
494.78	2.9
494.981	2.85
495.182	2.98
495.382	2.97
495.583	3.07
495.784	3.09
495.985	3.04
496.185	3.08
496.386	3.05
496.587	3.25
496.788	3.41
496.988	3.3
497.189	3.41
497.39	3.35
497.59	3.5
497.791	3.36
497.992	3.31
498.192	3.33
498.393	3.31
498.593	3.43
498.794	3.45
498.994	3.21
499.195	3.43
499.395	3.49
499.596	3.5
499.796	3.34
499.997	3.37
500.197	3.38
500.398	3.24
500.598	3.21
500.799	3.02
500.999	2.81
501.199	2.99
501.4	3.03
501.6	2.86
501.801	2.86
502.001	3.05
502.201	3.07
502.402	3.2
502.602	3.48
502.802	3.66
503.002	3.77
503.203	3.99
503.403	4.02
503.603	4.11
503.803	4.32
504.003	4.39
504.204	4.22
504.404	4.15
504.604	4.13
504.804	4.14
505.004	4.12
505.204	4.28
505.404	4.22
505.604	4.12
505.804	3.91
506.005	3.9
506.205	3.85
506.405	3.88
506.605	3.86
506.805	3.94
507.005	3.79
507.204	3.62
507.404	3.42
507.604	3.4
507.804	3.46
508.004	3.7
508.204	3.72
508.404	3.87
508.604	3.9
508.804	3.96
509.003	4
509.203	4.11
509.403	4.15
509.603	4.26
509.803	4.24
510.002	4.33
510.202	4.14
510.402	4.08
510.602	3.98
510.801	4.16
511.001	4.35
511.201	4.25
511.4	4.32
511.6	4.39
511.8	4.33
511.999	4.37
512.199	4.21
512.398	4.3
512.598	4.17
512.797	4.12
512.997	3.86
513.197	3.78
513.396	3.89
513.596	3.72
513.795	3.75
513.994	3.92
514.194	3.98
514.393	4.05
514.593	3.95
514.792	4.09
514.992	4.27
515.191	4.52
515.39	4.51
515.59	4.57
515.789	4.7
515.988	4.91
516.188	4.86
516.387	5
516.586	5.01
516.786	5.15
516.985	5.15
517.184	5.15
517.383	5.17
517.582	5.2
517.782	5.07
517.981	5.01
518.18	5.03
518.379	5.04
518.578	4.91
518.777	4.93
518.976	4.95
519.176	5
519.375	4.99
519.574	4.87
519.773	4.98
519.972	5.05
520.171	5.21
520.37	5.02
520.569	4.99
520.768	5.05
520.967	5.09
521.166	5.07
521.365	4.97
521.564	4.96
521.762	5.01
521.961	4.86
522.16	4.92
522.359	4.85
522.558	4.84
522.757	4.92
522.956	5.09
523.154	5.1
523.353	5.15
523.552	5.21
523.751	5.23
523.949	5.29
524.148	5.49
524.347	5.4
524.546	5.52
524.744	5.6
524.943	5.58
525.142	5.49
525.34	5.51
525.539	5.54
525.737	5.6
525.936	5.63
526.135	5.65
526.333	5.57
526.532	5.7
526.73	5.62
526.929	5.67
527.127	5.64
527.326	5.67
527.524	5.72
527.723	5.68
527.921	5.68
528.12	5.58
528.318	5.6
528.516	5.65
528.715	5.64
528.913	5.65
529.112	5.65
529.31	5.68
529.508	5.69
529.707	5.7
529.905	5.78
530.103	5.83
530.301	5.86
530.5	5.88
530.698	5.82
530.896	5.84
531.094	5.94
531.293	5.96
531.491	6.12
531.689	6.2
531.887	6.23
532.085	6.2
532.283	6.23
532.481	6.48
532.68	6.53
532.878	6.58
533.076	6.51
533.274	6.46
533.472	6.51
533.67	6.51
533.868	6.52
534.066	6.57
534.264	6.57
534.462	6.69
534.66	6.56
534.858	6.62
535.056	6.66
535.253	6.75
535.451	6.79
535.649	6.98
535.847	6.99
536.045	7.02
536.243	7.07
536.441	7.08
536.638	7.02
536.836	6.98
537.034	7.05
537.232	7.17
537.43	7.32
537.627	7.26
537.825	7.11
538.023	7.11
538.22	7.02
538.418	7.2
538.616	7.23
538.813	7.2
539.011	7.42
539.209	7.41
539.406	7.4
539.604	7.38
539.801	7.63
539.999	7.74
540.196	7.78
540.394	7.95
540.591	7.77
540.789	7.86
540.986	8.01
541.184	8.09
541.381	8
541.579	8.05
541.776	8.16
541.974	8.18
542.171	8.23
542.368	8.26
542.566	8.28
542.763	8.35
542.96	8.45
543.158	8.35
543.355	8.35
543.552	8.54
543.75	8.6
543.947	8.58
544.144	8.51
544.341	8.52
544.539	8.64
544.736	8.64
544.933	8.71
545.13	8.64
545.327	8.77
545.524	8.88
545.722	8.94
545.919	9.03
546.116	9.06
546.313	9.21
546.51	9.31
546.707	9.36
546.904	9.44
547.101	9.6
547.298	9.71
547.495	9.88
547.692	9.99
547.889	9.99
548.086	9.99
548.283	10.03
548.48	10.06
548.677	10.15
548.874	10.14
549.07	10.39
549.267	10.17
549.464	10.21
549.661	10.22
549.858	10.16
550.055	10.27
550.251	10.31
550.448	10.3
550.645	10.54
550.842	10.58
551.038	10.83
551.235	10.66
551.432	10.89
551.628	10.86
551.825	11.02
552.022	11.05
552.218	11.17
552.415	11.13
552.612	11.2
552.808	11.09
553.005	11.09
553.201	10.93
553.398	11.22
553.594	11.42
553.791	11.68
553.987	11.48
554.184	11.55
554.38	11.64
554.577	11.75
554.773	12.02
554.97	12.3
555.166	12.54
555.362	12.62
555.559	12.29
555.755	12.21
555.952	12.32
556.148	12.51
556.344	12.5
556.541	12.64
556.737	12.91
556.933	12.77
557.129	12.74
557.326	12.87
557.522	12.78
557.718	13
557.914	13.09
558.11	12.78
558.307	12.71
558.503	12.93
558.699	12.86
558.895	12.81
559.091	12.91
559.287	12.64
559.483	12.69
559.679	12.97
559.876	13.15
560.072	13.15
560.268	13.49
560.464	13.51
560.66	13.55
560.856	13.67
561.052	13.63
561.247	13.65
561.443	13.97
561.639	13.99
561.835	14.06
562.031	14.12
562.227	14.24
562.423	14.31
562.619	14.69
562.815	14.75
563.01	14.71
563.206	14.87
563.402	15.04
563.598	15.44
563.793	15.28
563.989	15.36
564.185	15.27
564.381	15.27
564.576	15.18
564.772	15.1
564.968	15.34
565.163	15.52
565.359	15.66
565.555	15.56
565.75	15.51
565.946	15.56
566.141	15.64
566.337	15.89
566.532	16.01
566.728	16.06
566.923	16.26
567.119	16.02
567.314	15.87
567.51	15.7
567.705	15.9
567.901	15.81
568.096	15.98
568.292	15.9
568.487	15.71
568.682	15.69
568.878	16.05
569.073	15.98
569.268	15.98
569.464	16.21
569.659	16.7
569.854	16.75
570.05	16.82
570.245	16.83
570.44	17.08
570.635	17.43
570.831	17.61
571.026	17.62
571.221	17.67
571.416	17.81
571.611	17.96
571.806	17.73
572.002	17.72
572.197	17.72
572.392	17.75
572.587	17.62
572.782	17.58
572.977	17.62
573.172	17.54
573.367	17.73
573.562	17.94
573.757	17.93
573.952	18.04
574.147	18.04
574.342	18.13
574.537	18.2
574.732	18.33
574.927	18.49
575.121	18.59
575.316	18.64
575.511	18.53
575.706	18.66
575.901	18.61
576.096	18.78
576.29	18.92
576.485	18.99
576.68	19.07
576.875	19.26
577.069	19.02
577.264	18.94
577.459	19.03
577.654	19.1
577.848	18.97
578.043	18.89
578.238	18.95
578.432	19.12
578.627	19
578.821	18.92
579.016	19
579.21	19.03
579.405	18.97
579.6	18.91
579.794	19.02
579.989	19.13
580.183	19.53
580.378	19.31
580.572	19.3
580.766	19.26
580.961	19.33
581.155	19.18
581.35	19.48
581.544	19.74
581.738	19.96
581.933	20.05
582.127	19.97
582.321	19.76
582.516	19.83
582.71	19.81
582.904	20.02
583.099	20.18
583.293	20.18
583.487	20.04
583.681	19.94
583.875	19.71
584.07	19.85
584.264	19.89
584.458	20
584.652	20.24
584.846	20.49
585.04	20.74
585.234	20.84
585.428	20.87
585.623	20.83
585.817	21.08
586.011	21.32
586.205	21.23
586.399	21.31
586.593	21.44
586.787	21.68
586.981	21.5
587.174	21.16
587.368	21.03
587.562	20.93
587.756	21.05
587.95	20.92
588.144	20.95
588.338	20.82
588.532	20.99
588.725	21.13
588.919	20.88
589.113	21
589.307	21.29
589.501	21.42
589.694	21.48
589.888	21.51
590.082	21.67
590.275	21.65
590.469	21.71
590.663	21.48
590.856	21.34
591.05	21.38
591.244	21.56
591.437	21.47
591.631	21.45
591.824	21.41
592.018	21.48
592.212	21.65
592.405	21.71
592.599	21.94
592.792	22.21
592.986	22.32
593.179	22.37
593.372	22.5
593.566	22.62
593.759	22.46
593.953	22.47
594.146	22.49
594.339	22.48
594.533	22.4
594.726	22.33
594.92	22.18
595.113	21.97
595.306	22.04
595.499	21.68
595.693	21.6
595.886	21.92
596.079	22.07
596.272	22
596.466	21.87
596.659	21.85
596.852	22.09
597.045	22.02
597.238	22.43
597.431	22.42
597.624	22.43
597.818	22.76
598.011	22.57
598.204	22.67
598.397	22.75
598.59	22.88
598.783	23.02
598.976	22.89
599.169	23.09
599.362	23.06
599.555	23.06
599.748	23.21
599.941	23
600.134	23.13
600.326	23.45
600.519	23.75
600.712	23.57
600.905	23.72
601.098	23.55
601.291	23.62
601.483	23.58
601.676	24.05
601.869	24.21
602.062	24.17
602.255	24.16
602.447	23.92
602.64	23.84
602.833	23.99
603.025	23.83
603.218	24.21
603.411	24.29
603.603	24.12
603.796	23.9
603.989	23.62
604.181	23.64
604.374	23.53
604.566	23.75
604.759	23.72
604.951	23.82
605.144	23.75
605.336	23.52
605.529	23.46
605.721	23.52
605.914	23.49
606.106	23.67
606.299	23.73
606.491	24.19
606.683	24.12
606.876	24.03
607.068	24.04
607.26	24.41
607.453	24.58
607.645	24.49
607.837	24.4
608.03	24.3
608.222	24.26
608.414	23.98
608.606	23.71
608.799	23.68
608.991	23.89
609.183	23.45
609.375	23.54
609.567	23.34
609.759	23.36
609.952	23.42
610.144	23.43
610.336	23.27
610.528	23.53
610.72	23.47
610.912	23.21
611.104	23.18
611.296	23.5
611.488	23.56
611.68	23.73
611.872	23.7
612.064	23.78
612.256	23.71
612.448	24.09
612.64	23.85
612.832	23.79
613.023	24.54
613.215	23.92
613.407	23.92
613.599	23.62
613.791	23.47
613.983	23.71
614.174	23.47
614.366	23.43
614.558	23.49
614.75	23.77
614.941	23.73
615.133	23.31
615.325	24.01
615.516	24.08
615.708	24.3
615.9	24.12
616.091	24.12
616.283	24.69
616.475	24.63
616.666	24.5
616.858	24.93
617.049	25.03
617.241	24.94
617.432	24.74
617.624	24.82
617.815	24.4
618.007	24.57
618.198	24.5
618.39	24.3
618.581	24.8
618.773	24.64
618.964	24.53
619.155	24.87
619.347	24.91
619.538	25.21
619.729	25.21
619.921	25.66
620.112	25.92
620.303	25.94
620.494	25.81
620.686	25.67
620.877	26.25
621.068	25.93
621.259	26.05
621.451	25.99
621.642	25.87
621.833	25.72
622.024	25.73
622.215	25.54
622.406	25.41
622.597	25.55
622.788	25.49
622.98	25.21
623.171	25.5
623.362	25.22
623.553	25.12
623.744	25.24
623.935	25.39
624.126	25.1
624.317	25.32
624.508	25.61
624.698	25.99
624.889	26.42
625.08	26.38
625.271	25.98
625.462	26.09
625.653	26.01
625.844	25.94
626.034	25.97
626.225	26.16
626.416	26.12
626.607	26.12
626.798	25.86
626.988	25.45
627.179	25.68
627.37	25.75
627.56	25.64
627.751	25.75
627.942	25.83
628.132	25.71
628.323	25.57
628.514	25.52
628.704	25.42
628.895	25.34
629.085	25.52
629.276	25.38
629.466	25.55
629.657	25.51
629.847	25.8
630.038	25.54
630.228	25.55
630.419	25.75
630.609	25.93
630.8	25.84
630.99	25.63
631.181	25.64
631.371	25.43
631.561	25.41
631.752	25.62
631.942	25.73
632.132	25.68
632.323	26.09
632.513	26.17
632.703	25.89
632.893	26.06
633.084	26.19
633.274	26.2
633.464	26.23
633.654	26.39
633.844	26.36
634.034	25.9
634.225	26
634.415	25.62
634.605	25.7
634.795	26.05
634.985	26.17
635.175	26.27
635.365	26.39
635.555	26.67
635.745	26.53
635.935	26.27
636.125	26.34
636.315	26.61
636.505	26.93
636.695	26.66
636.885	26.41
637.075	26.32
637.265	26.51
637.455	26.67
637.644	26.23
637.834	26.13
638.024	26.4
638.214	26.78
638.404	26.78
638.593	26.8
638.783	26.63
638.973	26.67
639.163	26.83
639.352	26.55
639.542	26.17
639.732	26.5
639.921	26.86
640.111	26.63
640.301	26.08
640.49	26.24
640.68	26.11
640.87	26.09
641.059	25.97
641.249	25.7
641.438	25.92
641.628	26
641.817	25.86
642.007	25.76
642.196	25.85
642.386	27.01
642.575	26.7
642.764	27.07
642.954	27.39
643.143	27.78
643.333	28.23
643.522	28.33
643.711	28.25
643.901	28.49
644.09	28.24
644.279	28.5
644.469	27.57
644.658	27.43
644.847	27.09
645.036	27.31
645.226	27
645.415	26.56
645.604	26.43
645.793	26.76
645.982	26.23
646.171	26.55
646.361	26.62
646.55	26.68
646.739	27.1
646.928	26.85
647.117	26.76
647.306	27.1
647.495	27.09
647.684	27.37
647.873	27.45
648.062	28.16
648.251	28.04
648.44	27.7
648.629	27.67
648.818	27.64
649.007	27.8
649.196	27.69
649.384	27.48
649.573	27.69
649.762	27.35
649.951	27.01
650.14	26.94
650.328	27.35
650.517	27.81
650.706	28.17
650.895	28.04
651.083	28.35
651.272	28.4
651.461	28.83
651.65	28.54
651.838	28.84
652.027	28.74
652.216	28.58
652.404	28.32
652.593	28.55
652.781	28.39
652.97	28.56
653.158	28.44
653.347	27.88
653.535	27.82
653.724	28
653.912	28.07
654.101	28.52
654.289	28.41
654.478	28.67
654.666	28.17
654.855	28.69
655.043	28.59
655.231	28.31
655.42	29.47
655.608	29.36
655.796	29.15
655.985	29.13
656.173	29.37
656.361	29.39
656.55	28.67
656.738	28.61
656.926	27.74
657.114	27.64
657.302	28.03
657.491	27.5
657.679	27.41
657.867	27.28
658.055	26.77
658.243	26.36
658.431	26.36
658.619	26.96
658.807	27.25
658.996	27.62
659.184	27.55
659.372	27.52
659.56	27.8
659.748	28.02
659.936	28.78
660.124	29.28
660.311	29.22
660.499	29.21
660.687	28.9
660.875	28.74
661.063	28.9
661.251	29.1
661.439	29.16
661.627	28.63
661.814	27.92
662.002	27.59
662.19	27.62
662.378	27.74
662.565	27.84
662.753	27.81
662.941	27.71
663.129	27.23
663.316	27.24
663.504	27.04
663.692	26.92
663.879	27.09
664.067	26.52
664.254	26.24
664.442	26.37
664.63	26.59
664.817	26.97
665.005	27.44
665.192	27.77
665.38	27.3
665.567	27.38
665.755	27.5
665.942	28.02
666.13	28.37
666.317	28.14
666.504	27.7
666.692	28.05
666.879	27.95
667.067	26.92
667.254	26.63
667.441	27.43
667.629	27.44
667.816	27.52
668.003	27.31
668.19	27.67
668.378	28.03
668.565	28.49
668.752	28.17
668.939	27.99
669.127	28.72
669.314	29.07
669.501	28.92
669.688	29.22
669.875	29.64
670.062	29.64
670.249	29.34
670.436	29.6
670.623	30.42
670.81	30.41
670.997	30.74
671.184	30.92
671.371	30.74
671.558	30.5
671.745	29.82
671.932	29.18
672.119	29.13
672.306	29.36
672.493	28.97
672.68	28.1
672.867	28.54
673.054	28.31
673.24	27.88
673.427	28.33
673.614	28.41
673.801	28.65
673.988	29.5
674.174	29.53
674.361	29.2
674.548	28.89
674.734	29.44
674.921	29.31
675.108	28.88
675.294	29.03
675.481	28.78
675.668	28.85
675.854	28.3
676.041	28.23
676.227	28.55
676.414	28.92
676.601	28.92
676.787	27.89
676.974	27.43
677.16	27.71
677.347	28.27
677.533	28.78
677.719	29
677.906	29.76
678.092	29.54
678.279	29.16
678.465	28.8
678.651	29.17
678.838	29.94
679.024	30
679.21	29.82
679.397	29.78
679.583	29.74
679.769	29.76
679.955	29.41
680.142	29.45
680.328	29.17
680.514	29.17
680.7	29.32
680.886	29.19
681.073	29.57
681.259	30.03
681.445	29.76
681.631	29.61
681.817	29.6
682.003	29.99
682.189	29.64
682.375	30.01
682.561	30.25
682.747	29.81
682.933	29.54
683.119	29.09
683.305	29.4
683.491	29.28
683.677	28.97
683.863	28.8
684.049	28.8
684.235	29.02
684.42	29.52
684.606	29.21
684.792	29.41
684.978	29.26
685.164	29.4
685.349	29.13
685.535	28.98
685.721	29.23
685.907	28.82
686.092	28.9
686.278	28.95
686.464	27.78
686.649	27.97
686.835	28.16
687.021	28.37
687.206	28.22
687.392	27.93
687.577	28.11
687.763	28.12
687.948	28.36
688.134	28
688.319	28.57
688.505	29.32
688.69	29.58
688.876	29.63
689.061	29.56
689.247	29.53
689.432	29.29
689.618	28.98
689.803	29.33
689.988	29.15
690.174	29.43
690.359	29.18
690.544	29.01
690.73	29.23
690.915	29.1
691.1	29.17
691.285	29.18
691.471	29.69
691.656	30.23
691.841	29.88
692.026	30.14
692.211	30.31
692.396	30.07
692.582	30.37
692.767	30
692.952	29.38
693.137	29.43
693.322	30.09
693.507	30.38
693.692	30
693.877	29.33
694.062	28.69
694.247	28.14
694.432	28.08
694.617	27.91
694.802	27.87
694.987	29.05
695.172	29.98
695.357	29.68
695.541	29.07
695.726	29.27
695.911	29.02
696.096	29.98
696.281	30.34
696.466	30.1
696.65	30.41
696.835	30.74
697.02	30.1
697.204	29.71
697.389	29.47
697.574	29.82
697.759	29.82
697.943	30.25
698.128	30.51
698.312	30.45
698.497	30.54
698.682	30.52
698.866	30.33
699.051	30.15
699.235	30.09
699.42	29.98
699.604	29.78
699.789	29.86
699.973	30.01
700.158	29.83
700.342	29.79
700.527	30.18
700.711	29.85
700.895	29.81
701.08	30.24
701.264	29.73
701.448	29.87
701.633	29.95
701.817	29.8
702.001	29.77
702.186	29.82
702.37	30.1
702.554	29.71
702.738	30.37
702.923	30.18
703.107	29.66
703.291	30.45
703.475	30.75
703.659	31.08
703.843	31.12
704.027	31.08
704.212	30.92
704.396	31
704.58	31.42
704.764	30.84
704.948	31.07
705.132	31.63
705.316	30.67
705.5	30.37
705.684	30.35
705.868	30.81
706.052	30.15
706.235	30.18
706.419	30.09
706.603	30.1
706.787	29.5
706.971	29.18
707.155	28.84
707.339	29.23
707.522	29.42
707.706	28.86
707.89	28.42
708.074	28.94
708.257	28.42
708.441	28.6
708.625	28.02
708.808	28.37
708.992	28.81
709.176	29.83
709.359	29.85
709.543	30.46
709.727	30.87
709.91	31.34
710.094	31.33
710.277	31.76
710.461	31.69
710.644	32.13
710.828	32.68
711.011	32.55
711.195	31.46
711.378	31.86
711.562	31.27
711.745	30.61
711.928	30.75
712.112	30.47
712.295	29.78
712.478	29.79
712.662	29.35
712.845	29.03
713.028	29.37
713.212	29.27
713.395	28.49
713.578	28.48
713.761	28.78
713.945	28.79
714.128	29.44
714.311	30.61
714.494	30.4
714.677	31.34
714.86	31.77
715.043	31.68
715.227	32.25
715.41	32.82
715.593	33.15
715.776	34.14
715.959	33.73
716.142	33.54
716.325	32.35
716.508	33.75
716.691	33.66
716.874	33.5
717.057	33.45
717.239	34.06
717.422	34.04
717.605	33.76
717.788	33.77
717.971	33.32
718.154	33.2
718.337	35.04
718.519	33.19
718.702	32.81
718.885	33.2
719.068	33.18
719.25	32.05
719.433	32.33
719.616	32.63
719.798	31.62
719.981	32.62
720.164	32.58
720.346	31.49
720.529	31.31
720.712	31.43
720.894	32.19
721.077	31.64
721.259	32.24
721.442	31.95
721.624	31.87
721.807	32.95
721.989	32.68
722.172	32.67
722.354	32.31
722.537	32.49
722.719	33.43
722.901	32.2
723.084	32.84
723.266	32.07
723.448	31.47
723.631	31.65
723.813	30.32
723.995	30.86
724.178	31.37
724.36	32.35
724.542	32.74
724.724	32.01
724.907	32.19
725.089	32.31
725.271	32.68
725.453	33.24
725.635	33.34
725.817	33.9
725.999	33.4
726.181	33.58
726.364	33.26
726.546	34.18
726.728	33.04
726.91	32.59
727.092	33.08
727.274	32.66
727.456	33.79
727.638	33.5
727.819	33.73
728.001	33.2
728.183	32.96
728.365	32.74
728.547	31.72
728.729	32.71
728.911	33.09
729.093	32.77
729.274	32.9
729.456	31.94
729.638	31.83
729.82	31.38
730.001	31.34
730.183	31.7
730.365	31.27
730.546	32.44
730.728	32.17
730.91	32.11
731.091	31.91
731.273	31.89
731.455	32.19
731.636	32.31
731.818	31.82
731.999	32.57
732.181	32.6
732.362	32.38
732.544	31
732.725	30.93
732.907	30.43
733.088	30.96
733.27	30.57
733.451	30.55
733.633	31.03
733.814	31.53
733.995	31.5
734.177	31.67
734.358	32.51
734.539	33.86
734.721	33.94
734.902	35.28
735.083	34.81
735.264	36.77
735.446	36.87
735.627	35.46
735.808	35.51
735.989	34.87
736.17	34.73
736.351	34.54
736.533	33.82
736.714	33.3
736.895	31.51
737.076	32.36
737.257	30.74
737.438	30.64
737.619	32.72
737.8	32.06
737.981	32.84
738.162	33.1
738.343	34.19
738.524	34.42
738.705	34.02
738.886	34.44
739.067	33.5
739.247	34.89
739.428	35.84
739.609	35.56
739.79	36.73
739.971	35.91
740.151	35.43
740.332	34.76
740.513	34.31
740.694	35.1
740.874	35.98
741.055	35.99
741.236	34.97
741.417	34.04
741.597	33.18
741.778	32.54
741.958	32.12
742.139	32.23
742.32	31.55
742.5	32.19
742.681	32.29
742.861	31.11
743.042	31.62
743.222	31.82
743.403	31.85
743.583	31.53
743.764	32.28
743.944	32.89
744.124	33.34
744.305	33.27
744.485	32.16
744.666	31.6
744.846	31.57
745.026	32.92
745.207	33.31
745.387	33.49
745.567	34.76
745.747	34.04
745.928	35.79
746.108	35.62
746.288	36.28
746.468	36.15
746.648	35.81
746.829	36.04
747.009	35.35
747.189	35
747.369	34.52
747.549	32.93
747.729	32.81
747.909	30.74
748.089	30.32
748.269	29.06
748.449	29.96
748.629	30.55
748.809	30.29
748.989	28.65
749.169	29.25
749.349	30.38
749.529	31.37
749.709	30.98
749.889	31.14
750.068	30.51
750.248	30.73
750.428	30.87
750.608	31.86
750.788	32.88
750.967	34.1
751.147	33.52
751.327	32.23
751.507	33.55
751.686	34.8
751.866	35.63
752.046	35.82
752.225	36.98
752.405	36.75
752.585	35.18
752.764	34.4
752.944	34.74
753.123	35.62
753.303	37.58
753.482	36.19
753.662	37.35
753.841	37.11
754.021	37.05
754.2	36.1
754.38	35.89
754.559	36.77
754.739	36.78
754.918	34.65
755.097	32.16
755.277	29.86
755.456	30.17
755.635	28.22
755.815	28.33
755.994	29.35
756.173	30.93
756.352	31.02
756.532	31.34
756.711	33.12
756.89	33.12
757.069	32.89
757.248	32.88
757.427	32.04
757.607	33.86
757.786	33.7
757.965	31.97
758.144	30.85
758.323	30.1
758.502	31.38
758.681	29.86
758.86	32.19
759.039	33.35
759.218	34.66
759.397	35.08
759.576	34.23
759.755	34.39
759.934	35.14
760.113	36.49
760.291	37.48
760.47	36.44
760.649	37.2
760.828	36.64
761.007	38.41
761.186	37.99
761.364	38.46
761.543	37.69
761.722	38.09
761.901	38.26
762.079	37.68
762.258	36.96
762.437	36.69
762.615	36.7
762.794	35.98
762.972	34.82
763.151	35.06
763.33	34.27
763.508	33.81
763.687	33.11
763.865	34.01
764.044	33.1
764.222	33.57
764.401	32.78
764.579	32.34
764.758	32.09
764.936	32.92
765.114	32.52
765.293	33.11
765.471	33.33
765.65	34.69
765.828	32.83
766.006	34.19
766.184	33.02
766.363	34.83
766.541	35.12
766.719	34.52
766.898	33.25
767.076	33.46
767.254	32.63
767.432	31.97
767.61	30.78
767.788	31.89
767.967	30.32
768.145	31.91
768.323	31.01
768.501	31.48
768.679	34.08
768.857	34.18
769.035	33.95
769.213	36.09
769.391	36.87
769.569	36.59
769.747	35.78
769.925	35.91
770.103	36.29
770.281	36.23
770.459	34.37
770.636	33.14
770.814	35.53
770.992	38.24
771.17	37.56
771.348	37.29
771.525	35.07
771.703	36.94
771.881	37.23
772.059	38.47
772.236	36.53
772.414	40.19
772.592	39.28
772.769	37.19
772.947	33.56
773.125	32.41
773.302	34.12
773.48	36.49
773.657	37.61
773.835	38.52
774.013	36.97
774.19	38.09
774.368	34.45
774.545	36.99
774.723	36.67
774.9	37.79
775.077	37.26
775.255	38.61
775.432	39.39
775.61	38.12
775.787	34.46
775.964	36.66
776.142	37.11
776.319	37.73
776.496	36.15
776.674	39.16
776.851	37.18
777.028	37.49
777.205	33.98
777.382	32.06
777.56	32.31
777.737	36.36
777.914	33.14
778.091	31.77
778.268	32.93
778.445	32.92
778.622	31.36
778.8	33.09
778.977	33.3
779.154	35.7
779.331	38.13
779.508	38.03
779.685	37.01
779.862	37.76
780.038	39.69
780.215	38.56
780.392	37.21
780.569	37.85
780.746	35.18
780.923	37.14
781.1	35.01
781.277	35.85
781.453	33.03
781.63	32.47
781.807	30.67
781.984	30.47
782.16	33.05
782.337	37.08
782.514	38
782.691	37.25
782.867	34.91
783.044	35.1
783.221	34.04
783.397	36.76
783.574	36.58
783.75	38.28
783.927	37.57
784.103	38.74
784.28	35.18
784.456	35.33
784.633	39.37
784.809	40.46
784.986	39.67
785.162	38.48
785.339	35.75
785.515	35.28
785.692	32.63
785.868	32.43
786.044	27.87
786.221	32.44
786.397	29.82
786.573	26.4
786.749	25.18
786.926	27.58
787.102	32.11
787.278	32.08
787.454	33.15
787.631	35.27
787.807	36.06
787.983	39.97
788.159	37.07
788.335	36.96
788.511	36.76
788.687	38.67
788.863	39.59
789.039	36.56
789.216	40.46
789.392	40.76
789.568	40.67
789.744	38.16
789.919	34.75
790.095	33.89
790.271	34.42
790.447	35.85
790.623	31.68
790.799	30.93
790.975	34.5
791.151	33.32
791.327	33.44
791.502	33.32
791.678	36.53
791.854	38.57
792.03	39.7
792.205	38.37
792.381	39.89
792.557	44.2
792.733	42.97
792.908	38.41
793.084	38.46
793.259	39.75
793.435	36.83
793.611	36.26
793.786	32.7
793.962	32.67
794.137	32.8
794.313	33.52
794.488	29.46
794.664	31.72
794.839	30.2
795.015	29.73
795.19	28.65
795.366	32
795.541	30.05
795.716	33.05
795.892	31.94
796.067	32.3
796.242	30.4
796.418	28.94
796.593	25.43
796.768	27.55
796.944	26.42
797.119	23.3
797.294	24.52
797.469	21.59
797.644	23.76
797.82	24.94
797.995	26.74
798.17	27.29
798.345	30.49
798.52	33.5
798.695	33.78
798.87	31.38
799.045	33.32
799.22	32.96
799.395	34.4
799.57	34.88
799.745	37.95
799.92	36.29
800.095	37.34
800.27	40.66
800.445	38.49
800.62	37.48
800.795	38.25
800.97	39.94
801.145	37.42
801.319	40.76
801.494	39.03
801.669	32.25
801.844	35.56
802.018	33.45
802.193	33.05
802.368	35.2
802.543	37.9
802.717	40.15
802.892	40.81
803.067	43.14
803.241	45.1
803.416	39.22
803.59	40.81
803.765	38.25
803.94	38.97
804.114	36.15
804.289	37.56
804.463	34.95
804.638	36.24
804.812	34.63
804.986	36.29
805.161	33.12
805.335	42.24
805.51	43.6
805.684	47
805.858	45.98
806.033	46.79
806.207	45.83
806.381	47.94
806.556	42.63
806.73	46.65
806.904	40.96
807.078	39.07
807.253	34.32
807.427	33.16
807.601	27.43
807.775	30.82
807.949	31.05
808.123	32.27
808.298	34.5
808.472	40.65
808.646	39.45
808.82	42.45
808.994	45.04
809.168	41.1
809.342	41.33
809.516	46.46
809.69	44.18
809.864	41.77
810.038	37.98
810.212	33.79
810.385	33.72
810.559	29.47
810.733	30.04
810.907	32.59
811.081	39.42
811.255	42.28
811.428	37.89
811.602	40.96
811.776	40.91
811.95	45.13
812.123	48.52
812.297	49.85
812.471	53.97
812.644	56.66
812.818	53.84
812.992	51.65
813.165	49.01
813.339	49.84
813.512	42.72
813.686	45.31
813.86	43.13
814.033	38.99
814.207	38.46
814.38	31.43
814.554	32.53
814.727	29.96
814.9	26.56
815.074	30.64
815.247	34.2
815.421	40.68
815.594	37.67
815.767	39.3
815.941	40.06
816.114	40.59
816.287	42.3
816.46	41.07
816.634	40.71
816.807	43.89
816.98	44.71
817.153	47.51
817.327	45.74
817.5	48.58
817.673	47.31
817.846	47.59
818.019	47.94
818.192	52.22
818.365	49.39
818.538	51.05
818.711	51.67
818.884	48.92
819.057	43.87
819.23	43.72
819.403	44.84
819.576	48.15
819.749	44.86
819.922	39.8
820.095	37.52
820.268	39.85
820.441	38.52
820.614	37.86
820.786	36.1
820.959	38.1
821.132	38.22
821.305	36.76
821.477	34.82
821.65	36.29
821.823	36.6
821.996	35.96
822.168	35.84
822.341	36.33
822.514	36.27
822.686	36.92
822.859	37.06
823.031	36.5
823.204	37.15
823.376	37.1
823.549	37.56
823.722	37.08
823.894	37.11
824.067	36.47
824.239	35.54
824.411	35.56
824.584	35.6
824.756	34.27
824.929	33.94
825.101	33.45
825.273	33.9
825.446	32.8
825.618	33.87
825.79	32.6
825.963	32.92
826.135	34.18
826.307	33.45
826.479	32.23
826.652	32.39
826.824	33.09
826.996	33.29
827.168	32.84
827.34	32.97
827.512	32.2
827.684	33.53
827.856	34.08
828.029	34.95
828.201	36.04
828.373	36.46
828.545	37.19
828.717	37.76
828.889	36.68
829.061	36.52
829.232	36.68
829.404	38.27
829.576	38.6
829.748	39.83
829.92	36.7
830.092	35.29
830.264	36.87
830.436	36.11
830.607	34.23
830.779	35.14
830.951	36.04
831.123	33.7
831.294	32.79
831.466	34.41
831.638	32.26
831.809	35.27
831.981	36.88
832.153	30.31
832.324	26.61
832.496	31.73
832.667	31.39
832.839	27.13
833.011	32.37
833.182	33.05
833.354	30.79
833.525	30.73
833.697	29.86
833.868	32.11
834.039	36.83
834.211	39.02
834.382	36.79
834.554	39.43
834.725	41.35
834.896	40.33
835.068	38.05
835.239	37.51
835.41	38.29
835.581	40.08
835.753	39.9
835.924	40.66
836.095	39.88
836.266	38.76
836.438	37.37
836.609	37.96
836.78	36.41
836.951	43.24
837.122	47.88
837.293	47.83
837.464	46.24
837.635	45.36
837.806	46.16
837.977	50.58
838.148	53.05
838.319	52.07
838.49	47.58
838.661	42.87
838.832	40.37
839.003	37.2
839.174	34.43
839.345	33.36
839.516	28.84
839.687	24.02
839.857	16.74
840.028	15.24
840.199	5.21
840.37	7.02
840.54	20.49
840.711	21.79
840.882	22.72
841.053	20.51
841.223	17.59
841.394	29.26
841.564	36.49
841.735	40.4
841.906	47.29
842.076	61.03
842.247	60.56
842.417	58.52
842.588	59.93
842.758	67.34
842.929	67.09
843.099	64.38
843.27	61.36
843.44	59.17
843.611	64.96
843.781	61.63
843.951	51.45
844.122	66.78
844.292	66.6
844.462	62.2
844.633	62.4
844.803	63.72
844.973	78.25
845.144	75.52
845.314	80.34
845.484	90.43
845.654	94.97
845.824	108.29
845.995	97.94
846.165	78.01
846.335	72.4
846.505	53.11
846.675	78.57
846.845	76.87
847.015	83.58
847.185	61.59
847.355	35.77
847.525	31.2
847.695	41.34
847.865	41.44
848.035	50.98
848.205	37.05
848.375	51.35
848.545	36.44
848.715	29.51
848.884	12.11
849.054	12.92
849.224	42.94
849.394	38.82
849.564	30.45
849.733	11.07
849.903	47.76
850.073	80.16
850.243	100.29
850.412	137.7
850.582	122.85
850.752	123.2
850.921	131.91
851.091	131.62
851.26	114.85
851.43	104.05
851.599	109.05
851.769	87.81
851.939	78
852.108	79.99
852.278	83.93
852.447	93.63
852.616	77.97
852.786	80.25
852.955	75.88
853.125	104.15
853.294	117.61
853.463	108.87
853.633	142.32
853.802	245.87
853.971	178.4
854.141	160.72
854.31	166.1
854.479	169.02
854.648	151.92
854.818	118.95
854.987	100.28
855.156	89.27
855.325	99.58
855.494	100.91
855.663	94.21
855.832	89.72
856.001	60.03
856.171	77.37
856.34	83.68
856.509	106.92
856.678	222.35
856.847	333.53
857.016	-421
857.185	133.19
857.353	91.17
857.522	54.36
857.691	49.01
857.86	53.52
858.029	-8.59
858.198	-17.43
858.367	-14.34
858.535	27.89
858.704	26.11
858.873	21.14
859.042	66.88
859.21	90.68
859.379	59.04
859.548	100.2
859.717	72.17
859.885	96.44
860.054	108.29
860.222	184.28
860.391	134.42
860.56	97.62
860.728	94.18
860.897	101
861.065	85.27
861.234	97.75
861.402	142.52
861.571	165.66
861.739	120.11
861.908	141.97
862.076	140.9
862.244	93.66
862.413	102.8
862.581	121.24
862.749	81.4
862.918	75.07
863.086	65.45
863.254	58.55
863.423	67.21
863.591	72.84
863.759	62.19
863.927	50.15
864.096	67.79
864.264	49.39
864.432	43.5
864.6	59.49
864.768	66.28
864.936	62.62
865.104	69.51
865.272	79.89
865.44	93.78
865.608	208.62
865.776	213.81
865.944	137.6
866.112	172.35
866.28	197.96
866.448	177.98
866.616	545.47
866.784	229.46
866.952	140.89
867.12	108.9
867.288	112.38
867.455	106.68
867.623	101.19
867.791	122.63
867.959	124.36
868.127	147.39
868.294	178.97
868.462	127.38
868.63	165.33
868.797	251.7
868.965	333.41
869.133	293.91
869.3	398.91
869.468	252.58
869.636	169.56
869.803	133.52
869.971	116.88
870.138	148.05
870.306	221.42
870.473	93.67
870.641	101.91
870.808	86.2
870.975	89.65
871.143	86.59
871.31	124.87
871.478	130.59
871.645	156.68
871.812	176.21
871.98	111.21
872.147	66.23
872.314	99.03
872.482	86.43
872.649	90.5
872.816	115.17
872.983	163.35
873.15	177.85
873.318	176.48
873.485	274.09
873.652	223.5
873.819	258.38
873.986	256.84
874.153	232.07
874.32	195.14
874.487	250.43
874.654	233.33
874.821	179.07
874.988	163.88
875.155	174.51
875.322	171.52
875.489	190.95
875.656	201.36
875.823	140.16
875.99	118.54
876.157	84.75
876.324	99.05
876.49	77.04
876.657	111.7
876.824	125.95
876.991	183.29
877.157	144.43
877.324	144.29
877.491	109.74
877.658	197.8
877.824	344.11
877.991	223.65
878.157	292.54
878.324	408.43
878.491	566.07
878.657	141.84
878.824	157.4
878.99	19.35
879.157	54.92
879.323	161.19
879.49	221.62
879.656	93.1
879.823	122.19
879.989	73.5
880.156	75.74
880.322	108.54
880.488	128.39
880.655	120.94
880.821	127.02
880.987	111.84
881.154	80.72
881.32	79.74
881.486	76
881.652	74.49
881.819	75.31
881.985	73.93
882.151	68.89
882.317	65.08
882.483	54.84
882.649	51.35
882.816	48.3
882.982	50.38
883.148	47.94
883.314	44.13
883.48	42.32
883.646	40.81
883.812	40.89
883.978	38.49
884.144	36.06
884.31	38.09
884.476	38.26
884.642	39.47
884.807	40.6
884.973	39.05
885.139	39.23
885.305	37.97
885.471	36.02
885.637	32.67
885.802	35.09
885.968	35.44
886.134	36.68
886.3	30.37
886.465	31.97
886.631	25.1
886.797	27.59
886.962	30.84
887.128	37.72
887.293	44.64
887.459	50.14
887.625	51.61
887.79	54.78
887.956	52.24
888.121	57.68
888.287	55.24
888.452	60.42
888.618	64.73
888.783	76.06
