Data from 2937835_Reflection_2.txt Node
Date: Wed Jul 15 16:33:10 EDT 2015
User: robert
Spectrometer: USB4E03001
Autoset integration time: false
Trigger mode: 4
Integration Time (sec): 1.000000E-1
Scans to average: 10
Electric dark correction enabled: true
Nonlinearity correction enabled: false
Boxcar width: 5
Stray light correction enabled: false
XAxis mode: Wavelengths
Stop averaging: false
Number of Pixels in Spectrum: 3648
>>>>>Begin Spectral Data<<<<<
177.566	187.87
177.785	186.63
178.005	-119.55
178.225	56.95
178.445	101.1
178.665	192.55
178.885	97.89
179.105	102.18
179.324	97.41
179.544	71.19
179.764	94.19
179.984	133.92
180.204	-315.13
180.423	-106.53
180.643	-11.4
180.863	4.8
181.083	-54.33
181.302	2063
181.522	1901
181.742	-334.17
181.961	-283.58
182.181	-122.61
182.401	-150.12
182.621	-1197.15
182.84	-123.85
183.06	-54.68
183.279	-19.52
183.499	-54.62
183.719	-12.68
183.938	-3.87
184.158	8.54
184.377	18.58
184.597	13.81
184.816	-8.53
185.036	-12.38
185.256	-25.25
185.475	-19.28
185.695	-18.8
185.914	25.94
186.134	50.33
186.353	48.59
186.572	44.97
186.792	18.25
187.011	37.26
187.231	56.98
187.45	71.22
187.67	97.8
187.889	79.79
188.108	78.07
188.328	98.58
188.547	144.34
188.766	114.42
188.986	94.23
189.205	98.16
189.424	90.32
189.644	70.68
189.863	64.23
190.082	44.89
190.302	22.73
190.521	37.55
190.74	5.24
190.959	-18.63
191.178	-84.22
191.398	-391.8
191.617	-157.41
191.836	-163.82
192.055	-122.08
192.274	-137.81
192.494	-106.72
192.713	-0.89
192.932	-139.18
193.151	34.74
193.37	40.17
193.589	58.59
193.808	51.64
194.027	46.32
194.246	37.87
194.465	32.79
194.685	26.2
194.904	36.7
195.123	40.55
195.342	72.36
195.561	64.65
195.78	76.41
195.999	96.97
196.218	109.16
196.436	314.55
196.655	183.75
196.874	162.02
197.093	-2215.38
197.312	-28.62
197.531	42.15
197.75	360.66
197.969	211.9
198.188	186.19
198.407	-271.6
198.625	3.82
198.844	19.75
199.063	20.14
199.282	3.87
199.501	7.36
199.719	20.01
199.938	9.31
200.157	19.79
200.376	8.38
200.594	-1.11
200.813	10.66
201.032	10.54
201.251	4.36
201.469	8.58
201.688	16.2
201.907	28.25
202.125	26.77
202.344	38.56
202.563	31.77
202.781	35.35
203	26.73
203.218	32.13
203.437	24.78
203.656	22.35
203.874	20.1
204.093	20.97
204.311	28.04
204.53	32.24
204.748	31.09
204.967	20.56
205.185	35.55
205.404	28.67
205.622	24.91
205.841	37.43
206.059	21.18
206.278	17.74
206.496	25.33
206.715	-17.44
206.933	-155.49
207.151	-381.93
207.37	8080.77
207.588	700.38
207.806	-320.97
208.025	-386.09
208.243	-289.45
208.461	-106.57
208.68	24.5
208.898	92.62
209.116	179.03
209.335	115.23
209.553	292.89
209.771	274.19
209.989	167.89
210.208	154.3
210.426	127.2
210.644	142.73
210.862	115.03
211.081	74.61
211.299	49.69
211.517	36.27
211.735	31.61
211.953	36.79
212.171	10.43
212.39	24.1
212.608	28.65
212.826	16.05
213.044	16.82
213.262	22.76
213.48	29.02
213.698	34.63
213.916	48.05
214.134	53.19
214.352	40.69
214.57	70.87
214.788	72.99
215.006	80.88
215.224	84.05
215.442	67.92
215.66	48.87
215.878	39.85
216.096	28.31
216.314	28.82
216.532	19.76
216.75	36.98
216.968	7.91
217.185	0.74
217.403	-9.59
217.621	2.63
217.839	-15.32
218.057	12.36
218.275	29.7
218.492	49.04
218.71	33.79
218.928	18.14
219.146	1.19
219.363	33.35
219.581	49.24
219.799	63.97
220.017	70.68
220.234	67.9
220.452	71.26
220.67	59.61
220.887	71.16
221.105	80.42
221.323	68.83
221.54	62.81
221.758	55.7
221.976	50.76
222.193	47.83
222.411	23.03
222.629	30.86
222.846	24.41
223.064	5.13
223.281	-4.66
223.499	-28.51
223.716	-2.36
223.934	-21.62
224.151	-38.69
224.369	-22.96
224.586	-31.9
224.804	-21.32
225.021	-17.04
225.239	-20.23
225.456	-7.9
225.674	-3.07
225.891	11.91
226.108	4.76
226.326	14.87
226.543	16.91
226.76	19.06
226.978	16.36
227.195	16.37
227.413	14.91
227.63	15.2
227.847	14.46
228.064	12.5
228.282	16.05
228.499	14.87
228.716	14.78
228.934	17.11
229.151	16.95
229.368	17.98
229.585	17.53
229.802	14.42
230.02	14.16
230.237	12.14
230.454	11.52
230.671	10.35
230.888	10.04
231.105	10.47
231.323	11.5
231.54	12.82
231.757	9.07
231.974	7.17
232.191	13.25
232.408	9.22
232.625	16.35
232.842	12.72
233.059	5.99
233.276	10.64
233.493	6.74
233.71	-4.06
233.927	-2.05
234.144	3.12
234.361	3.63
234.578	0.44
234.795	9.27
235.012	4.38
235.229	5
235.446	7.3
235.663	8.69
235.879	7.89
236.096	15.23
236.313	12.22
236.53	18.34
236.747	24.31
236.964	26.17
237.181	22.21
237.397	26.72
237.614	26.35
237.831	24.55
238.048	22.85
238.264	23.25
238.481	18.96
238.698	16.63
238.915	9.81
239.131	10.56
239.348	7.86
239.565	8.29
239.781	5.26
239.998	7.88
240.215	12.46
240.431	17.58
240.648	18.79
240.865	18.82
241.081	19.37
241.298	20.88
241.514	14.78
241.731	16.98
241.947	15.47
242.164	16.55
242.38	16.99
242.597	18.18
242.814	16.02
243.03	15.83
243.246	16.71
243.463	17.78
243.679	15.92
243.896	18.57
244.112	19.96
244.329	21.51
244.545	19.98
244.762	18.59
244.978	14.55
245.194	13.5
245.411	13.01
245.627	9.92
245.843	8.22
246.06	9.25
246.276	8.73
246.492	7.84
246.709	7.43
246.925	7.2
247.141	9.17
247.357	9.25
247.574	9.84
247.79	9.93
248.006	10.61
248.222	10.86
248.439	11.25
248.655	11.3
248.871	10.16
249.087	10.91
249.303	11.76
249.519	9.81
249.736	12.61
249.952	13
250.168	12.76
250.384	11.41
250.6	10.11
250.816	9.85
251.032	8.73
251.248	9.91
251.464	9
251.68	9.01
251.896	10.15
252.112	9.1
252.328	10.31
252.544	10.46
252.76	10.69
252.976	11.1
253.192	11.08
253.408	10.91
253.624	11.67
253.84	13.32
254.056	13.04
254.272	12.97
254.487	9.08
254.703	7.61
254.919	9.43
255.135	13.38
255.351	13.77
255.567	15.18
255.782	18.88
255.998	16.55
256.214	12.94
256.43	15.39
256.646	13.21
256.861	14.6
257.077	14.07
257.293	12.19
257.508	10.22
257.724	10.66
257.94	8.32
258.155	6.54
258.371	8.8
258.587	8.95
258.802	8.21
259.018	9.29
259.234	10.66
259.449	9.81
259.665	9.17
259.88	8.3
260.096	7.7
260.312	8.4
260.527	8.97
260.743	8.1
260.958	8.17
261.174	7.49
261.389	7.04
261.605	5.55
261.82	5.83
262.036	7.32
262.251	8.74
262.466	8.28
262.682	7.3
262.897	5.13
263.113	6.08
263.328	7.09
263.543	7.76
263.759	7.58
263.974	7.48
264.189	8.8
264.405	6.68
264.62	3.96
264.835	6.07
265.051	7.49
265.266	11.71
265.481	11.2
265.696	10.48
265.912	12.64
266.127	12.6
266.342	12.14
266.557	12.03
266.773	12.63
266.988	13.83
267.203	13.15
267.418	11.79
267.633	10.24
267.848	10.53
268.064	11.02
268.279	11.13
268.494	11.75
268.709	13.22
268.924	10.43
269.139	9.59
269.354	9.38
269.569	7.84
269.784	7.72
269.999	6.17
270.214	4.96
270.429	4.45
270.644	3.39
270.859	3.81
271.074	3.2
271.289	4.51
271.504	5.39
271.719	6.53
271.934	7.45
272.149	8.59
272.363	10.82
272.578	11.9
272.793	11.87
273.008	11.33
273.223	10.74
273.438	10.63
273.653	11.49
273.867	10.21
274.082	9.74
274.297	10.75
274.512	9.67
274.726	7.96
274.941	7.84
275.156	7.1
275.371	7.24
275.585	6.66
275.8	6.1
276.015	6.58
276.229	7.28
276.444	8.55
276.659	8.44
276.873	8.71
277.088	8.64
277.302	8.14
277.517	10.95
277.732	11.96
277.946	11.35
278.161	11.47
278.375	8.41
278.59	8.03
278.804	5.73
279.019	6.91
279.233	6.82
279.448	5.5
279.662	5.57
279.877	2.55
280.091	1.89
280.306	2.59
280.52	3.05
280.735	3.59
280.949	4.85
281.163	5.32
281.378	4.42
281.592	6.69
281.806	8.36
282.021	7.25
282.235	7.87
282.449	8.71
282.664	8.97
282.878	9.77
283.092	11.5
283.307	12.43
283.521	12.34
283.735	11.67
283.949	10.76
284.164	11.07
284.378	11.96
284.592	11.55
284.806	11.05
285.02	9.44
285.234	8.32
285.449	7.12
285.663	6.39
285.877	7.17
286.091	7.54
286.305	7.45
286.519	7.22
286.733	5.81
286.947	5.66
287.161	5.42
287.375	7.26
287.589	8.61
287.803	9.32
288.017	8.1
288.231	7.2
288.445	7.19
288.659	7.01
288.873	8.83
289.087	11.01
289.301	11.21
289.515	10.01
289.729	9.88
289.943	9.74
290.157	9.62
290.371	10.58
290.584	10.08
290.798	8.19
291.012	6.07
291.226	4.2
291.44	2.42
291.654	2.42
291.867	2.85
292.081	4.3
292.295	3.3
292.509	4.57
292.722	4.9
292.936	4.63
293.15	7.04
293.364	9.89
293.577	10.12
293.791	11.85
294.005	13.03
294.218	13.52
294.432	11.83
294.645	12.39
294.859	11.5
295.073	11.61
295.286	12.78
295.5	12.93
295.713	12.69
295.927	12.54
296.14	11.45
296.354	9.94
296.568	10.19
296.781	10.56
296.994	9.83
297.208	9.53
297.421	8.83
297.635	8.05
297.848	7.93
298.062	7.17
298.275	6.91
298.489	6.85
298.702	7.1
298.915	6.26
299.129	4.41
299.342	6.46
299.555	4.71
299.769	6.42
299.982	6.75
300.195	7.07
300.409	6.73
300.622	6.37
300.835	7.57
301.048	7.07
301.262	6.72
301.475	8.71
301.688	7.44
301.901	8.83
302.115	7.26
302.328	6.63
302.541	5.6
302.754	7.07
302.967	7.64
303.18	6.88
303.393	7.86
303.607	9.08
303.82	10.67
304.033	8.96
304.246	8.95
304.459	8.67
304.672	8.71
304.885	9.6
305.098	8.85
305.311	9.65
305.524	9.6
305.737	9.34
305.95	9.82
306.163	8.08
306.376	10.11
306.589	9.55
306.802	10.15
307.015	13.08
307.228	11.84
307.44	11.77
307.653	12.19
307.866	13.24
308.079	13.95
308.292	11.68
308.505	12.32
308.718	10.25
308.93	10.55
309.143	10.36
309.356	8.87
309.569	9.97
309.781	10.81
309.994	10.91
310.207	9.35
310.42	8.19
310.632	9.24
310.845	7.52
311.058	8.24
311.27	7.99
311.483	8.01
311.696	7.92
311.908	7.77
312.121	7.15
312.333	5.73
312.546	6.97
312.759	7.05
312.971	7.25
313.184	6.32
313.396	6.24
313.609	6.67
313.821	4.79
314.034	3.7
314.246	4.03
314.459	4.07
314.671	5.15
314.884	3.93
315.096	4.23
315.309	4.41
315.521	5.28
315.733	6.53
315.946	6.65
316.158	8.48
316.371	8.91
316.583	6.96
316.795	6.54
317.008	5.76
317.22	6.93
317.432	7.09
317.644	7.59
317.857	8.88
318.069	8.8
318.281	8.49
318.494	8.13
318.706	8.72
318.918	10.92
319.13	10.43
319.342	11.17
319.555	12.09
319.767	12.37
319.979	11.65
320.191	11.95
320.403	11.01
320.615	11.65
320.827	12.37
321.039	12.84
321.252	11.84
321.464	12.21
321.676	11.38
321.888	10.12
322.1	11.81
322.312	14.11
322.524	13.89
322.736	14.37
322.948	13.18
323.16	13.53
323.372	13.44
323.584	13.76
323.796	14.57
324.007	14.12
324.219	13.66
324.431	12.85
324.643	10.51
324.855	9.7
325.067	8.96
325.279	9.71
325.491	7.68
325.702	7.19
325.914	6.95
326.126	6.49
326.338	7.24
326.55	7.86
326.761	7.21
326.973	7.79
327.185	7.45
327.396	6.72
327.608	6.61
327.82	9.01
328.032	6.3
328.243	7.72
328.455	8.62
328.666	7.13
328.878	7.75
329.09	8.65
329.301	8.56
329.513	9.06
329.725	10.17
329.936	10.65
330.148	9.07
330.359	10.43
330.571	9.29
330.782	8.9
330.994	8.77
331.205	8.26
331.417	7.42
331.628	7.27
331.84	8.69
332.051	8.55
332.262	8.06
332.474	9.6
332.685	11.8
332.897	11.11
333.108	10.46
333.319	10.73
333.531	9.41
333.742	10.68
333.953	9.77
334.165	8.56
334.376	8.11
334.587	10.49
334.799	10.33
335.01	9.03
335.221	9.85
335.432	11.23
335.644	12.36
335.855	14.16
336.066	12.27
336.277	13.04
336.488	13.8
336.7	15.14
336.911	15.22
337.122	15.05
337.333	15.68
337.544	14.5
337.755	13.41
337.966	13.44
338.177	12.68
338.388	13.91
338.599	13.39
338.811	11.86
339.022	10.6
339.233	8.38
339.444	8.13
339.655	9.77
339.866	11.15
340.076	12.29
340.287	11.85
340.498	12.06
340.709	11.94
340.92	13.6
341.131	15.87
341.342	16.68
341.553	17.66
341.764	18.03
341.975	17.19
342.185	16.79
342.396	17.92
342.607	18.89
342.818	18.88
343.029	19.52
343.239	18.39
343.45	18.38
343.661	18.37
343.872	18
344.082	17.31
344.293	16.63
344.504	17.54
344.714	14.99
344.925	13.89
345.136	14.36
345.346	13.31
345.557	13.32
345.768	13.26
345.978	13.31
346.189	12.02
346.399	12.05
346.61	11.83
346.821	11.1
347.031	11.78
347.242	11.15
347.452	9.32
347.663	10.53
347.873	10.51
348.084	11.04
348.294	10.55
348.504	12.11
348.715	12.48
348.925	11.71
349.136	11.75
349.346	11.36
349.557	12.87
349.767	15.04
349.977	13.94
350.188	14.96
350.398	14.19
350.608	15.38
350.819	14.36
351.029	15.02
351.239	16.92
351.449	16.98
351.66	17.36
351.87	16.92
352.08	16.34
352.29	16.43
352.501	15.87
352.711	15.53
352.921	15.4
353.131	16.5
353.341	16.3
353.552	16.13
353.762	16.42
353.972	17.43
354.182	18.31
354.392	17.82
354.602	17.1
354.812	17.11
355.022	16.55
355.232	15.62
355.442	15.29
355.652	15.37
355.862	13.88
356.072	13.43
356.282	12.6
356.492	11.16
356.702	10.32
356.912	11.29
357.122	11.17
357.332	11.85
357.542	13.12
357.752	13.09
357.962	12.39
358.171	12.86
358.381	12.3
358.591	11.87
358.801	12.56
359.011	12.88
359.221	12.44
359.43	13.02
359.64	12.13
359.85	10.15
360.06	9.58
360.269	9.18
360.479	10.05
360.689	10.97
360.899	11.9
361.108	12.87
361.318	13.13
361.528	13.66
361.737	13.17
361.947	13.56
362.156	14.75
362.366	15.46
362.576	16.57
362.785	15.8
362.995	15.88
363.204	15.84
363.414	14.79
363.623	14.87
363.833	14.64
364.042	14.85
364.252	14.72
364.461	14.36
364.671	14.43
364.88	13.63
365.09	14.99
365.299	15.19
365.509	15.23
365.718	15.52
365.927	15.23
366.137	14.73
366.346	13.76
366.555	13.94
366.765	13.6
366.974	13.62
367.183	13.48
367.393	12.09
367.602	11.12
367.811	10.48
368.021	9.72
368.23	9.97
368.439	9.84
368.648	10.66
368.857	10.93
369.067	10.36
369.276	9.03
369.485	9.37
369.694	9.31
369.903	9.3
370.112	9.38
370.321	10.29
370.531	9.97
370.74	10.13
370.949	10.34
371.158	10.01
371.367	10.89
371.576	11.69
371.785	11.79
371.994	11.79
372.203	12.17
372.412	12.38
372.621	12.21
372.83	13.21
373.039	13.09
373.248	12.5
373.457	12.22
373.666	12.12
373.874	11.99
374.083	11.95
374.292	12.26
374.501	12.11
374.71	11.75
374.919	12.03
375.128	11.21
375.336	10.58
375.545	11.11
375.754	10.69
375.963	10.41
376.171	10.08
376.38	9.87
376.589	9.74
376.798	9.74
377.006	10.47
377.215	9.75
377.424	9.74
377.632	10.99
377.841	10.59
378.05	11.83
378.258	11.36
378.467	11.51
378.675	11.74
378.884	11.94
379.093	12.13
379.301	11.16
379.51	11.25
379.718	11.41
379.927	10.78
380.135	11.35
380.344	10.91
380.552	11.48
380.761	11.56
380.969	11.41
381.177	11.45
381.386	10.96
381.594	11.78
381.803	11.54
382.011	11.4
382.219	11.35
382.428	10.95
382.636	10.89
382.845	10.83
383.053	10.63
383.261	10.36
383.469	10.45
383.678	10.42
383.886	10.07
384.094	9.74
384.302	9.68
384.511	9.85
384.719	10.08
384.927	9.77
385.135	9.35
385.343	9.66
385.552	9.3
385.76	8.99
385.968	8.98
386.176	8.69
386.384	9.39
386.592	9.65
386.8	9.55
387.008	9.3
387.216	9.41
387.424	9.68
387.633	9.28
387.841	9.82
388.049	9.72
388.257	10.38
388.465	10.19
388.672	9.94
388.88	9.77
389.088	10.01
389.296	10.18
389.504	9.57
389.712	9.49
389.92	9.55
390.128	8.96
390.336	8.91
390.544	8.2
390.751	8.32
390.959	8.26
391.167	8.05
391.375	7.87
391.583	7.92
391.79	8.71
391.998	8.78
392.206	8.75
392.414	8.79
392.621	8.8
392.829	8.82
393.037	8.92
393.244	9.02
393.452	9.14
393.66	8.62
393.867	8.32
394.075	7.79
394.283	7.92
394.49	8.06
394.698	8.28
394.905	8.35
395.113	8.18
395.32	8.24
395.528	7.95
395.735	7.71
395.943	7.87
396.15	7.77
396.358	7.86
396.565	7.58
396.773	7.03
396.98	7.21
397.188	6.52
397.395	6.67
397.602	6.4
397.81	6.31
398.017	6.21
398.225	6.76
398.432	6.76
398.639	6.92
398.847	6.59
399.054	6.56
399.261	6.06
399.468	6.61
399.676	6.88
399.883	6.96
400.09	6.96
400.297	6.62
400.505	6.39
400.712	6.59
400.919	6.37
401.126	6.6
401.333	7
401.54	7.45
401.748	7.4
401.955	6.87
402.162	6.73
402.369	7
402.576	7
402.783	6.99
402.99	6.89
403.197	7.02
403.404	7.17
403.611	6.98
403.818	7.1
404.025	7.11
404.232	7.41
404.439	7.52
404.646	7.22
404.853	7.61
405.06	7.44
405.267	7.6
405.474	7.42
405.681	7.4
405.887	7.62
406.094	7.31
406.301	7.35
406.508	7.25
406.715	7.25
406.922	7.25
407.128	7.29
407.335	7.18
407.542	6.69
407.749	6.79
407.955	6.66
408.162	6.97
408.369	7.19
408.575	7.07
408.782	6.72
408.989	6.7
409.195	7.1
409.402	6.97
409.609	6.96
409.815	7.22
410.022	7.32
410.228	7.39
410.435	7.06
410.642	6.72
410.848	6.76
411.055	7.27
411.261	7.24
411.468	6.69
411.674	6.76
411.881	6.93
412.087	6.82
412.294	6.99
412.5	7.13
412.706	7.06
412.913	7.16
413.119	7.2
413.326	6.96
413.532	7.14
413.738	7.36
413.945	7.41
414.151	7.21
414.357	7.16
414.564	6.65
414.77	6.43
414.976	6.41
415.182	6.38
415.389	6.63
415.595	6.74
415.801	6.58
416.007	6.57
416.214	6.43
416.42	6.58
416.626	6.75
416.832	7.06
417.038	7.28
417.244	7.26
417.45	7.3
417.657	7.13
417.863	7.07
418.069	7.1
418.275	7.05
418.481	7.05
418.687	7.14
418.893	7.07
419.099	7
419.305	6.82
419.511	6.88
419.717	6.95
419.923	7.01
420.129	7.04
420.335	6.98
420.541	7.18
420.746	7.39
420.952	7.39
421.158	7.4
421.364	7.45
421.57	7.51
421.776	7.45
421.982	7.35
422.187	7.26
422.393	7.22
422.599	7.27
422.805	7.14
423.01	6.87
423.216	6.81
423.422	6.68
423.628	6.62
423.833	6.56
424.039	6.55
424.245	6.65
424.45	6.72
424.656	6.71
424.862	6.72
425.067	6.73
425.273	6.87
425.478	7.02
425.684	7.19
425.889	7.19
426.095	7.28
426.301	7.32
426.506	7.27
426.712	7.21
426.917	7.13
427.123	7.09
427.328	7.29
427.533	7.32
427.739	7.16
427.944	7.34
428.15	7.37
428.355	7.15
428.561	7.32
428.766	7.42
428.971	7.31
429.177	7.41
429.382	7.42
429.587	7.14
429.793	7.16
429.998	7.14
430.203	6.82
430.408	6.86
430.614	7.08
430.819	6.87
431.024	6.58
431.229	6.84
431.434	7.12
431.64	7.04
431.845	6.99
432.05	6.88
432.255	6.9
432.46	6.96
432.665	6.88
432.87	6.86
433.076	6.81
433.281	7.02
433.486	6.87
433.691	6.66
433.896	6.69
434.101	6.7
434.306	6.72
434.511	6.78
434.716	6.69
434.921	6.69
435.126	6.61
435.331	6.66
435.535	6.31
435.74	6.35
435.945	6.29
436.15	6.21
436.355	6.06
436.56	5.99
436.765	5.89
436.97	6.03
437.174	6.05
437.379	6.14
437.584	6.1
437.789	6.4
437.993	6.23
438.198	6.37
438.403	6.47
438.608	6.59
438.812	6.53
439.017	6.58
439.222	6.47
439.426	6.46
439.631	6.33
439.836	6.33
440.04	6.34
440.245	6.45
440.45	6.46
440.654	6.38
440.859	6.52
441.063	6.59
441.268	6.54
441.472	6.44
441.677	6.46
441.881	6.58
442.086	6.56
442.29	6.53
442.495	6.62
442.699	6.49
442.904	6.51
443.108	6.19
443.312	6.22
443.517	6.27
443.721	6.29
443.925	6.13
444.13	6.14
444.334	6.16
444.538	6.24
444.743	6.09
444.947	6.16
445.151	6.06
445.356	6.23
445.56	6.17
445.764	6.07
445.968	6.1
446.173	6.11
446.377	6.2
446.581	6.36
446.785	6.23
446.989	6.36
447.193	6.34
447.398	6.39
447.602	6.34
447.806	6.34
448.01	6.36
448.214	6.36
448.418	6.48
448.622	6.44
448.826	6.31
449.03	6.36
449.234	6.12
449.438	6.11
449.642	6.32
449.846	6.3
450.05	6.43
450.254	6.59
450.458	6.65
450.662	6.51
450.866	6.47
451.069	6.32
451.273	6.32
451.477	6.52
451.681	6.37
451.885	6.25
452.089	6.44
452.292	6.32
452.496	6.13
452.7	6.09
452.904	6.35
453.107	6.22
453.311	6.29
453.515	6.41
453.719	6.31
453.922	6.28
454.126	6.2
454.33	6.18
454.533	6.27
454.737	6.33
454.94	6.4
455.144	6.28
455.348	6.3
455.551	6.35
455.755	6.28
455.958	6.31
456.162	6.44
456.365	6.57
456.569	6.66
456.772	6.49
456.976	6.44
457.179	6.47
457.383	6.36
457.586	6.39
457.79	6.31
457.993	6.23
458.196	6.2
458.4	6.15
458.603	6
458.807	5.91
459.01	5.93
459.213	6.09
459.417	5.95
459.62	5.95
459.823	6.02
460.026	6.05
460.23	6.04
460.433	6.02
460.636	5.92
460.839	6.06
461.042	6.04
461.246	6.09
461.449	5.98
461.652	6.16
461.855	6.41
462.058	6.32
462.261	6.33
462.464	6.46
462.668	6.42
462.871	6.75
463.074	6.68
463.277	6.69
463.48	6.58
463.683	6.36
463.886	6.27
464.089	6.1
464.292	5.9
464.495	5.96
464.698	5.89
464.901	5.92
465.104	5.69
465.306	5.61
465.509	5.47
465.712	5.44
465.915	5.53
466.118	5.51
466.321	5.43
466.524	5.62
466.726	5.67
466.929	5.78
467.132	5.77
467.335	5.84
467.538	5.89
467.74	6.11
467.943	6.19
468.146	6.31
468.348	6.56
468.551	6.66
468.754	6.56
468.956	6.49
469.159	6.42
469.362	6.38
469.564	6.39
469.767	6.53
469.969	6.23
470.172	6.26
470.375	6.21
470.577	5.91
470.78	5.93
470.982	6.24
471.185	6.41
471.387	6.19
471.59	6.42
471.792	6.47
471.995	6.4
472.197	6.61
472.399	6.65
472.602	6.68
472.804	6.74
473.007	6.71
473.209	6.57
473.411	6.44
473.614	6.41
473.816	6.19
474.018	6.29
474.22	6.15
474.423	6.13
474.625	6.14
474.827	6.13
475.03	6.15
475.232	6.08
475.434	6.1
475.636	5.95
475.838	6.3
476.04	6.4
476.243	6.36
476.445	6.32
476.647	6.35
476.849	6.34
477.051	6.33
477.253	6.28
477.455	6.26
477.657	6.3
477.859	6.42
478.061	6.19
478.263	6.13
478.465	5.99
478.667	6.21
478.869	6.22
479.071	6.14
479.273	6.15
479.475	6.07
479.677	6.05
479.879	6.11
480.081	6.04
480.283	6.18
480.485	6.26
480.686	6.31
480.888	6.17
481.09	6.16
481.292	6.15
481.494	6.21
481.695	6.24
481.897	6.2
482.099	6.1
482.301	6.2
482.502	6.11
482.704	6.07
482.906	6.2
483.107	6.25
483.309	6.24
483.511	6.25
483.712	6.23
483.914	6.27
484.115	6.3
484.317	6.28
484.519	6.26
484.72	6.23
484.922	6.22
485.123	6.18
485.325	6.1
485.526	6.12
485.728	6.14
485.929	6.16
486.131	6.11
486.332	6.07
486.534	6.07
486.735	6.08
486.936	6.16
487.138	6.18
487.339	6.13
487.541	6.13
487.742	6.08
487.943	6.06
488.144	6.04
488.346	6.13
488.547	6.2
488.748	6.23
488.95	6.27
489.151	6.24
489.352	6.2
489.553	6.17
489.755	6.17
489.956	6.22
490.157	6.24
490.358	6.18
490.559	6.17
490.76	6.19
490.961	6.13
491.163	6.1
491.364	6.2
491.565	6.24
491.766	6.27
491.967	6.36
492.168	6.31
492.369	6.31
492.57	6.35
492.771	6.3
492.972	6.24
493.173	6.24
493.374	6.3
493.575	6.24
493.776	6.32
493.976	6.27
494.177	6.26
494.378	6.5
494.579	6.5
494.78	6.51
494.981	6.33
495.182	6.41
495.382	6.52
495.583	6.35
495.784	6.36
495.985	6.17
496.185	6.26
496.386	6.27
496.587	6.19
496.788	6.25
496.988	6.26
497.189	6.44
497.39	6.23
497.59	6.2
497.791	6.15
497.992	6.11
498.192	6.18
498.393	6.15
498.593	6.01
498.794	5.91
498.994	5.92
499.195	5.91
499.395	5.87
499.596	6.04
499.796	5.91
499.997	5.99
500.197	5.96
500.398	6.05
500.598	6.12
500.799	6.29
500.999	6.35
501.199	6.38
501.4	6.38
501.6	6.47
501.801	6.58
502.001	6.59
502.201	6.75
502.402	6.99
502.602	7.01
502.802	6.95
503.002	6.94
503.203	6.97
503.403	6.92
503.603	6.93
503.803	6.78
504.003	6.57
504.204	6.76
504.404	6.68
504.604	6.67
504.804	6.66
505.004	6.82
505.204	6.92
505.404	6.77
505.604	6.82
505.804	6.75
506.005	6.61
506.205	6.57
506.405	6.47
506.605	6.55
506.805	6.5
507.005	6.6
507.204	6.48
507.404	6.41
507.604	6.55
507.804	6.45
508.004	6.49
508.204	6.77
508.404	6.84
508.604	6.84
508.804	6.53
509.003	6.54
509.203	6.52
509.403	6.62
509.603	6.6
509.803	6.58
510.002	6.6
510.202	6.69
510.402	6.65
510.602	6.73
510.801	6.62
511.001	6.74
511.201	6.72
511.4	6.6
511.6	6.5
511.8	6.48
511.999	6.51
512.199	6.54
512.398	6.4
512.598	6.38
512.797	6.35
512.997	6.5
513.197	6.68
513.396	6.69
513.596	6.64
513.795	6.65
513.994	6.63
514.194	6.58
514.393	6.67
514.593	6.88
514.792	6.99
514.992	7.04
515.191	7.11
515.39	7.02
515.59	7.18
515.789	7.29
515.988	7.37
516.188	7.48
516.387	7.52
516.586	7.49
516.786	7.45
516.985	7.41
517.184	7.58
517.383	7.58
517.582	7.64
517.782	7.45
517.981	7.46
518.18	7.44
518.379	7.52
518.578	7.59
518.777	7.48
518.976	7.47
519.176	7.49
519.375	7.44
519.574	7.3
519.773	7.24
519.972	7.29
520.171	7.27
520.37	7.26
520.569	7.22
520.768	7.27
520.967	7.5
521.166	7.45
521.365	7.39
521.564	7.17
521.762	7.37
521.961	7.37
522.16	7.54
522.359	7.61
522.558	7.53
522.757	7.5
522.956	7.15
523.154	7.04
523.353	6.99
523.552	6.9
523.751	7.15
523.949	7.29
524.148	7.37
524.347	7.27
524.546	7.34
524.744	7.45
524.943	7.6
525.142	7.92
525.34	7.94
525.539	8.07
525.737	8.3
525.936	8.35
526.135	8.21
526.333	8.26
526.532	8.17
526.73	8.11
526.929	8.13
527.127	8.04
527.326	7.9
527.524	7.86
527.723	7.83
527.921	7.76
528.12	7.72
528.318	7.73
528.516	7.67
528.715	7.83
528.913	7.87
529.112	7.92
529.31	7.95
529.508	8
529.707	8.06
529.905	8.08
530.103	8.17
530.301	8.2
530.5	8.27
530.698	8.37
530.896	8.31
531.094	8.32
531.293	8.35
531.491	8.31
531.689	8.35
531.887	8.4
532.085	8.45
532.283	8.43
532.481	8.47
532.68	8.5
532.878	8.54
533.076	8.57
533.274	8.6
533.472	8.54
533.67	8.53
533.868	8.45
534.066	8.49
534.264	8.39
534.462	8.41
534.66	8.4
534.858	8.38
535.056	8.34
535.253	8.35
535.451	8.36
535.649	8.36
535.847	8.54
536.045	8.62
536.243	8.45
536.441	8.64
536.638	8.68
536.836	8.71
537.034	8.62
537.232	8.7
537.43	8.78
537.627	8.77
537.825	8.98
538.023	8.95
538.22	9.12
538.418	9.34
538.616	9.51
538.813	9.49
539.011	9.59
539.209	9.74
539.406	9.71
539.604	9.62
539.801	9.8
539.999	9.78
540.196	9.81
540.394	9.71
540.591	9.69
540.789	9.66
540.986	9.73
541.184	9.75
541.381	9.79
541.579	9.79
541.776	9.84
541.974	9.87
542.171	9.9
542.368	9.9
542.566	9.95
542.763	10
542.96	9.95
543.158	9.95
543.355	9.99
543.552	9.99
543.75	10.1
543.947	10.13
544.144	10.09
544.341	10.07
544.539	10.08
544.736	10.1
544.933	10.19
545.13	10.32
545.327	10.46
545.524	10.51
545.722	10.68
545.919	10.45
546.116	10.5
546.313	10.56
546.51	10.57
546.707	10.73
546.904	10.87
547.101	10.92
547.298	10.83
547.495	10.84
547.692	10.84
547.889	10.82
548.086	11.16
548.283	11.24
548.48	11.2
548.677	11.33
548.874	11.27
549.07	11.24
549.267	11.2
549.464	11.31
549.661	11.2
549.858	11.29
550.055	11.51
550.251	11.54
550.448	11.74
550.645	11.85
550.842	11.97
551.038	12.09
551.235	12.09
551.432	12.13
551.628	12.26
551.825	12.29
552.022	12.42
552.218	12.19
552.415	11.99
552.612	11.95
552.808	12.15
553.005	12.01
553.201	12.15
553.398	12.17
553.594	12.25
553.791	12.27
553.987	12.33
554.184	12.35
554.38	12.62
554.577	12.91
554.773	12.89
554.97	13.04
555.166	13.32
555.362	13.28
555.559	13.63
555.755	13.71
555.952	13.74
556.148	13.87
556.344	13.74
556.541	13.61
556.737	13.7
556.933	13.88
557.129	13.85
557.326	13.9
557.522	13.88
557.718	13.78
557.914	13.88
558.11	14.09
558.307	14.34
558.503	14.66
558.699	14.75
558.895	14.84
559.091	14.75
559.287	14.99
559.483	15
559.679	15.13
559.876	15.24
560.072	15.33
560.268	15.53
560.464	15.26
560.66	15.22
560.856	15.38
561.052	15.33
561.247	15.54
561.443	15.5
561.639	15.49
561.835	15.76
562.031	15.75
562.227	15.79
562.423	15.65
562.619	15.86
562.815	15.94
563.01	16.02
563.206	16.03
563.402	16.04
563.598	15.94
563.793	16.2
563.989	16.1
564.185	16.14
564.381	16.3
564.576	16.33
564.772	16.39
564.968	16.5
565.163	16.56
565.359	16.86
565.555	16.99
565.75	17.18
565.946	17.31
566.141	17.46
566.337	17.62
566.532	17.56
566.728	17.72
566.923	17.79
567.119	17.94
567.314	18.03
567.51	18.11
567.705	18.21
567.901	18.2
568.096	18.09
568.292	18.06
568.487	18.21
568.682	18.33
568.878	18.32
569.073	18.46
569.268	18.61
569.464	18.74
569.659	18.87
569.854	19.04
570.05	19.4
570.245	19.59
570.44	19.81
570.635	19.83
570.831	19.91
571.026	20.04
571.221	20.02
571.416	19.78
571.611	19.75
571.806	19.74
572.002	19.86
572.197	19.78
572.392	19.69
572.587	19.64
572.782	19.8
572.977	19.74
573.172	20.06
573.367	20.16
573.562	20.31
573.757	20.4
573.952	20.43
574.147	20.21
574.342	20.24
574.537	20.39
574.732	20.65
574.927	20.5
575.121	20.77
575.316	20.48
575.511	20.31
575.706	20.59
575.901	20.53
576.096	20.77
576.29	20.95
576.485	20.91
576.68	20.99
576.875	20.69
577.069	20.79
577.264	20.87
577.459	21.18
577.654	21.4
577.848	21.3
578.043	21.51
578.238	21.26
578.432	21.36
578.627	21.82
578.821	21.87
579.016	22.26
579.21	22.19
579.405	22.14
579.6	22.19
579.794	22.45
579.989	22.52
580.183	22.86
580.378	23.1
580.572	22.99
580.766	22.91
580.961	22.97
581.155	22.93
581.35	23.24
581.544	23.31
581.738	23.14
581.933	23.2
582.127	23.09
582.321	22.89
582.516	22.93
582.71	23.14
582.904	23.03
583.099	23.06
583.293	23.15
583.487	23.08
583.681	23.09
583.875	23.08
584.07	23.04
584.264	23.19
584.458	23.05
584.652	23.08
584.846	22.87
585.04	22.99
585.234	22.82
585.428	22.77
585.623	23.09
585.817	23.27
586.011	23.32
586.205	23.29
586.399	23.16
586.593	23.33
586.787	23.39
586.981	23.66
587.174	23.54
587.368	23.76
587.562	23.63
587.756	23.33
587.95	23.14
588.144	23.5
588.338	23.67
588.532	23.89
588.725	23.9
588.919	24.06
589.113	24.07
589.307	23.96
589.501	24.29
589.694	24.25
589.888	24.36
590.082	24.15
590.275	23.96
590.469	24.13
590.663	23.98
590.856	24
591.05	23.91
591.244	23.98
591.437	24.3
591.631	23.99
591.824	24.26
592.018	24.04
592.212	24.38
592.405	24.37
592.599	24.12
592.792	24.54
592.986	24.63
593.179	24.51
593.372	24.5
593.566	24.59
593.759	24.73
593.953	24.92
594.146	25.2
594.339	25.42
594.533	25.7
594.726	25.94
594.92	25.87
595.113	26.03
595.306	25.95
595.499	25.89
595.693	25.89
595.886	25.87
596.079	25.94
596.272	26.02
596.466	25.85
596.659	25.74
596.852	25.65
597.045	25.65
597.238	25.77
597.431	25.72
597.624	25.79
597.818	25.67
598.011	25.49
598.204	25.27
598.397	25.32
598.59	25.39
598.783	25.24
598.976	25.29
599.169	25.55
599.362	25.09
599.555	25.22
599.748	25.24
599.941	25.4
600.134	25.34
600.326	25.29
600.519	25.11
600.712	25.26
600.905	25.29
601.098	25.39
601.291	24.98
601.483	25.54
601.676	25.7
601.869	25.85
602.062	25.81
602.255	26.22
602.447	26.37
602.64	26.52
602.833	26.55
603.025	26.62
603.218	26.7
603.411	26.96
603.603	26.82
603.796	26.87
603.989	26.93
604.181	26.74
604.374	26.72
604.566	26.72
604.759	26.87
604.951	26.93
605.144	26.94
605.336	26.92
605.529	26.75
605.721	26.62
605.914	26.52
606.106	26.5
606.299	26.59
606.491	26.72
606.683	26.77
606.876	26.46
607.068	26.46
607.26	26.52
607.453	26.63
607.645	26.61
607.837	26.77
608.03	26.95
608.222	26.89
608.414	26.93
608.606	26.78
608.799	26.81
608.991	26.92
609.183	26.69
609.375	26.79
609.567	26.55
609.759	26.86
609.952	26.64
610.144	26.68
610.336	26.59
610.528	26.55
610.72	26.6
610.912	26.56
611.104	26.35
611.296	26.42
611.488	26.32
611.68	26.26
611.872	25.96
612.064	26.25
612.256	25.88
612.448	25.81
612.64	25.9
612.832	25.83
613.023	25.86
613.215	26.22
613.407	26.4
613.599	26.39
613.791	26.3
613.983	26.28
614.174	26.47
614.366	26.56
614.558	26.3
614.75	26.34
614.941	26.45
615.133	26.16
615.325	26.22
615.516	25.91
615.708	26.07
615.9	26.43
616.091	26.72
616.283	26.55
616.475	26.85
616.666	27.32
616.858	27.21
617.049	27.27
617.241	27.57
617.432	27.4
617.624	27.54
617.815	27.47
618.007	27.58
618.198	27.54
618.39	27.25
618.581	27.19
618.773	27.22
618.964	27.25
619.155	27.24
619.347	27.32
619.538	27.64
619.729	27.67
619.921	27.35
620.112	27.02
620.303	26.88
620.494	26.95
620.686	27.3
620.877	27.36
621.068	27.29
621.259	27.29
621.451	27.41
621.642	27.2
621.833	27.57
622.024	27.93
622.215	28.21
622.406	28.13
622.597	28.52
622.788	28.21
622.98	28.19
623.171	28.46
623.362	28.63
623.553	28.26
623.744	28.34
623.935	27.98
624.126	28.08
624.317	27.99
624.508	28.21
624.698	27.85
624.889	28.23
625.08	28.35
625.271	28.11
625.462	28.04
625.653	28.34
625.844	28.43
626.034	28.38
626.225	28.48
626.416	28.65
626.607	28.69
626.798	29.11
626.988	28.76
627.179	28.74
627.37	29.01
627.56	29.3
627.751	29.25
627.942	29.23
628.132	29.27
628.323	29.01
628.514	29.06
628.704	28.9
628.895	28.88
629.085	29.31
629.276	29.34
629.466	29.23
629.657	28.99
629.847	28.98
630.038	29.18
630.228	29.3
630.419	29.14
630.609	29.05
630.8	29.11
630.99	28.91
631.181	28.65
631.371	28.85
631.561	29.13
631.752	29.31
631.942	29.58
632.132	29.21
632.323	29.49
632.513	30.12
632.703	29.91
632.893	29.98
633.084	29.98
633.274	29.88
633.464	29.46
633.654	29.06
633.844	28.71
634.034	28.97
634.225	29.19
634.415	29.29
634.605	29.06
634.795	29.45
634.985	29.97
635.175	30.01
635.365	30.25
635.555	30.57
635.745	30.85
635.935	30.9
636.125	30.56
636.315	30.55
636.505	30.33
636.695	30.33
636.885	30.05
637.075	29.45
637.265	29.56
637.455	29.51
637.644	29.6
637.834	29.4
638.024	29.47
638.214	29.08
638.404	29.13
638.593	29.02
638.783	29.15
638.973	29.01
639.163	29.27
639.352	29.22
639.542	28.9
639.732	28.34
639.921	28.52
640.111	28.72
640.301	29.13
640.49	29.21
640.68	29.62
640.87	29.41
641.059	29.51
641.249	29.81
641.438	29.94
641.628	30.2
641.817	30.85
642.007	31.16
642.196	30.81
642.386	30.8
642.575	30.93
642.764	30.54
642.954	30.49
643.143	30.87
643.333	30.33
643.522	30.07
643.711	29.86
643.901	29.07
644.09	28.69
644.279	28.66
644.469	28.51
644.658	28.1
644.847	28.47
645.036	28.94
645.226	28.73
645.415	28.85
645.604	29.15
645.793	29.32
645.982	29.93
646.171	29.97
646.361	30.33
646.55	30.65
646.739	30.71
646.928	30.63
647.117	30.27
647.306	30.26
647.495	30.47
647.684	30.71
647.873	31.32
648.062	31.23
648.251	31.49
648.44	31.28
648.629	31.42
648.818	31.79
649.007	31.33
649.196	31.67
649.384	31.4
649.573	31.11
649.762	30.62
649.951	29.99
650.14	30.03
650.328	29.65
650.517	29.98
650.706	29.97
650.895	29.81
651.083	29.87
651.272	29.74
651.461	29.88
651.65	29.79
651.838	29.8
652.027	29.99
652.216	30.19
652.404	30.39
652.593	30.23
652.781	29.63
652.97	29.9
653.158	30.11
653.347	29.55
653.535	29.72
653.724	29.93
653.912	29.86
654.101	29.84
654.289	29.53
654.478	29.96
654.666	30.25
654.855	30.81
655.043	30.51
655.231	30.5
655.42	31.16
655.608	31.1
655.796	31.16
655.985	31.28
656.173	31.38
656.361	31.51
656.55	31.12
656.738	30.36
656.926	30.12
657.114	29.89
657.302	29.96
657.491	29.73
657.679	29.81
657.867	30.02
658.055	29.84
658.243	29.86
658.431	29.79
658.619	30.08
658.807	30.05
658.996	30.38
659.184	30.94
659.372	30.6
659.56	31.02
659.748	31.2
659.936	31.07
660.124	31.02
660.311	30.68
660.499	30.86
660.687	30.86
660.875	31.3
661.063	31.03
661.251	30.46
661.439	30.94
661.627	30.53
661.814	30.38
662.002	30.33
662.19	30.9
662.378	31.31
662.565	31.21
662.753	31.23
662.941	31.08
663.129	31.01
663.316	31.49
663.504	31.3
663.692	31.07
663.879	31.14
664.067	31.23
664.254	30.86
664.442	30.63
664.63	30.83
664.817	30.63
665.005	31.05
665.192	31.26
665.38	30.93
665.567	30.46
665.755	31.18
665.942	31.01
666.13	30.85
666.317	31.31
666.504	31.42
666.692	31.05
666.879	30.86
667.067	30.47
667.254	30.67
667.441	30.59
667.629	31.36
667.816	30.87
668.003	30.61
668.19	30.4
668.378	30.16
668.565	30.26
668.752	30.88
668.939	31.21
669.127	31.37
669.314	31.14
669.501	31.51
669.688	31.2
669.875	30.99
670.062	31.46
670.249	31.77
670.436	31.68
670.623	31.54
670.81	31.27
670.997	30.94
671.184	30.94
671.371	30.98
671.558	30.77
671.745	30.8
671.932	31.01
672.119	30.96
672.306	31.48
672.493	31.57
672.68	31.73
672.867	31.18
673.054	31.3
673.24	31.39
673.427	31.62
673.614	31.02
673.801	30.92
673.988	31.92
674.174	32.3
674.361	31.71
674.548	31.47
674.734	31.89
674.921	32.41
675.108	32.25
675.294	32.21
675.481	32.16
675.668	33.24
675.854	33.4
676.041	32.29
676.227	32.1
676.414	31.79
676.601	32
676.787	31.3
676.974	31.34
677.16	31.53
677.347	31.86
677.533	31.57
677.719	31.34
677.906	31.93
678.092	32.34
678.279	32.3
678.465	33
678.651	33.51
678.838	33.85
679.024	33.82
679.21	33.77
679.397	33.46
679.583	33.59
679.769	33.51
679.955	32.69
680.142	32.54
680.328	32.33
680.514	32.05
680.7	31.76
680.886	31.47
681.073	31.62
681.259	31.7
681.445	31.6
681.631	32.09
681.817	31.91
682.003	32.07
682.189	32.19
682.375	32.76
682.561	33.2
682.747	32.92
682.933	33.3
683.119	33.08
683.305	33.39
683.491	33.24
683.677	32.24
683.863	32.45
684.049	32.83
684.235	33.12
684.42	32.49
684.606	31.82
684.792	31.98
684.978	31.75
685.164	31.49
685.349	30.91
685.535	31.5
685.721	31.9
685.907	31.8
686.092	31.97
686.278	32.11
686.464	32.12
686.649	32.53
686.835	32.56
687.021	32.13
687.206	32.76
687.392	33.12
687.577	33.05
687.763	33.41
687.948	33.36
688.134	32.83
688.319	32.63
688.505	32.57
688.69	32.06
688.876	32.29
689.061	32.84
689.247	31.97
689.432	31.62
689.618	31.51
689.803	30.87
689.988	31.27
690.174	31.21
690.359	31.29
690.544	31.29
690.73	31.82
690.915	31.6
691.1	31.95
691.285	32.54
691.471	32.41
691.656	32.42
691.841	32.79
692.026	32.57
692.211	32.52
692.396	31.96
692.582	32.23
692.767	32.25
692.952	32.09
693.137	32.15
693.322	32.37
693.507	32.9
693.692	32.68
693.877	32.33
694.062	32.98
694.247	32.98
694.432	33.64
694.617	33.68
694.802	34.28
694.987	34.56
695.172	34
695.357	34.27
695.541	34.48
695.726	34.31
695.911	34.76
696.096	33.82
696.281	34.14
696.466	33.6
696.65	33.38
696.835	32.75
697.02	33
697.204	32.8
697.389	32.33
697.574	32.38
697.759	32.72
697.943	32.89
698.128	33.11
698.312	33.4
698.497	33.6
698.682	34
698.866	33.81
699.051	33.26
699.235	33.72
699.42	33.94
699.604	33.61
699.789	33.5
699.973	33.24
700.158	33.22
700.342	32.89
700.527	33.17
700.711	33.03
700.895	33.01
701.08	33.65
701.264	33.04
701.448	32.72
701.633	33.27
701.817	33.06
702.001	33.43
702.186	33.54
702.37	34.21
702.554	34.43
702.738	33.7
702.923	34.05
703.107	33.47
703.291	33.87
703.475	34.58
703.659	33.67
703.843	33.66
704.027	32.84
704.212	33.36
704.396	32.47
704.58	31.92
704.764	32.71
704.948	32.17
705.132	31.79
705.316	32.42
705.5	31.32
705.684	31.87
705.868	32.33
706.052	32.55
706.235	32.1
706.419	33.55
706.603	33.54
706.787	33.99
706.971	34.79
707.155	35.44
707.339	34.69
707.522	34.67
707.706	34.16
707.89	34.31
708.074	34.73
708.257	35.05
708.441	33.52
708.625	33.42
708.808	32.95
708.992	32.1
709.176	32.36
709.359	33.09
709.543	34.05
709.727	34.63
709.91	34.62
710.094	34.39
710.277	34.39
710.461	34.61
710.644	34.43
710.828	34.57
711.011	35.31
711.195	35.86
711.378	35.61
711.562	34.82
711.745	34.65
711.928	34.26
712.112	34.79
712.295	34.37
712.478	35.04
712.662	35.4
712.845	35.24
713.028	35.1
713.212	34.49
713.395	34.31
713.578	34.34
713.761	35.14
713.945	36.07
714.128	34.78
714.311	34.75
714.494	34.4
714.677	34.07
714.86	33.99
715.043	33.71
715.227	33.09
715.41	32.59
715.593	33.33
715.776	32.43
715.959	31.36
716.142	32.46
716.325	32.77
716.508	33.22
716.691	33.06
716.874	33.96
717.057	34.18
717.239	34.39
717.422	34.64
717.605	34.47
717.788	34.54
717.971	34.87
718.154	35.41
718.337	35.11
718.519	34.91
718.702	36.34
718.885	35.13
719.068	35.39
719.25	36.4
719.433	36.54
719.616	36.91
719.798	36.86
719.981	36.71
720.164	35.91
720.346	36.16
720.529	35.62
720.712	35.27
720.894	35.8
721.077	35.68
721.259	35.12
721.442	34.76
721.624	34.15
721.807	34.82
721.989	35.04
722.172	34.52
722.354	33.97
722.537	34.04
722.719	33.42
722.901	33.03
723.084	32.99
723.266	32.23
723.448	33.27
723.631	33.74
723.813	33.56
723.995	33.8
724.178	34.23
724.36	35.17
724.542	36.13
724.724	35.49
724.907	36.23
725.089	35.89
725.271	36.52
725.453	36.43
725.635	35.91
725.817	36.03
725.999	35
726.181	36.35
726.364	36.22
726.546	34.68
726.728	35.18
726.91	34.38
727.092	34.42
727.274	34.23
727.456	33.66
727.638	33.71
727.819	33.19
728.001	33.9
728.183	32.67
728.365	32.57
728.547	33.05
728.729	32.46
728.911	32.92
729.093	33.46
729.274	34.71
729.456	34.73
729.638	35
729.82	35.36
730.001	34.2
730.183	34.02
730.365	34.48
730.546	34.98
730.728	34.5
730.91	33.95
731.091	33.68
731.273	32.23
731.455	31.96
731.636	32.82
731.818	32.36
731.999	33.93
732.181	34.04
732.362	33.16
732.544	32.6
732.725	33.49
732.907	33.47
733.088	33.42
733.27	33.83
733.451	34.39
733.633	32.38
733.814	33.03
733.995	31.98
734.177	30.94
734.358	31.2
734.539	32.7
734.721	32.34
734.902	33.04
735.083	32.91
735.264	33.39
735.446	33.69
735.627	35.52
735.808	34.68
735.989	35.82
736.17	36.65
736.351	36.59
736.533	35.6
736.714	36.07
736.895	35.01
737.076	35.13
737.257	35.18
737.438	34.53
737.619	32.85
737.8	33.63
737.981	33.58
738.162	34.32
738.343	33.91
738.524	33.58
738.705	33.81
738.886	34.37
739.067	34.55
739.247	33.7
739.428	33.65
739.609	34.65
739.79	34.52
739.971	33.98
740.151	33.99
740.332	35.02
740.513	36.18
740.694	36.29
740.874	35.58
741.055	34.91
741.236	35.19
741.417	36.12
741.597	35.48
741.778	35.36
741.958	35.74
742.139	36.51
742.32	34.89
742.5	33.71
742.681	33.56
742.861	35.46
743.042	36.4
743.222	37.01
743.403	36.55
743.583	37.77
743.764	38.72
743.944	37.35
744.124	36.55
744.305	38.16
744.485	38.65
744.666	38.74
744.846	37.84
745.026	37.23
745.207	37.47
745.387	36.2
745.567	35.99
745.747	36.02
745.928	38.09
746.108	36.71
746.288	37.31
746.468	35.54
746.648	36.2
746.829	35.58
747.009	35.72
747.189	35.73
747.369	37.84
747.549	37.27
747.729	36.81
747.909	34.71
748.089	36.1
748.269	35.36
748.449	36.24
748.629	35.77
748.809	36.33
748.989	38.06
749.169	37.31
749.349	36.49
749.529	36.74
749.709	36.93
749.889	38.85
750.068	38.82
750.248	37.63
750.428	38.38
750.608	38.82
750.788	37.88
750.967	37.63
751.147	37.77
751.327	37.18
751.507	36.66
751.686	36.84
751.866	35.48
752.046	35.56
752.225	37.24
752.405	36.63
752.585	35.07
752.764	36.76
752.944	34.56
753.123	34.31
753.303	34.68
753.482	34.74
753.662	33.77
753.841	35.98
754.021	35.41
754.2	34.26
754.38	34.06
754.559	35.24
754.739	33.77
754.918	36
755.097	36.31
755.277	36.72
755.456	37.16
755.635	37.74
755.815	37.33
755.994	37.55
756.173	38.16
756.352	38.46
756.532	38.41
756.711	39.43
756.89	38.67
757.069	39.01
757.248	38.82
757.427	39.75
757.607	38.59
757.786	36.81
757.965	38.16
758.144	37.88
758.323	37.38
758.502	36.79
758.681	37.03
758.86	35.87
759.039	35.81
759.218	35.53
759.397	33.58
759.576	32.21
759.755	32.63
759.934	30.66
760.113	30.68
760.291	31.59
760.47	31.11
760.649	30.61
760.828	30.54
761.007	30.26
761.186	30.67
761.364	31.58
761.543	33.19
761.722	33.65
761.901	34.78
762.079	35.1
762.258	34.99
762.437	35.67
762.615	36.52
762.794	37.41
762.972	37.06
763.151	37.04
763.33	36.76
763.508	37.49
763.687	37.42
763.865	37.68
764.044	37.03
764.222	36.87
764.401	37.21
764.579	36.61
764.758	35.82
764.936	35.62
765.114	35.51
765.293	35.09
765.471	34.08
765.65	33.86
765.828	32.85
766.006	32.91
766.184	33.46
766.363	33.5
766.541	32.91
766.719	33.62
766.898	34.39
767.076	33.75
767.254	34.95
767.432	35.66
767.61	36.22
767.788	35.77
767.967	35.32
768.145	34.62
768.323	33.94
768.501	33.82
768.679	32.33
768.857	31.14
769.035	31.7
769.213	31.99
769.391	31.7
769.569	31.09
769.747	34.2
769.925	36.47
770.103	36.55
770.281	36.31
770.459	35.86
770.636	37.57
770.814	38.27
770.992	38.69
771.17	37.2
771.348	37.79
771.525	37.6
771.703	35.81
771.881	34.31
772.059	35.34
772.236	35.58
772.414	37.06
772.592	38.35
772.769	37.78
772.947	39.41
773.125	41.43
773.302	42.22
773.48	44.11
773.657	42.48
773.835	43.75
774.013	42.13
774.19	42.41
774.368	41.28
774.545	36.29
774.723	36.78
774.9	34.98
775.077	34.8
775.255	34.17
775.432	33.46
775.61	33.47
775.787	31.85
775.964	30.32
776.142	28.78
776.319	29.43
776.496	31.91
776.674	32.72
776.851	31.67
777.028	30.49
777.205	29.45
777.382	28.5
777.56	29.42
777.737	30.43
777.914	33.03
778.091	32.58
778.268	34.73
778.445	36.12
778.622	35
778.8	35.24
778.977	34.7
779.154	34.94
779.331	35.76
779.508	36.35
779.685	35.93
779.862	34.83
780.038	37.62
780.215	37.86
780.392	38.08
780.569	38.41
780.746	38.92
780.923	40.08
781.1	40.76
781.277	39.15
781.453	40.37
781.63	40.08
781.807	41.17
781.984	40.17
782.16	40.68
782.337	40.65
782.514	42.09
782.691	40.53
782.867	41.97
783.044	41.98
783.221	44.16
783.397	43.34
783.574	44.39
783.75	42.94
783.927	42.1
784.103	40.65
784.28	41.72
784.456	41.59
784.633	42.13
784.809	42.27
784.986	42.48
785.162	40.25
785.339	40.88
785.515	39.87
785.692	38.92
785.868	36.82
786.044	37.01
786.221	35.86
786.397	36.26
786.573	36.92
786.749	33.9
786.926	34.34
787.102	34.86
787.278	30.88
787.454	31.77
787.631	34.82
787.807	36.67
787.983	35.23
788.159	34.99
788.335	35.45
788.511	35.15
788.687	36.22
788.863	36.02
789.039	36.44
789.216	37.53
789.392	38.47
789.568	36.81
789.744	37.76
789.919	38.9
790.095	37.8
790.271	37.35
790.447	35.85
790.623	37.83
790.799	35.77
790.975	35.3
791.151	37.29
791.327	37.45
791.502	39.21
791.678	40.02
791.854	39.37
792.03	39.92
792.205	39.77
792.381	42.51
792.557	40.05
792.733	38.05
792.908	39.2
793.084	42.18
793.259	40.61
793.435	39.29
793.611	37.84
793.786	40.16
793.962	40.82
794.137	39.74
794.313	42.79
794.488	43.64
794.664	45.7
794.839	47.52
795.015	43.17
795.19	41.24
795.366	39.39
795.541	36.46
795.716	34.47
795.892	34.42
796.067	34.99
796.242	31.83
796.418	29.32
796.593	31.92
796.768	29.32
796.944	33.81
797.119	37.65
797.294	39.36
797.469	41.31
797.644	41.67
797.82	42.93
797.995	41.92
798.17	42.25
798.345	44.88
798.52	44.28
798.695	43.53
798.87	40.56
799.045	37.55
799.22	36.04
799.395	36.39
799.57	36.76
799.745	34.1
799.92	35.94
800.095	38.45
800.27	39.31
800.445	40.29
800.62	37.97
800.795	37.09
800.97	38.37
801.145	40.55
801.319	41.49
801.494	39.49
801.669	40.64
801.844	40.31
802.018	35.9
802.193	31.31
802.368	24.16
802.543	29.16
802.717	34.81
802.892	35.38
803.067	34
803.241	33.72
803.416	37.2
803.59	37.78
803.765	35.32
803.94	33.53
804.114	36.39
804.289	38.22
804.463	36.95
804.638	33.35
804.812	30.9
804.986	30.86
805.161	33.36
805.335	32.26
805.51	33.88
805.684	35.38
805.858	38.55
806.033	36.83
806.207	41.71
806.381	41.53
806.556	43.23
806.73	44.8
806.904	43.32
807.078	40.05
807.253	37.83
807.427	36.26
807.601	35.22
807.775	32.6
807.949	30.04
808.123	24.85
808.298	23.99
808.472	25.93
808.646	28.85
808.82	30.22
808.994	33.89
809.168	34.73
809.342	34.76
809.516	37.94
809.69	46.09
809.864	49.52
810.038	52.92
810.212	52.13
810.385	48.73
810.559	45.25
810.733	45.83
810.907	45.27
811.081	45.6
811.255	47.77
811.428	44.77
811.602	36.74
811.776	35.34
811.95	30.83
812.123	32.77
812.297	33.14
812.471	36.04
812.644	37.07
812.818	33.56
812.992	31.37
813.165	24.87
813.339	25.29
813.512	29.9
813.686	30.64
813.86	31.55
814.033	30.5
814.207	32.22
814.38	33.51
814.554	34.85
814.727	35.04
814.9	40.28
815.074	44.27
815.247	45.65
815.421	43.22
815.594	46.1
815.767	48.12
815.941	49.68
816.114	48.06
816.287	45.78
816.46	40
816.634	41.89
816.807	35.94
816.98	32.53
817.153	31.08
817.327	26.48
817.5	21.65
817.673	21.1
817.846	20.83
818.019	20.31
818.192	20.49
818.365	24.97
818.538	23.22
818.711	24.53
818.884	28.88
819.057	32.22
819.23	33.94
819.403	34.08
819.576	33.01
819.749	33.63
819.922	33.02
820.095	32.49
820.268	35.79
820.441	37.17
820.614	39.12
820.786	41.67
820.959	39.81
821.132	38.15
821.305	38.42
821.477	40.68
821.65	38.38
821.823	38.61
821.996	37.22
822.168	35.09
822.341	35.99
822.514	35.51
822.686	34.25
822.859	34.51
823.031	34.93
823.204	34.89
823.376	33.34
823.549	34.36
823.722	33.86
823.894	34.1
824.067	34.52
824.239	33.88
824.411	33.78
824.584	33.78
824.756	32.98
824.929	33.62
825.101	33.15
825.273	33.99
825.446	33.73
825.618	35.3
825.79	35.54
825.963	36.08
826.135	36.12
826.307	37.72
826.479	36.29
826.652	36.08
826.824	36.54
826.996	36.67
827.168	37.2
827.34	37.23
827.512	35.43
827.684	36.81
827.856	35.61
828.029	36.16
828.201	34.6
828.373	36.34
828.545	36.82
828.717	36.19
828.889	35.36
829.061	34.23
829.232	34.89
829.404	35.04
829.576	33.99
829.748	35.86
829.92	33.23
830.092	33.45
830.264	33.82
830.436	34.29
830.607	33.03
830.779	35.24
830.951	37.76
831.123	37.71
831.294	37.39
831.466	37.62
831.638	36.84
831.809	37.8
831.981	36.3
832.153	34.44
832.324	31.44
832.496	31.66
832.667	30.69
832.839	32.69
833.011	27.3
833.182	28.47
833.354	26.68
833.525	28.24
833.697	28.71
833.868	28.85
834.039	27.62
834.211	28.68
834.382	30.71
834.554	31.1
834.725	28.24
834.896	32.13
835.068	32.41
835.239	32.87
835.41	32.58
835.581	29.8
835.753	31.15
835.924	33.74
836.095	36.23
836.266	35.4
836.438	33.38
836.609	32.21
836.78	32.92
836.951	34.3
837.122	36.4
837.293	37.98
837.464	44.19
837.635	45.99
837.806	41.79
837.977	37.8
838.148	35.66
838.319	33.76
838.49	39.55
838.661	31.9
838.832	29.8
839.003	29.71
839.174	25.43
839.345	28.27
839.516	26.28
839.687	25.77
839.857	28.06
840.028	26.93
840.199	30.06
840.37	24.26
840.54	29.05
840.711	24.34
840.882	24.45
841.053	23.35
841.223	12.12
841.394	10.46
841.564	13.49
841.735	13.32
841.906	13.77
842.076	14.79
842.247	13.73
842.417	11.19
842.588	17.02
842.758	20.44
842.929	27.38
843.099	43.57
843.27	50.36
843.44	52.67
843.611	44.97
843.781	51.61
843.951	55.11
844.122	63.47
844.292	58.28
844.462	55.95
844.633	50.87
844.803	45.73
844.973	28.92
845.144	30.7
845.314	31.02
845.484	40.69
845.654	36.27
845.824	35.49
845.995	31.36
846.165	24.43
846.335	27.47
846.505	25.49
846.675	28.76
846.845	43.02
847.015	39.1
847.185	46.59
847.355	38.27
847.525	24.61
847.695	29.67
847.865	27.6
848.035	34.76
848.205	29.74
848.375	36.7
848.545	40.52
848.715	40.96
848.884	32.03
849.054	33.51
849.224	32.58
849.394	44.54
849.564	33.19
849.733	32.09
849.903	39.07
850.073	52.81
850.243	55.88
850.412	44.96
850.582	43.39
850.752	47.53
850.921	46.43
851.091	45.18
851.26	47.87
851.43	48.63
851.599	55.82
851.769	52.81
851.939	48.87
852.108	31.96
852.278	41.2
852.447	45.82
852.616	58.21
852.786	50.63
852.955	49.13
853.125	39.84
853.294	56.36
853.463	43.32
853.633	43.73
853.802	38.05
853.971	56.15
854.141	43.6
854.31	34.4
854.479	30
854.648	35.43
854.818	37.9
854.987	48.49
855.156	49.95
855.325	52.3
855.494	40.43
855.663	37.09
855.832	33.48
856.001	39.62
856.171	42.05
856.34	36.15
856.509	34.88
856.678	32.64
856.847	25
857.016	29.11
857.185	23.1
857.353	33.05
857.522	39.94
857.691	34.08
857.86	37.64
858.029	33.32
858.198	34.33
858.367	36.5
858.535	41.45
858.704	43.07
858.873	28.74
859.042	36.71
859.21	34.82
859.379	40.32
859.548	50.29
859.717	45.68
859.885	44.56
860.054	43.46
860.222	31.15
860.391	26.45
860.56	24.83
860.728	31.94
860.897	38.55
861.065	25.04
861.234	10.48
861.402	16.92
861.571	10.04
861.739	6.66
861.908	7.1
862.076	20.05
862.244	37.32
862.413	42.82
862.581	43.92
862.749	44.54
862.918	74.85
863.086	54.54
863.254	49.84
863.423	60.83
863.591	69.69
863.759	75.24
863.927	75.67
864.096	75.6
864.264	71.02
864.432	60.36
864.6	48.68
864.768	40.7
864.936	46.31
865.104	39.46
865.272	27.24
865.44	28.94
865.608	19.06
865.776	23.83
865.944	17.45
866.112	30.06
866.28	35.01
866.448	43.12
866.616	52.19
866.784	76.67
866.952	91.16
867.12	91.41
867.288	68.58
867.455	76.91
867.623	59.7
867.791	65.21
867.959	73.5
868.127	68.33
868.294	76.89
868.462	71.39
868.63	66.8
868.797	60.56
868.965	61.62
869.133	57.19
869.3	52.81
869.468	55.3
869.636	57.73
869.803	44.85
869.971	61.6
870.138	25.76
870.306	-3.46
870.473	-41.18
870.641	-9.1
870.808	-18.15
870.975	16.89
871.143	20.92
871.31	5.31
871.478	-1.87
871.645	11.37
871.812	21.73
871.98	38.97
872.147	32.82
872.314	33.5
872.482	37.83
872.649	37.72
872.816	45.54
872.983	43.11
873.15	54.95
873.318	86.55
873.485	97.67
873.652	71.01
873.819	47
873.986	72.2
874.153	103.16
874.32	81.04
874.487	75.62
874.654	62.25
874.821	63.55
874.988	60.53
875.155	45.86
875.322	39.66
875.489	44.48
875.656	50.77
875.823	41.51
875.99	30.64
876.157	31.38
876.324	26.81
876.49	30.28
876.657	30.56
876.824	33.16
876.991	27.81
877.157	32.66
877.324	32.07
877.491	37.83
877.658	47
877.824	44.34
877.991	40.84
878.157	50.8
878.324	48.05
878.491	44.03
878.657	46.85
878.824	45.24
878.99	45.57
879.157	44.72
879.323	39.53
879.49	29.87
879.656	37.82
879.823	39.08
879.989	38.85
880.156	42.68
880.322	51.18
880.488	52.5
880.655	73
880.821	62.47
880.987	55.05
881.154	50.35
881.32	48.76
881.486	40.54
881.652	40.82
881.819	33.97
881.985	34.01
882.151	33.74
882.317	35.03
882.483	28.47
882.649	27.94
882.816	29.49
882.982	33.15
883.148	31.59
883.314	33.12
883.48	34.86
883.646	36.39
883.812	34.52
883.978	35.41
884.144	33.21
884.31	38.06
884.476	36.99
884.642	38.04
884.807	37.64
884.973	40.56
885.139	42.48
885.305	43.33
885.471	45.46
885.637	49.45
885.802	45.2
885.968	50.95
886.134	46.11
886.3	51.37
886.465	50.4
886.631	50.82
886.797	47.93
886.962	53.28
887.128	38.83
887.293	34.41
887.459	35.13
887.625	39.28
887.79	30.47
887.956	37.51
888.121	35.56
888.287	35.82
888.452	36.33
888.618	41.26
888.783	27.21
