Data from 2937865_Reflection_3.txt Node
Date: Wed Jul 15 15:13:17 EDT 2015
User: robert
Spectrometer: USB4E03001
Autoset integration time: false
Trigger mode: 4
Integration Time (sec): 1.000000E-1
Scans to average: 10
Electric dark correction enabled: true
Nonlinearity correction enabled: false
Boxcar width: 5
Stray light correction enabled: false
XAxis mode: Wavelengths
Stop averaging: false
Number of Pixels in Spectrum: 3648
>>>>>Begin Spectral Data<<<<<
177.566	25.59
177.785	21.95
178.005	1024.27
178.225	-777.78
178.445	595.33
178.665	146.35
178.885	178.21
179.105	148.38
179.324	103.85
179.544	73.26
179.764	71.33
179.984	24.85
180.204	25.32
180.423	4.46
180.643	-152.61
180.863	-285.14
181.083	-27.08
181.302	-36.6
181.522	61.64
181.742	61.31
181.961	116.19
182.181	142.33
182.401	187.26
182.621	140.49
182.84	49.79
183.06	45.81
183.279	63.04
183.499	93.94
183.719	143.02
183.938	215.21
184.158	170
184.377	158.9
184.597	132.04
184.816	117.69
185.036	157.74
185.256	234.79
185.475	173.8
185.695	138.13
185.914	118.72
186.134	107.49
186.353	106.17
186.572	78.72
186.792	89.16
187.011	9.29
187.231	-556.16
187.45	88.94
187.67	119.02
187.889	161.39
188.108	187.51
188.328	258.16
188.547	239.95
188.766	197.8
188.986	248.33
189.205	187.3
189.424	154.45
189.644	152.22
189.863	183.39
190.082	137.21
190.302	125
190.521	135.42
190.74	131.4
190.959	90.43
191.178	55.6
191.398	42.83
191.617	15.19
191.836	-7.03
192.055	-91.78
192.274	-45.8
192.494	-1747.91
192.713	-43.22
192.932	-108.67
193.151	-12.51
193.37	56.76
193.589	-196.64
193.808	42.54
194.027	104.4
194.246	26.24
194.465	103.94
194.685	143.07
194.904	99.76
195.123	72.9
195.342	108.5
195.561	23.44
195.78	68.03
195.999	39.71
196.218	236.06
196.436	1048.68
196.655	182.45
196.874	286.94
197.093	243.02
197.312	245.03
197.531	210.13
197.75	278.36
197.969	284.45
198.188	164.72
198.407	222.16
198.625	183.18
198.844	183.25
199.063	319.75
199.282	21120
199.501	384.91
199.719	262.63
199.938	461.35
200.157	233.71
200.376	62.8
200.594	141.19
200.813	95.92
201.032	83.27
201.251	89.88
201.469	84.44
201.688	79.16
201.907	76.36
202.125	58.34
202.344	69.65
202.563	72.37
202.781	82.97
203	82.27
203.218	89.78
203.437	130.14
203.656	123.05
203.874	152.51
204.093	109.62
204.311	102.87
204.53	110.95
204.748	101
204.967	114.53
205.185	93.08
205.404	12.41
205.622	-30.34
205.841	19.14
206.059	-20.4
206.278	-71.17
206.496	67.59
206.715	180.05
206.933	63.62
207.151	57.26
207.37	136.73
207.588	-13.95
207.806	251.14
208.025	-17784.21
208.243	-427.9
208.461	286.28
208.68	340.51
208.898	134.13
209.116	213.89
209.335	128.92
209.553	111.77
209.771	146.07
209.989	140.83
210.208	208.49
210.426	136.19
210.644	180.8
210.862	153.04
211.081	127.45
211.299	124.23
211.517	130.8
211.735	133.82
211.953	114.12
212.171	109.53
212.39	72.46
212.608	45.32
212.826	31.74
213.044	42.99
213.262	155.94
213.48	110.22
213.698	125
213.916	-116.94
214.134	43.68
214.352	51.13
214.57	66.49
214.788	92.97
215.006	91.85
215.224	129.53
215.442	68.59
215.66	19
215.878	-5.55
216.096	-6.51
216.314	0.55
216.532	-0.41
216.75	18.74
216.968	-28.23
217.185	-15.68
217.403	-42.03
217.621	3.54
217.839	22.95
218.057	31.3
218.275	10.35
218.492	11.93
218.71	30.02
218.928	25.36
219.146	25.6
219.363	41.43
219.581	35.25
219.799	40.87
220.017	6.6
220.234	16.14
220.452	20.05
220.67	23.75
220.887	48.88
221.105	45.68
221.323	65.54
221.54	59.9
221.758	56.76
221.976	21.51
222.193	28.75
222.411	43.01
222.629	36.9
222.846	34.56
223.064	38.25
223.281	42.81
223.499	19.03
223.716	12.44
223.934	17.61
224.151	9.89
224.369	53.99
224.586	81.76
224.804	72.27
225.021	59.37
225.239	62.12
225.456	53.43
225.674	46.55
225.891	58.42
226.108	35.93
226.326	40.48
226.543	39.02
226.76	37.06
226.978	14.84
227.195	15.98
227.413	14.77
227.63	13.15
227.847	16.02
228.064	11.19
228.282	8.06
228.499	8.71
228.716	8.44
228.934	11.95
229.151	11.55
229.368	16.33
229.585	16.54
229.802	15.14
230.02	15.76
230.237	15.87
230.454	18.21
230.671	19.99
230.888	22.75
231.105	21.48
231.323	16.02
231.54	15.6
231.757	15.48
231.974	15.02
232.191	17.55
232.408	14.45
232.625	8.6
232.842	5.15
233.059	6.12
233.276	-0.08
233.493	-7.45
233.71	-7.04
233.927	-5.89
234.144	-13.77
234.361	-10.5
234.578	-14.56
234.795	-9.82
235.012	5.47
235.229	12.86
235.446	14.85
235.663	19.18
235.879	22.99
236.096	22.53
236.313	21.44
236.53	20.94
236.747	19.23
236.964	18.87
237.181	17.54
237.397	14.2
237.614	10.1
237.831	6.34
238.048	10.64
238.264	16.38
238.481	18.33
238.698	17.23
238.915	21.17
239.131	19.22
239.348	19.71
239.565	23.25
239.781	18.33
239.998	13.1
240.215	17.61
240.431	8.78
240.648	8.19
240.865	10.17
241.081	11.72
241.298	12.27
241.514	16.23
241.731	17.54
241.947	17.39
242.164	16.88
242.38	16.91
242.597	16.25
242.814	17.71
243.03	20.43
243.246	21.52
243.463	20.1
243.679	21.07
243.896	20.23
244.112	17.56
244.329	16.88
244.545	18.72
244.762	20.01
244.978	19.51
245.194	20.73
245.411	16.78
245.627	16.58
245.843	18.54
246.06	15.78
246.276	14.73
246.492	16.6
246.709	16.05
246.925	16.53
247.141	16.74
247.357	16.2
247.574	15.57
247.79	15.5
248.006	15.08
248.222	13.89
248.439	14.17
248.655	14.53
248.871	14.34
249.087	14.37
249.303	12.91
249.519	12.31
249.736	12.97
249.952	13.12
250.168	12.89
250.384	13.44
250.6	13.74
250.816	16
251.032	14.53
251.248	14.79
251.464	15.12
251.68	16.82
251.896	15.27
252.112	13.68
252.328	12.78
252.544	11.73
252.76	10.34
252.976	11.16
253.192	9.17
253.408	9.4
253.624	6.69
253.84	6.51
254.056	2.85
254.272	4.26
254.487	5.82
254.703	10.18
254.919	11.14
255.135	15.43
255.351	14.91
255.567	16.82
255.782	16.84
255.998	19.89
256.214	18.06
256.43	18.3
256.646	18.43
256.861	15.63
257.077	13.83
257.293	13.09
257.508	10.8
257.724	11.35
257.94	9.67
258.155	8.46
258.371	8.02
258.587	8.67
258.802	9.34
259.018	9.59
259.234	9.83
259.449	9.96
259.665	9.7
259.88	9.82
260.096	10.3
260.312	10.04
260.527	10.83
260.743	10.41
260.958	10.22
261.174	9.47
261.389	8.88
261.605	7.99
261.82	7.78
262.036	8.63
262.251	6.99
262.466	6.67
262.682	5.63
262.897	5.7
263.113	5.57
263.328	5.73
263.543	7.42
263.759	6.89
263.974	9.53
264.189	11.4
264.405	9.55
264.62	12.52
264.835	11.88
265.051	14.56
265.266	12.43
265.481	11.6
265.696	11.63
265.912	11
266.127	11.09
266.342	11.83
266.557	9.06
266.773	9.97
266.988	10.06
267.203	10.02
267.418	10.42
267.633	11.79
267.848	12.45
268.064	12.02
268.279	12.82
268.494	13.48
268.709	11.84
268.924	12.57
269.139	12.76
269.354	10.96
269.569	9.83
269.784	8.23
269.999	7.28
270.214	7.7
270.429	8.67
270.644	8.32
270.859	7.79
271.074	7.22
271.289	6.45
271.504	6.63
271.719	6.71
271.934	7.05
272.149	8.05
272.363	7.66
272.578	6.47
272.793	5.92
273.008	7.11
273.223	6.67
273.438	7.4
273.653	7.98
273.867	6.78
274.082	7.25
274.297	9.36
274.512	8.59
274.726	10.03
274.941	10.86
275.156	11.48
275.371	8.79
275.585	9.76
275.8	9.09
276.015	8.18
276.229	9.74
276.444	10.91
276.659	9.71
276.873	10.68
277.088	8.93
277.302	10.58
277.517	9.71
277.732	10.24
277.946	11.5
278.161	13.36
278.375	13.29
278.59	13.54
278.804	13.86
279.019	12.98
279.233	11.11
279.448	12.96
279.662	11.19
279.877	12.33
280.091	12.93
280.306	11.89
280.52	12.75
280.735	12.85
280.949	13.22
281.163	12.7
281.378	13.39
281.592	15.01
281.806	12.56
282.021	13.82
282.235	13.62
282.449	14.66
282.664	14.82
282.878	13.68
283.092	14.16
283.307	14.63
283.521	12.68
283.735	12.27
283.949	12.15
284.164	14.89
284.378	13.74
284.592	13.85
284.806	12.51
285.02	11.4
285.234	11.09
285.449	10.09
285.663	10.16
285.877	11.4
286.091	11.3
286.305	10.14
286.519	9.93
286.733	10.18
286.947	9.16
287.161	9.43
287.375	10.58
287.589	10.82
287.803	11.02
288.017	9.98
288.231	9.04
288.445	8.93
288.659	9.29
288.873	9.19
289.087	8.73
289.301	10.07
289.515	9.83
289.729	8.83
289.943	7.82
290.157	7.26
290.371	6.61
290.584	7.13
290.798	7.86
291.012	7.81
291.226	7.45
291.44	8.96
291.654	9.03
291.867	10.35
292.081	11.86
292.295	13.18
292.509	14.74
292.722	17.32
292.936	17.55
293.15	16.19
293.364	16.25
293.577	14.73
293.791	13.91
294.005	14.54
294.218	15.12
294.432	14.85
294.645	15.03
294.859	15.46
295.073	13.27
295.286	13.71
295.5	14.91
295.713	16.08
295.927	16.88
296.14	17.25
296.354	16.4
296.568	15.38
296.781	14.22
296.994	15.45
297.208	15.19
297.421	15.31
297.635	15.33
297.848	14.54
298.062	14.16
298.275	14
298.489	13.62
298.702	13.43
298.915	13.25
299.129	14.18
299.342	13.69
299.555	14.64
299.769	16.06
299.982	17.97
300.195	18.91
300.409	19.35
300.622	21.37
300.835	23.45
301.048	24.93
301.262	26.05
301.475	24.85
301.688	23.82
301.901	23.38
302.115	22.05
302.328	22
302.541	22.29
302.754	21.8
302.967	21.36
303.18	19.83
303.393	18.72
303.607	17.7
303.82	19.6
304.033	19.61
304.246	20
304.459	21.23
304.672	20.49
304.885	20
305.098	21.45
305.311	20.77
305.524	20.66
305.737	20.93
305.95	20.82
306.163	20.32
306.376	21.42
306.589	20.5
306.802	19.36
307.015	19
307.228	18.47
307.44	16.72
307.653	16.93
307.866	14.8
308.079	15.4
308.292	16.24
308.505	17.45
308.718	16.54
308.93	16.6
309.143	17.77
309.356	17.19
309.569	18.88
309.781	18.89
309.994	18.96
310.207	21.29
310.42	20.68
310.632	20.07
310.845	20.39
311.058	20.39
311.27	20.3
311.483	20.39
311.696	20.33
311.908	19.35
312.121	19.38
312.333	19.55
312.546	17.73
312.759	18.41
312.971	18.53
313.184	18.87
313.396	18.14
313.609	19.53
313.821	19.39
314.034	20.53
314.246	22.76
314.459	23.16
314.671	22.52
314.884	24.07
315.096	24.41
315.309	25.01
315.521	23.68
315.733	24.85
315.946	22.56
316.158	23.03
316.371	23.07
316.583	21.02
316.795	20.23
317.008	20.82
317.22	20.74
317.432	20.59
317.644	21.08
317.857	21.09
318.069	19.75
318.281	21.31
318.494	21.26
318.706	20.94
318.918	22.67
319.13	23.6
319.342	22.22
319.555	21.33
319.767	21.29
319.979	21.59
320.191	21.64
320.403	21.31
320.615	22.22
320.827	22.13
321.039	21.22
321.252	18.99
321.464	19.81
321.676	22.37
321.888	23.67
322.1	22.56
322.312	21.08
322.524	20.74
322.736	23.79
322.948	23.73
323.16	23.92
323.372	24.77
323.584	26.1
323.796	25.3
324.007	25.06
324.219	25.88
324.431	27.48
324.643	28.42
324.855	29.03
325.067	28.38
325.279	28.23
325.491	27.66
325.702	28.1
325.914	28.26
326.126	29.57
326.338	28.88
326.55	28.52
326.761	28.77
326.973	29.61
327.185	31.47
327.396	32.23
327.608	32.56
327.82	34.14
328.032	35.43
328.243	34.36
328.455	36.39
328.666	39.27
328.878	40.48
329.09	42.46
329.301	43.74
329.513	44.12
329.725	45.35
329.936	46.09
330.148	45.22
330.359	45.29
330.571	48.84
330.782	49.13
330.994	48.75
331.205	49.63
331.417	50.24
331.628	51.36
331.84	53.12
332.051	53.29
332.262	55.98
332.474	56.64
332.685	58.7
332.897	60.16
333.108	61.67
333.319	61.53
333.531	61.09
333.742	60.56
333.953	61
334.165	60.4
334.376	61.52
334.587	62.43
334.799	63.87
335.01	64.07
335.221	63.83
335.432	64.73
335.644	66.27
335.855	69.1
336.066	70.02
336.277	70.46
336.488	70.46
336.7	70.85
336.911	70.65
337.122	71.84
337.333	72.24
337.544	72.93
337.755	71.48
337.966	71.83
338.177	69.91
338.388	70.59
338.599	70.1
338.811	71.83
339.022	71.13
339.233	72.21
339.444	73.21
339.655	72.49
339.866	73.04
340.076	72.66
340.287	72.56
340.498	74.11
340.709	73.41
340.92	75.26
341.131	74.37
341.342	75.56
341.553	74.64
341.764	74.82
341.975	74.85
342.185	74.17
342.396	75.87
342.607	76.73
342.818	76.48
343.029	76.91
343.239	77.09
343.45	77.71
343.661	78.1
343.872	77.54
344.082	78.08
344.293	79.13
344.504	79.26
344.714	78.91
344.925	77.84
345.136	77.61
345.346	78.26
345.557	78.24
345.768	78.66
345.978	78.81
346.189	80.31
346.399	80.06
346.61	79.8
346.821	80.29
347.031	79.64
347.242	80.36
347.452	80.69
347.663	80.44
347.873	80.24
348.084	79.67
348.294	79.9
348.504	79.66
348.715	80.42
348.925	80.87
349.136	80.62
349.346	80.78
349.557	79.78
349.767	80.6
349.977	79.45
350.188	78.39
350.398	78.64
350.608	78.52
350.819	78.96
351.029	77.77
351.239	77.85
351.449	77.38
351.66	77.65
351.87	79.09
352.08	78.86
352.29	79.85
352.501	80.29
352.711	80.69
352.921	79.94
353.131	79.87
353.341	80.28
353.552	79.19
353.762	79.83
353.972	79.9
354.182	78.67
354.392	79.11
354.602	79.25
354.812	79
355.022	78.54
355.232	79.12
355.442	77.42
355.652	77.15
355.862	77.57
356.072	77.48
356.282	77.68
356.492	77.95
356.702	77.4
356.912	77.28
357.122	77.37
357.332	77.31
357.542	77.82
357.752	78.7
357.962	78.8
358.171	78.78
358.381	79.04
358.591	79.2
358.801	79.23
359.011	79.79
359.221	79.8
359.43	80.48
359.64	80.75
359.85	79.49
360.06	79.01
360.269	78.28
360.479	77.88
360.689	77.53
360.899	76.99
361.108	76.93
361.318	75.5
361.528	74.84
361.737	74.35
361.947	73.54
362.156	73.94
362.366	73.71
362.576	73.45
362.785	73.71
362.995	74.05
363.204	73.95
363.414	73.36
363.623	74.18
363.833	74.03
364.042	73.24
364.252	73.37
364.461	72.66
364.671	73.03
364.88	73.55
365.09	72.9
365.299	71.66
365.509	71.46
365.718	73.07
365.927	72
366.137	71.9
366.346	73.17
366.555	72.74
366.765	72.61
366.974	71.96
367.183	72.13
367.393	72.68
367.602	72.72
367.811	71.65
368.021	70.39
368.23	71.1
368.439	71.38
368.648	69.58
368.857	69.98
369.067	69.04
369.276	69.54
369.485	68.55
369.694	68.23
369.903	67.96
370.112	68.5
370.321	68.67
370.531	67.6
370.74	66.92
370.949	66.9
371.158	65.85
371.367	66.4
371.576	65.66
371.785	65.4
371.994	65.2
372.203	64.6
372.412	64.04
372.621	62.49
372.83	63.31
373.039	63.66
373.248	63.47
373.457	63.66
373.666	63.07
373.874	62.99
374.083	62.57
374.292	61.94
374.501	62.24
374.71	61.86
374.919	62.71
375.128	61.36
375.336	60.27
375.545	60.01
375.754	59.4
375.963	59.15
376.171	58.37
376.38	58.27
376.589	57.48
376.798	56.61
377.006	56.3
377.215	55.87
377.424	55.66
377.632	56.4
377.841	56.53
378.05	56.86
378.258	56.67
378.467	56.8
378.675	56.23
378.884	56.38
379.093	56.18
379.301	56.54
379.51	56.1
379.718	55.74
379.927	54.39
380.135	54.24
380.344	53.54
380.552	53.08
380.761	52.49
380.969	52.63
381.177	52.56
381.386	52.88
381.594	52.26
381.803	52.1
382.011	51.91
382.219	52
382.428	51.18
382.636	50.88
382.845	50.44
383.053	49.75
383.261	48.95
383.469	48.44
383.678	48.27
383.886	47.82
384.094	47.32
384.302	47.26
384.511	46.75
384.719	46.49
384.927	46.09
385.135	46.14
385.343	46.06
385.552	46.07
385.76	45.59
385.968	44.56
386.176	44.04
386.384	43.61
386.592	43.01
386.8	42.61
387.008	42.13
387.216	42.17
387.424	41.9
387.633	41.62
387.841	40.92
388.049	40.26
388.257	40.03
388.465	39.93
388.672	39.73
388.88	39.97
389.088	39.63
389.296	39.97
389.504	39.37
389.712	39.3
389.92	39.46
390.128	39.34
390.336	39.64
390.544	39.55
390.751	39.33
390.959	38.98
391.167	38.33
391.375	38.41
391.583	37.39
391.79	37.06
391.998	36.42
392.206	36.1
392.414	36.15
392.621	36
392.829	35.96
393.037	35.73
393.244	35.51
393.452	35.67
393.66	35.34
393.867	35.5
394.075	35.43
394.283	35.79
394.49	35.44
394.698	35.2
394.905	35.08
395.113	34.6
395.32	34.68
395.528	34.85
395.735	34.52
395.943	34.7
396.15	34.85
396.358	34.68
396.565	34.51
396.773	34.51
396.98	34.15
397.188	33.97
397.395	34.39
397.602	34.26
397.81	34.19
398.017	34.39
398.225	34.29
398.432	33.87
398.639	34.13
398.847	33.86
399.054	33.88
399.261	34.07
399.468	33.94
399.676	33.52
399.883	33.37
400.09	33.34
400.297	33.06
400.505	33.11
400.712	33.3
400.919	32.86
401.126	32.66
401.333	32.49
401.54	32.47
401.748	32.54
401.955	32.65
402.162	32.39
402.369	32.36
402.576	31.95
402.783	31.35
402.99	31.03
403.197	31.04
403.404	31.24
403.611	31.28
403.818	31.12
404.025	30.88
404.232	30.62
404.439	30.83
404.646	30.82
404.853	30.93
405.06	30.99
405.267	30.88
405.474	30.86
405.681	30.42
405.887	30.3
406.094	30.3
406.301	30.38
406.508	30.2
406.715	30.25
406.922	29.89
407.128	30.05
407.335	30.24
407.542	30.42
407.749	30.46
407.955	30.74
408.162	30.65
408.369	30.69
408.575	30.42
408.782	30.82
408.989	30.57
409.195	30.87
409.402	30.81
409.609	30.57
409.815	30.51
410.022	30.56
410.228	30.6
410.435	30.53
410.642	30.57
410.848	30.87
411.055	30.54
411.261	30.53
411.468	30.22
411.674	30.12
411.881	30.21
412.087	30.16
412.294	30.08
412.5	29.89
412.706	29.85
412.913	29.72
413.119	29.34
413.326	29.25
413.532	29.09
413.738	29.06
413.945	28.84
414.151	28.5
414.357	28.39
414.564	28.17
414.77	28.34
414.976	28.25
415.182	27.99
415.389	28.28
415.595	28.19
415.801	28.2
416.007	28.25
416.214	28.53
416.42	28.5
416.626	28.55
416.832	28.36
417.038	28.14
417.244	28.03
417.45	28.15
417.657	27.92
417.863	27.99
418.069	28.06
418.275	27.97
418.481	27.85
418.687	27.92
418.893	27.85
419.099	27.83
419.305	27.62
419.511	27.77
419.717	27.7
419.923	27.62
420.129	27.53
420.335	27.27
420.541	27.16
420.746	26.95
420.952	26.92
421.158	26.83
421.364	26.93
421.57	26.98
421.776	26.82
421.982	26.67
422.187	26.59
422.393	26.43
422.599	26.55
422.805	26.6
423.01	26.57
423.216	26.46
423.422	26.43
423.628	26.35
423.833	26.44
424.039	26.3
424.245	26.26
424.45	26.23
424.656	26.37
424.862	26.33
425.067	26.28
425.273	26.28
425.478	26.16
425.684	26.06
425.889	26.06
426.095	25.87
426.301	26
426.506	25.95
426.712	26
426.917	25.97
427.123	26.14
427.328	26.1
427.533	26.09
427.739	26.17
427.944	26.27
428.15	26.29
428.355	26.43
428.561	26.44
428.766	26.52
428.971	26.55
429.177	26.46
429.382	26.12
429.587	25.88
429.793	25.94
429.998	25.9
430.203	25.89
430.408	25.68
430.614	25.53
430.819	25.41
431.024	25.62
431.229	25.49
431.434	25.38
431.64	25.41
431.845	25.66
432.05	25.44
432.255	25.5
432.46	25.51
432.665	25.78
432.87	25.8
433.076	25.83
433.281	25.75
433.486	25.72
433.691	25.72
433.896	25.66
434.101	25.78
434.306	25.87
434.511	25.93
434.716	25.93
434.921	25.83
435.126	25.96
435.331	25.81
435.535	25.75
435.74	25.72
435.945	25.6
436.15	25.53
436.355	25.34
436.56	25.37
436.765	25.23
436.97	25.1
437.174	24.93
437.379	24.74
437.584	24.96
437.789	24.93
437.993	25.08
438.198	25.15
438.403	25.31
438.608	25.12
438.812	25.2
439.017	25.26
439.222	25.36
439.426	25.32
439.631	25.39
439.836	25.26
440.04	25.17
440.245	25.07
440.45	25.12
440.654	25.02
440.859	25.13
441.063	25.1
441.268	24.95
441.472	24.89
441.677	25.04
441.881	24.84
442.086	24.95
442.29	25.01
442.495	25.01
442.699	25.02
442.904	25.1
443.108	25.05
443.312	24.96
443.517	25.07
443.721	25.04
443.925	24.9
444.13	24.88
444.334	24.83
444.538	24.78
444.743	24.78
444.947	24.82
445.151	24.8
445.356	24.86
445.56	24.74
445.764	24.73
445.968	24.66
446.173	24.73
446.377	24.67
446.581	24.66
446.785	24.68
446.989	24.56
447.193	24.38
447.398	24.27
447.602	24.22
447.806	24.45
448.01	24.38
448.214	24.37
448.418	24.22
448.622	24.34
448.826	24.3
449.03	24.16
449.234	24.24
449.438	24.26
449.642	24.19
449.846	24.21
450.05	24.02
450.254	24.24
450.458	24.39
450.662	24.31
450.866	24.35
451.069	24.25
451.273	24.29
451.477	24.3
451.681	24.52
451.885	24.6
452.089	24.44
452.292	24.25
452.496	24.07
452.7	23.97
452.904	24.12
453.107	23.89
453.311	23.96
453.515	23.73
453.719	23.58
453.922	23.49
454.126	23.42
454.33	23.25
454.533	23.38
454.737	23.27
454.94	23.16
455.144	23.1
455.348	23.42
455.551	23.56
455.755	23.73
455.958	23.88
456.162	23.93
456.365	23.98
456.569	24.12
456.772	24.18
456.976	24.33
457.179	24.34
457.383	24.35
457.586	24.1
457.79	23.89
457.993	23.93
458.196	23.96
458.4	23.81
458.603	23.68
458.807	23.67
459.01	23.56
459.213	23.38
459.417	23.4
459.62	23.41
459.823	23.52
460.026	23.46
460.23	23.62
460.433	23.54
460.636	23.71
460.839	23.86
461.042	23.96
461.246	23.93
461.449	24
461.652	24.06
461.855	23.98
462.058	23.89
462.261	24.06
462.464	23.92
462.668	23.93
462.871	23.78
463.074	23.72
463.277	23.74
463.48	23.64
463.683	23.62
463.886	23.44
464.089	23.54
464.292	23.67
464.495	23.54
464.698	23.42
464.901	23.48
465.104	23.6
465.306	23.51
465.509	23.58
465.712	23.93
465.915	24.02
466.118	24.13
466.321	24.22
466.524	24.29
466.726	24.29
466.929	24.36
467.132	24.48
467.335	24.35
467.538	24.46
467.74	24.59
467.943	24.56
468.146	24.59
468.348	24.54
468.551	24.49
468.754	24.5
468.956	24.61
469.159	24.5
469.362	24.36
469.564	24.47
469.767	24.51
469.969	24.29
470.172	24.38
470.375	24.47
470.577	24.75
470.78	24.85
470.982	24.89
471.185	24.89
471.387	25.14
471.59	25.19
471.792	25.03
471.995	24.96
472.197	25
472.399	24.88
472.602	24.88
472.804	24.83
473.007	24.62
473.209	24.58
473.411	24.66
473.614	24.66
473.816	24.78
474.018	24.74
474.22	24.89
474.423	24.86
474.625	24.79
474.827	24.67
475.03	24.53
475.232	24.78
475.434	24.79
475.636	24.71
475.838	24.68
476.04	24.65
476.243	25.09
476.445	25.12
476.647	25.1
476.849	25.2
477.051	25.37
477.253	25.32
477.455	25.36
477.657	25.31
477.859	25.28
478.061	25.24
478.263	24.94
478.465	24.59
478.667	24.37
478.869	24.37
479.071	24.26
479.273	24.13
479.475	24.2
479.677	24.09
479.879	24.22
480.081	24.32
480.283	24.11
480.485	24.27
480.686	24.29
480.888	24.39
481.09	24.65
481.292	24.7
481.494	24.83
481.695	24.9
481.897	24.94
482.099	24.74
482.301	24.77
482.502	24.81
482.704	24.84
482.906	24.81
483.107	24.79
483.309	24.62
483.511	24.66
483.712	24.59
483.914	24.51
484.115	24.4
484.317	24.32
484.519	24.29
484.72	24.32
484.922	24.27
485.123	24.27
485.325	24.24
485.526	24.2
485.728	24.16
485.929	24.12
486.131	24.15
486.332	24.25
486.534	24.37
486.735	24.3
486.936	24.22
487.138	24.3
487.339	24.3
487.541	24.25
487.742	24.25
487.943	24.21
488.144	24.22
488.346	24.25
488.547	24.18
488.748	24.16
488.95	24.17
489.151	24.24
489.352	24.22
489.553	24.21
489.755	24.23
489.956	24.36
490.157	24.36
490.358	24.41
490.559	24.29
490.76	24.36
490.961	24.39
491.163	24.43
491.364	24.43
491.565	24.42
491.766	24.45
491.967	24.5
492.168	24.53
492.369	24.53
492.57	24.42
492.771	24.47
492.972	24.49
493.173	24.45
493.374	24.43
493.575	24.48
493.776	24.48
493.976	24.41
494.177	24.46
494.378	24.35
494.579	24.46
494.78	24.77
494.981	24.74
495.182	24.76
495.382	25.03
495.583	25.16
495.784	25.05
495.985	25.13
496.185	25.37
496.386	25.39
496.587	25.44
496.788	25.36
496.988	25.29
497.189	25.43
497.39	25.48
497.59	25.52
497.791	25.49
497.992	25.56
498.192	25.44
498.393	25.46
498.593	25.55
498.794	25.66
498.994	25.78
499.195	25.97
499.395	26.07
499.596	26.21
499.796	26.16
499.997	26.42
500.197	26.61
500.398	26.71
500.598	26.8
500.799	26.93
500.999	27
501.199	27.09
501.4	27.1
501.6	27.26
501.801	27.19
502.001	27.35
502.201	27.17
502.402	27.07
502.602	27.33
502.802	27.31
503.002	27.37
503.203	27.42
503.403	27.75
503.603	27.71
503.803	27.61
504.003	27.78
504.204	27.93
504.404	28.23
504.604	28.44
504.804	28.45
505.004	28.58
505.204	28.55
505.404	28.64
505.604	28.7
505.804	28.92
506.005	29.36
506.205	29.25
506.405	29.2
506.605	29.26
506.805	29.24
507.005	29.39
507.204	29.64
507.404	29.79
507.604	29.89
507.804	29.83
508.004	29.72
508.204	29.58
508.404	29.91
508.604	30.13
508.804	30.14
509.003	30.36
509.203	30.39
509.403	30.47
509.603	30.65
509.803	30.86
510.002	31.2
510.202	31.71
510.402	31.95
510.602	32.18
510.801	32.21
511.001	32.32
511.201	32.38
511.4	32.6
511.6	32.71
511.8	32.88
511.999	32.9
512.199	32.82
512.398	32.75
512.598	33
512.797	32.84
512.997	33.07
513.197	33.31
513.396	33.57
513.596	33.74
513.795	33.95
513.994	34.06
514.194	34.18
514.393	34.39
514.593	34.49
514.792	34.35
514.992	34.73
515.191	34.87
515.39	34.96
515.59	35.16
515.789	35.29
515.988	35.2
516.188	35.26
516.387	35.47
516.586	35.6
516.786	35.77
516.985	36.04
517.184	36.22
517.383	36.29
517.582	36.33
517.782	36.47
517.981	36.58
518.18	36.79
518.379	36.93
518.578	37.07
518.777	37.26
518.976	37.42
519.176	37.63
519.375	37.74
519.574	38.07
519.773	38.32
519.972	38.41
520.171	38.55
520.37	38.67
520.569	38.99
520.768	39.14
520.967	39.09
521.166	39.15
521.365	39.28
521.564	39.39
521.762	39.29
521.961	39.45
522.16	39.47
522.359	39.7
522.558	39.95
522.757	39.97
522.956	40.24
523.154	40.54
523.353	40.83
523.552	40.99
523.751	41.12
523.949	41.32
524.148	41.45
524.347	41.67
524.546	41.81
524.744	41.96
524.943	42.12
525.142	42.2
525.34	42.27
525.539	42.35
525.737	42.43
525.936	42.49
526.135	42.66
526.333	42.94
526.532	42.98
526.73	43.12
526.929	43.26
527.127	43.37
527.326	43.42
527.524	43.61
527.723	43.67
527.921	43.65
528.12	43.7
528.318	43.72
528.516	43.63
528.715	43.75
528.913	43.82
529.112	43.86
529.31	43.92
529.508	44.04
529.707	44.03
529.905	44.09
530.103	44.16
530.301	44.3
530.5	44.41
530.698	44.58
530.896	44.79
531.094	44.83
531.293	44.98
531.491	44.99
531.689	45.1
531.887	45.25
532.085	45.45
532.283	45.72
532.481	45.81
532.68	45.86
532.878	45.98
533.076	45.97
533.274	46.11
533.472	46.17
533.67	46.3
533.868	46.31
534.066	46.39
534.264	46.43
534.462	46.4
534.66	46.52
534.858	46.74
535.056	46.74
535.253	46.74
535.451	46.79
535.649	46.85
535.847	46.87
536.045	47
536.243	47.07
536.441	47.16
536.638	47.27
536.836	47.31
537.034	47.28
537.232	47.28
537.43	47.49
537.627	47.39
537.825	47.36
538.023	47.49
538.22	47.57
538.418	47.58
538.616	47.57
538.813	47.61
539.011	47.59
539.209	47.62
539.406	47.79
539.604	47.84
539.801	48.04
539.999	48.2
540.196	48.27
540.394	48.27
540.591	48.24
540.789	48.34
540.986	48.28
541.184	48.33
541.381	48.33
541.579	48.29
541.776	48.32
541.974	48.37
542.171	48.4
542.368	48.46
542.566	48.47
542.763	48.63
542.96	48.6
543.158	48.84
543.355	48.89
543.552	48.93
543.75	49.15
543.947	49.16
544.144	49.21
544.341	49.26
544.539	49.24
544.736	49.29
544.933	49.39
545.13	49.53
545.327	49.37
545.524	49.31
545.722	49.33
545.919	49.31
546.116	49.47
546.313	49.55
546.51	49.58
546.707	49.65
546.904	49.73
547.101	49.74
547.298	49.74
547.495	49.82
547.692	50.05
547.889	50.14
548.086	50.21
548.283	50.22
548.48	50.36
548.677	50.34
548.874	50.49
549.07	50.5
549.267	50.58
549.464	50.7
549.661	50.75
549.858	50.68
550.055	50.65
550.251	50.74
550.448	50.76
550.645	50.49
550.842	50.72
551.038	50.62
551.235	50.74
551.432	50.56
551.628	50.48
551.825	50.75
552.022	50.92
552.218	51.11
552.415	51.09
552.612	50.94
552.808	51.06
553.005	51.09
553.201	51.07
553.398	51.24
553.594	51.32
553.791	51.43
553.987	51.26
554.184	51.14
554.38	51
554.577	51.08
554.773	51.07
554.97	51.1
555.166	51.07
555.362	51.08
555.559	50.96
555.755	51.17
555.952	51.27
556.148	51.49
556.344	51.55
556.541	51.62
556.737	51.63
556.933	51.94
557.129	52.03
557.326	51.91
557.522	52.05
557.718	52.06
557.914	51.9
558.11	51.88
558.307	51.59
558.503	51.84
558.699	51.87
558.895	51.69
559.091	51.65
559.287	51.71
559.483	51.6
559.679	51.7
559.876	51.62
560.072	51.71
560.268	51.77
560.464	51.98
560.66	51.84
560.856	52.06
561.052	52.27
561.247	52.39
561.443	52.41
561.639	52.63
561.835	52.89
562.031	52.91
562.227	53
562.423	52.9
562.619	52.94
562.815	52.9
563.01	52.78
563.206	52.67
563.402	52.71
563.598	52.53
563.793	52.47
563.989	52.01
564.185	52.24
564.381	51.87
564.576	51.95
564.772	51.96
564.968	52.18
565.163	52.14
565.359	52.33
565.555	52.16
565.75	52.22
565.946	52.53
566.141	52.48
566.337	52.44
566.532	52.83
566.728	52.79
566.923	52.54
567.119	52.45
567.314	52.49
567.51	52.35
567.705	52.37
567.901	52.62
568.096	52.5
568.292	52.61
568.487	52.66
568.682	52.45
568.878	52.59
569.073	52.88
569.268	53.16
569.464	53.14
569.659	53.27
569.854	53.26
570.05	53.06
570.245	53.02
570.44	53.28
570.635	53.15
570.831	53.21
571.026	53.2
571.221	53.14
571.416	52.88
571.611	52.98
571.806	53.05
572.002	53.03
572.197	53.23
572.392	53.27
572.587	53.22
572.782	53.29
572.977	53.26
573.172	53.22
573.367	53.42
573.562	53.72
573.757	53.8
573.952	53.75
574.147	53.76
574.342	53.72
574.537	53.75
574.732	53.73
574.927	53.74
575.121	53.71
575.316	53.82
575.511	53.79
575.706	53.52
575.901	53.55
576.096	53.48
576.29	53.53
576.485	53.38
576.68	53.36
576.875	53.44
577.069	53.36
577.264	53.39
577.459	53.31
577.654	53.18
577.848	53.18
578.043	52.83
578.238	52.75
578.432	53.18
578.627	53.16
578.821	53.33
579.016	53.13
579.21	53.29
579.405	53.55
579.6	53.51
579.794	53.76
579.989	53.89
580.183	54.11
580.378	54.3
580.572	54.13
580.766	54.24
580.961	54.19
581.155	54.51
581.35	54.55
581.544	54.48
581.738	54.75
581.933	54.68
582.127	54.61
582.321	54.69
582.516	54.49
582.71	54.66
582.904	54.93
583.099	54.76
583.293	54.72
583.487	54.75
583.681	54.63
583.875	54.48
584.07	54.45
584.264	54.46
584.458	54.39
584.652	54.7
584.846	54.43
585.04	54.71
585.234	54.59
585.428	54.69
585.623	54.5
585.817	54.56
586.011	54.65
586.205	54.75
586.399	54.85
586.593	54.98
586.787	54.97
586.981	55.15
587.174	54.76
587.368	54.71
587.562	54.67
587.756	54.8
587.95	55.05
588.144	55.01
588.338	55
588.532	55.05
588.725	54.97
588.919	54.83
589.113	54.61
589.307	54.97
589.501	55.56
589.694	55.53
589.888	55.44
590.082	55.43
590.275	55.55
590.469	55.44
590.663	55.51
590.856	55.86
591.05	55.87
591.244	55.71
591.437	55.38
591.631	55
591.824	54.97
592.018	55.13
592.212	54.96
592.405	54.85
592.599	55.06
592.792	55
592.986	54.9
593.179	54.82
593.372	55.33
593.566	55.33
593.759	55.47
593.953	55.27
594.146	55.34
594.339	55.53
594.533	55.61
594.726	55.89
594.92	55.85
595.113	56.18
595.306	56.49
595.499	56.37
595.693	56.25
595.886	56.31
596.079	56.47
596.272	56.61
596.466	56.55
596.659	56.52
596.852	56.18
597.045	56.21
597.238	55.93
597.431	55.79
597.624	55.73
597.818	55.84
598.011	55.73
598.204	55.63
598.397	55.49
598.59	55.6
598.783	55.78
598.976	55.9
599.169	56.03
599.362	56.05
599.555	56.46
599.748	56.53
599.941	56.51
600.134	56.95
600.326	57.29
600.519	57.39
600.712	57.26
600.905	57.12
601.098	57.08
601.291	57.01
601.483	56.99
601.676	56.94
601.869	56.93
602.062	57.12
602.255	57.16
602.447	56.78
602.64	56.59
602.833	56.52
603.025	56.59
603.218	56.79
603.411	56.74
603.603	56.89
603.796	56.83
603.989	56.98
604.181	56.86
604.374	56.56
604.566	56.58
604.759	56.8
604.951	57.03
605.144	56.87
605.336	56.69
605.529	56.69
605.721	56.48
605.914	56.54
606.106	56.37
606.299	56.67
606.491	56.89
606.683	57.07
606.876	56.86
607.068	56.82
607.26	57.14
607.453	57.41
607.645	57.23
607.837	57.59
608.03	57.59
608.222	57.56
608.414	57.28
608.606	57.17
608.799	57.13
608.991	57.07
609.183	57.04
609.375	57.09
609.567	56.95
609.759	57.16
609.952	56.86
610.144	56.69
610.336	56.69
610.528	56.66
610.72	56.9
610.912	57.09
611.104	57.6
611.296	57.5
611.488	57.34
611.68	57.27
611.872	57.3
612.064	57.5
612.256	57.51
612.448	57.89
612.64	58.03
612.832	57.87
613.023	58.05
613.215	57.86
613.407	57.9
613.599	58.11
613.791	58.2
613.983	58.12
614.174	58.25
614.366	58.19
614.558	58.19
614.75	58.08
614.941	58.15
615.133	57.61
615.325	57.26
615.516	57.3
615.708	56.98
615.9	57.11
616.091	57.33
616.283	57.15
616.475	57.47
616.666	57.43
616.858	57.85
617.049	57.88
617.241	58.04
617.432	58.11
617.624	58.17
617.815	58.32
618.007	58.22
618.198	58.41
618.39	58.49
618.581	58.2
618.773	57.96
618.964	57.71
619.155	57.42
619.347	57.23
619.538	57.11
619.729	57.17
619.921	57.04
620.112	57.24
620.303	57.08
620.494	56.86
620.686	56.67
620.877	56.52
621.068	56.37
621.259	56.63
621.451	57.02
621.642	57.22
621.833	56.84
622.024	57.11
622.215	56.83
622.406	56.8
622.597	56.81
622.788	57.3
622.98	57.21
623.171	57.3
623.362	57.24
623.553	57.22
623.744	57.19
623.935	57.41
624.126	57.45
624.317	57.63
624.508	57.51
624.698	57.71
624.889	57.64
625.08	57.86
625.271	57.84
625.462	57.78
625.653	57.54
625.844	57.59
626.034	57.76
626.225	57.5
626.416	57.48
626.607	57.44
626.798	57.44
626.988	57.49
627.179	57.41
627.37	57.48
627.56	57.45
627.751	57.72
627.942	57.61
628.132	57.62
628.323	57.88
628.514	57.74
628.704	57.95
628.895	57.91
629.085	57.62
629.276	57.69
629.466	57.84
629.657	57.88
629.847	57.95
630.038	58.24
630.228	58.18
630.419	57.93
630.609	58.22
630.8	58.15
630.99	58.32
631.181	58.56
631.371	58.84
631.561	58.65
631.752	58.42
631.942	58.04
632.132	58.17
632.323	58.32
632.513	58.89
632.703	58.79
632.893	58.57
633.084	58.61
633.274	58.88
633.464	58.66
633.654	58.91
633.844	58.93
634.034	59.08
634.225	58.58
634.415	58.47
634.605	58.14
634.795	58.1
634.985	58.2
635.175	57.97
635.365	57.69
635.555	57.76
635.745	57.6
635.935	57.75
636.125	57.79
636.315	57.98
636.505	57.88
636.695	57.54
636.885	57.4
637.075	57.55
637.265	57.66
637.455	57.49
637.644	57.46
637.834	57.28
638.024	57.45
638.214	57.66
638.404	57.58
638.593	57.78
638.783	57.95
638.973	57.81
639.163	57.67
639.352	57.56
639.542	57.75
639.732	57.75
639.921	57.79
640.111	58.08
640.301	57.9
640.49	58.13
640.68	57.98
640.87	58.16
641.059	58.71
641.249	58.91
641.438	59.07
641.628	59.42
641.817	59.42
642.007	59.56
642.196	59.31
642.386	59.04
642.575	58.95
642.764	58.94
642.954	59.23
643.143	59.04
643.333	58.84
643.522	58.85
643.711	58.63
643.901	58.6
644.09	58.35
644.279	58.14
644.469	58.39
644.658	58.86
644.847	58.74
645.036	58.49
645.226	58.43
645.415	58.61
645.604	58.56
645.793	58.49
645.982	58.62
646.171	59.03
646.361	59.07
646.55	58.8
646.739	58.39
646.928	58.67
647.117	58.47
647.306	58.73
647.495	58.38
647.684	58.51
647.873	58.64
648.062	58.47
648.251	58.17
648.44	58.01
648.629	58.03
648.818	58.53
649.007	58.57
649.196	58.47
649.384	57.95
649.573	58.41
649.762	58.22
649.951	57.84
650.14	57.71
650.328	57.8
650.517	57.79
650.706	57.8
650.895	57.24
651.083	57.3
651.272	57.23
651.461	57.2
651.65	56.98
651.838	56.88
652.027	56.9
652.216	57.1
652.404	57.05
652.593	57.11
652.781	57.21
652.97	57.01
653.158	57.15
653.347	57.42
653.535	58
653.724	57.98
653.912	57.97
654.101	58.12
654.289	57.54
654.478	58.13
654.666	58.05
654.855	58.16
655.043	58.66
655.231	58.03
655.42	57.6
655.608	57.73
655.796	57.44
655.985	57.48
656.173	57.74
656.361	58.37
656.55	57.69
656.738	57.75
656.926	57.9
657.114	57.87
657.302	57.94
657.491	58.49
657.679	58.03
657.867	58.69
658.055	58.56
658.243	58.42
658.431	58.99
658.619	59.1
658.807	59.09
658.996	59.43
659.184	59.56
659.372	59.4
659.56	59.18
659.748	59.11
659.936	58.67
660.124	59.09
660.311	59.17
660.499	58.48
660.687	58.38
660.875	58.77
661.063	58.45
661.251	58.45
661.439	58.57
661.627	58.5
661.814	58.79
662.002	58.73
662.19	58.57
662.378	58.32
662.565	58.65
662.753	59.14
662.941	59.23
663.129	58.79
663.316	58.57
663.504	59.41
663.692	59.6
663.879	59.98
664.067	59.85
664.254	59.53
664.442	60.14
664.63	59.86
664.817	59.46
665.005	59.04
665.192	59.07
665.38	59
665.567	58.39
665.755	58.8
665.942	58.55
666.13	59.1
666.317	59.04
666.504	58.44
666.692	58.45
666.879	58.31
667.067	58.08
667.254	58.08
667.441	58.03
667.629	57.66
667.816	57.29
668.003	57.43
668.19	57.63
668.378	57.96
668.565	58.52
668.752	58.91
668.939	59.12
669.127	58.96
669.314	59.08
669.501	59.15
669.688	59.48
669.875	59.46
670.062	59.36
670.249	58.82
670.436	58.68
670.623	57.82
670.81	57.43
670.997	57.59
671.184	57.98
671.371	58.14
671.558	58.34
671.745	58.3
671.932	58.48
672.119	58.05
672.306	58.1
672.493	57.7
672.68	57.69
672.867	58.11
673.054	57.73
673.24	57.58
673.427	57.09
673.614	56.61
673.801	56.36
673.988	56.61
674.174	57.08
674.361	57.41
674.548	58.07
674.734	58.44
674.921	58.22
675.108	58.59
675.294	58.87
675.481	59.22
675.668	59.58
675.854	60.11
676.041	59.86
676.227	59.36
676.414	59.25
676.601	59.39
676.787	59.72
676.974	59.61
677.16	59.25
677.347	59.45
677.533	59.57
677.719	59.43
677.906	59.18
678.092	59.22
678.279	59.29
678.465	59.37
678.651	59.16
678.838	58.68
679.024	58.52
679.21	58.55
679.397	58.08
679.583	57.61
679.769	57.4
679.955	57.65
680.142	57.46
680.328	57.92
680.514	57.88
680.7	57.49
680.886	57.67
681.073	57.95
681.259	58.28
681.445	58.38
681.631	58.63
681.817	58.88
682.003	58.5
682.189	58.79
682.375	58.08
682.561	58.01
682.747	58.5
682.933	58.76
683.119	58.42
683.305	57.73
683.491	57.67
683.677	58.12
683.863	57.8
684.049	57.8
684.235	57.25
684.42	57.44
684.606	57.49
684.792	57.49
684.978	56.98
685.164	57.25
685.349	57.8
685.535	57.82
685.721	57.4
685.907	57.6
686.092	57.73
686.278	58.34
686.464	58.34
686.649	58.49
686.835	58.16
687.021	58.19
687.206	58.3
687.392	58.34
687.577	58.46
687.763	58.71
687.948	58.77
688.134	58.58
688.319	58.13
688.505	58.12
688.69	58.26
688.876	58.47
689.061	59.11
689.247	58.88
689.432	58.98
689.618	58.74
689.803	58.87
689.988	58.53
690.174	58.71
690.359	59.11
690.544	59.4
690.73	59.1
690.915	58.86
691.1	58.48
691.285	58.61
691.471	57.46
691.656	57.58
691.841	57.08
692.026	57.06
692.211	57.15
692.396	56.93
692.582	56.24
692.767	56.11
692.952	56.53
693.137	56.62
693.322	56.89
693.507	57.47
693.692	57.54
693.877	57.89
694.062	58.03
694.247	57.7
694.432	57.16
694.617	57.34
694.802	57.47
694.987	57.33
695.172	57.44
695.357	56.67
695.541	56.66
695.726	56.34
695.911	56.3
696.096	56.57
696.281	56.92
696.466	58.18
696.65	58.48
696.835	58.48
697.02	57.91
697.204	57.57
697.389	58.11
697.574	58.79
697.759	59.14
697.943	59.06
698.128	58.36
698.312	57.82
698.497	57.02
698.682	56.88
698.866	57.06
699.051	57.11
699.235	57.08
699.42	56.77
699.604	56.42
699.789	56.1
699.973	55.69
700.158	56.54
700.342	57.35
700.527	57.47
700.711	57.74
700.895	57.38
701.08	57.55
701.264	56.92
701.448	57.08
701.633	56.81
701.817	56.75
702.001	57.47
702.186	56.75
702.37	55.75
702.554	56.19
702.738	55.57
702.923	56.34
703.107	56.85
703.291	58.18
703.475	58.48
703.659	58.56
703.843	59.32
704.027	59.02
704.212	58.79
704.396	59.54
704.58	59.15
704.764	58.92
704.948	57.86
705.132	58.05
705.316	58.11
705.5	57.42
705.684	57.37
705.868	56.71
706.052	56.19
706.235	56.97
706.419	56.81
706.603	56.38
706.787	57.45
706.971	56.97
707.155	56.42
707.339	56.34
707.522	56.47
707.706	57.37
707.89	57.5
708.074	57.82
708.257	57.29
708.441	56.96
708.625	56.92
708.808	56.31
708.992	56.64
709.176	56.55
709.359	56.08
709.543	56.39
709.727	56.38
709.91	56.93
710.094	57.05
710.277	57.48
710.461	57.82
710.644	58.16
710.828	58.06
711.011	58.38
711.195	58.26
711.378	58.94
711.562	59.42
711.745	57.61
711.928	57.53
712.112	57.13
712.295	56.38
712.478	55.91
712.662	56.12
712.845	56.17
713.028	57.29
713.212	57.53
713.395	57.58
713.578	57.07
713.761	58.54
713.945	58.15
714.128	57.93
714.311	58.65
714.494	58.99
714.677	59.23
714.86	59.54
715.043	58.25
715.227	58.39
715.41	57.45
715.593	57.81
715.776	57.52
715.959	57.37
716.142	58.48
716.325	58.32
716.508	58.53
716.691	57.96
716.874	58.02
717.057	57.92
717.239	58.13
717.422	58.46
717.605	58.02
717.788	57.8
717.971	58.51
718.154	57.82
718.337	57.18
718.519	56.53
718.702	56.26
718.885	55.66
719.068	56.32
719.25	55.65
719.433	55.99
719.616	55.66
719.798	55.49
719.981	55
720.164	54.66
720.346	54.92
720.529	56.2
720.712	56.73
720.894	57.08
721.077	56.21
721.259	56.57
721.442	56.12
721.624	56.64
721.807	56.87
721.989	55.81
722.172	56.26
722.354	57.41
722.537	57.05
722.719	56.43
722.901	56.77
723.084	57.29
723.266	56.93
723.448	57.29
723.631	56.46
723.813	56.4
723.995	57.53
724.178	57.32
724.36	56.56
724.542	55.74
724.724	56.12
724.907	55.59
725.089	56.05
725.271	56.06
725.453	56.21
725.635	56.52
725.817	56.49
725.999	56.56
726.181	56.77
726.364	56.92
726.546	57.32
726.728	58.37
726.91	59.13
727.092	58.24
727.274	58.48
727.456	58.28
727.638	58.55
727.819	59.02
728.001	59.13
728.183	59.2
728.365	59.48
728.547	60.08
728.729	59.61
728.911	59.52
729.093	59.71
729.274	60.26
729.456	60.59
729.638	60.67
729.82	60.74
730.001	60.25
730.183	60.08
730.365	59.39
730.546	58.88
730.728	58.78
730.91	58.58
731.091	58.3
731.273	58.26
731.455	57.16
731.636	57.43
731.818	56.94
731.999	56.82
732.181	57.13
732.362	56.85
732.544	56.02
732.725	56
732.907	55.9
733.088	56.79
733.27	56.38
733.451	57.66
733.633	57.56
733.814	58.47
733.995	59.13
734.177	59.11
734.358	59.03
734.539	59.16
734.721	59.66
734.902	60.17
735.083	59.94
735.264	60.14
735.446	59.47
735.627	59.9
735.808	59.94
735.989	58.44
736.17	57.92
736.351	58.82
736.533	59.34
736.714	58.13
736.895	56.95
737.076	56.41
737.257	55.69
737.438	55.44
737.619	55.66
737.8	54.71
737.981	55.51
738.162	55.97
738.343	55.45
738.524	56.71
738.705	57.49
738.886	57.46
739.067	57.88
739.247	58.3
739.428	58.18
739.609	56.94
739.79	57.98
739.971	57.15
740.151	56.76
740.332	57.97
740.513	55.99
740.694	56.54
740.874	57.17
741.055	56.94
741.236	58.31
741.417	58.59
741.597	59
741.778	57.07
741.958	58.08
742.139	58.54
742.32	57.01
742.5	59.19
742.681	57.91
742.861	57.61
743.042	56.78
743.222	55.13
743.403	55.41
743.583	55.3
743.764	55.78
743.944	56.43
744.124	57.24
744.305	58.43
744.485	57.64
744.666	57.38
744.846	56.89
745.026	55.94
745.207	55.39
745.387	54.04
745.567	53.83
745.747	54.25
745.928	54.56
746.108	53.15
746.288	53.05
746.468	51.51
746.648	53.12
746.829	53.47
747.009	54.55
747.189	54.18
747.369	55.43
747.549	56.55
747.729	57.29
747.909	55.67
748.089	57.35
748.269	56.17
748.449	57.54
748.629	57.04
748.809	57.63
748.989	57.9
749.169	58.88
749.349	59.39
749.529	58.21
749.709	56.92
749.889	57.55
750.068	56.66
750.248	57.97
750.428	58.71
750.608	58.93
750.788	57.24
750.967	57.89
751.147	57.88
751.327	56.81
751.507	57.51
751.686	57.67
751.866	58.07
752.046	57.76
752.225	56.02
752.405	55.17
752.585	55
752.764	55.97
752.944	56.41
753.123	56.2
753.303	56.55
753.482	56.27
753.662	56.42
753.841	56.15
754.021	55.51
754.2	57.1
754.38	56
754.559	54.03
754.739	54.42
754.918	54.38
755.097	54.35
755.277	54.41
755.456	54.37
755.635	55.03
755.815	56.11
755.994	56.96
756.173	55.22
756.352	55.47
756.532	57.11
756.711	57.41
756.89	56.02
757.069	56.24
757.248	56.76
757.427	56.05
757.607	55.24
757.786	54.76
757.965	54.48
758.144	56.64
758.323	57.3
758.502	57.19
758.681	57.44
758.86	59.04
759.039	58.97
759.218	57.79
759.397	57.67
759.576	57.61
759.755	57.57
759.934	57.81
760.113	57.84
760.291	57.41
760.47	59.52
760.649	59.67
760.828	59.71
761.007	59.45
761.186	59.04
761.364	60.56
761.543	61.3
761.722	60
761.901	59.5
762.079	58.98
762.258	58.88
762.437	57.05
762.615	56.14
762.794	54.94
762.972	55.58
763.151	56.57
763.33	56
763.508	55.34
763.687	56.51
763.865	56.47
764.044	57
764.222	57.01
764.401	57.36
764.579	58.2
764.758	58.81
764.936	58.31
765.114	58.04
765.293	57.58
765.471	59.03
765.65	58.27
765.828	57.72
766.006	55.86
766.184	55.16
766.363	53.99
766.541	52.06
766.719	50.73
766.898	50.73
767.076	50.1
767.254	50.56
767.432	50.26
767.61	51.32
767.788	52.84
767.967	53.13
768.145	53.62
768.323	54.82
768.501	55.41
768.679	56.74
768.857	56.4
769.035	57.21
769.213	57.22
769.391	56.58
769.569	54.95
769.747	54.04
769.925	54.52
770.103	56.19
770.281	55.23
770.459	55.18
770.636	56.11
770.814	56.75
770.992	57.33
771.17	56.16
771.348	55.11
771.525	55.87
771.703	54.96
771.881	53.72
772.059	52.78
772.236	53.35
772.414	54.11
772.592	52.4
772.769	51.05
772.947	52.25
773.125	52.67
773.302	53.9
773.48	54.44
773.657	56.35
773.835	58.4
774.013	58.77
774.19	59.58
774.368	60.25
774.545	60.9
774.723	63.36
774.9	60.7
775.077	61
775.255	60.75
775.432	61.33
775.61	60.4
775.787	60.09
775.964	60.57
776.142	59.67
776.319	58.59
776.496	59.28
776.674	59.59
776.851	61.07
777.028	62.06
777.205	63.51
777.382	63.22
777.56	63.49
777.737	61.6
777.914	59.74
778.091	58.13
778.268	58.61
778.445	56.87
778.622	57.39
778.8	57.07
778.977	56.82
779.154	55.33
779.331	54
779.508	55.45
779.685	55.66
779.862	57.33
780.038	59.51
780.215	59.64
780.392	60.93
780.569	57.71
780.746	57.42
780.923	56.49
781.1	54.95
781.277	54.16
781.453	54.43
781.63	55.35
781.807	54.77
781.984	54.61
782.16	55.66
782.337	55.23
782.514	55.7
782.691	55.45
782.867	58.17
783.044	58.44
783.221	61.21
783.397	58.93
783.574	59.76
783.75	61.22
783.927	59.19
784.103	56.64
784.28	56.61
784.456	58.42
784.633	58.6
784.809	55.79
784.986	55.49
785.162	53.09
785.339	52.39
785.515	51.41
785.692	52.12
785.868	52.36
786.044	54.95
786.221	55.54
786.397	52.12
786.573	53.95
786.749	55.6
786.926	56.57
787.102	56.28
787.278	57.87
787.454	58.12
787.631	55.71
787.807	56.47
787.983	54.89
788.159	53.31
788.335	56.18
788.511	56.61
788.687	57.03
788.863	56.89
789.039	58.7
789.216	59.66
789.392	59.93
789.568	58.66
789.744	58.73
789.919	58.45
790.095	57.25
790.271	57
790.447	54.96
790.623	55.13
790.799	54.08
790.975	52.82
791.151	51.94
791.327	52.54
791.502	54.81
791.678	53.05
791.854	53.92
792.03	53.45
792.205	52.32
792.381	52.95
792.557	48.32
792.733	48.27
792.908	48.69
793.084	47.07
793.259	47.41
793.435	45.49
793.611	45.25
793.786	43.49
793.962	45.66
794.137	43.77
794.313	43.61
794.488	47.22
794.664	50.7
794.839	48.48
795.015	50.4
795.19	50.24
795.366	49.27
795.541	48.98
795.716	49.49
795.892	50.1
796.067	52.45
796.242	51.27
796.418	49.72
796.593	47.99
796.768	51.23
796.944	51.37
797.119	50.66
797.294	52.47
797.469	54.7
797.644	56.08
797.82	58.31
797.995	56.11
798.17	56.53
798.345	57.25
798.52	58.52
798.695	57.44
798.87	56.6
799.045	57.59
799.22	57.7
799.395	56.76
799.57	58.53
799.745	59.12
799.92	60.98
800.095	61.32
800.27	61.75
800.445	64.91
800.62	63.08
800.795	64.09
800.97	64.07
801.145	66.57
801.319	66.48
801.494	63.83
801.669	64.13
801.844	64.12
802.018	62.41
802.193	64.46
802.368	60.65
802.543	59.36
802.717	59.02
802.892	55.02
803.067	53.81
803.241	55.82
803.416	57.73
803.59	53.95
803.765	51.07
803.94	56.06
804.114	55.9
804.289	55.38
804.463	58.8
804.638	58.64
804.812	59.49
804.986	56.28
805.161	53.83
805.335	52.84
805.51	54.58
805.684	54.99
805.858	54.16
806.033	52.33
806.207	54
806.381	54.67
806.556	57.23
806.73	58.58
806.904	59.58
807.078	56.59
807.253	55.12
807.427	54.14
807.601	56.45
807.775	52.45
807.949	54.08
808.123	52.89
808.298	49.28
808.472	44.89
808.646	46.19
808.82	47.34
808.994	54.89
809.168	55.51
809.342	57.8
809.516	59.48
809.69	61.5
809.864	61.64
810.038	62.24
810.212	64.64
810.385	63.79
810.559	66.8
810.733	67.75
810.907	60.07
811.081	58.33
811.255	60.47
811.428	56.75
811.602	60.29
811.776	57.67
811.95	56.45
812.123	56.68
812.297	57.84
812.471	55.1
812.644	54.27
812.818	56.49
812.992	59.63
813.165	51.94
813.339	52.32
813.512	48.92
813.686	49.87
813.86	47.56
814.033	45.2
814.207	46.09
814.38	45.08
814.554	39.73
814.727	37.89
814.9	40.63
815.074	44.36
815.247	48.31
815.421	49.3
815.594	54.39
815.767	56.7
815.941	58.04
816.114	55.1
816.287	55.1
816.46	57.35
816.634	60.59
816.807	59.42
816.98	62.34
817.153	56.05
817.327	51.76
817.5	45.39
817.673	44.64
817.846	41.67
818.019	43.9
818.192	42.92
818.365	42.99
818.538	39.9
818.711	38.9
818.884	39.54
819.057	38.48
819.23	42.07
819.403	45.03
819.576	47
819.749	48.7
819.922	46.95
820.095	50.89
820.268	51.85
820.441	49.71
820.614	49.99
820.786	49.07
820.959	53.78
821.132	54.24
821.305	54.63
821.477	53.7
821.65	54.09
821.823	55.54
821.996	53.89
822.168	54.28
822.341	55.29
822.514	55.62
822.686	55.17
822.859	54.22
823.031	54.38
823.204	54.17
823.376	54.5
823.549	53.82
823.722	53.29
823.894	54.04
824.067	53.33
824.239	54.43
824.411	54.46
824.584	54.51
824.756	53.89
824.929	53.76
825.101	53.17
825.273	52.55
825.446	52.71
825.618	52.88
825.79	51.91
825.963	51.85
826.135	50.92
826.307	49.04
826.479	48.92
826.652	49.31
826.824	48.57
826.996	48.35
827.168	48.96
827.34	49.33
827.512	48.78
827.684	48.07
827.856	49.35
828.029	47.78
828.201	48.38
828.373	48.74
828.545	48.83
828.717	48.53
828.889	48.75
829.061	47.46
829.232	48.02
829.404	45.62
829.576	48.21
829.748	47.43
829.92	49.13
830.092	52.44
830.264	53.02
830.436	53.41
830.607	53.75
830.779	54.5
830.951	56.02
831.123	54.16
831.294	58.36
831.466	56.12
831.638	53.66
831.809	55.36
831.981	51.23
832.153	51.93
832.324	53.99
832.496	55.32
832.667	54.72
832.839	55.09
833.011	55.77
833.182	55.43
833.354	55.77
833.525	56.01
833.697	56.26
833.868	56.48
834.039	54.56
834.211	55.82
834.382	57.22
834.554	56.76
834.725	54.32
834.896	56.13
835.068	55.58
835.239	55.02
835.41	55.5
835.581	54.67
835.753	56.75
835.924	59.74
836.095	58.63
836.266	57.97
836.438	57.86
836.609	59.9
836.78	55.38
836.951	55.15
837.122	57.75
837.293	57.7
837.464	56.25
837.635	55.8
837.806	53.98
837.977	53.47
838.148	51.06
838.319	49.41
838.49	51.95
838.661	57.78
838.832	62.03
839.003	62.07
839.174	66.49
839.345	64.49
839.516	63.57
839.687	64.88
839.857	62.58
840.028	62.64
840.199	61.76
840.37	54.44
840.54	54.01
840.711	49.78
840.882	46.5
841.053	44.17
841.223	41.57
841.394	41.3
841.564	39.21
841.735	40.54
841.906	42.68
842.076	46.15
842.247	48.96
842.417	47.8
842.588	44.24
842.758	41.37
842.929	37.8
843.099	44.98
843.27	43.15
843.44	41.31
843.611	46.85
843.781	46.9
843.951	51.8
844.122	47.06
844.292	43.7
844.462	53.52
844.633	69.34
844.803	75.9
844.973	75.91
845.144	81.15
845.314	84.76
845.484	79.32
845.654	73.57
845.824	65.63
845.995	72.91
846.165	81.06
846.335	80.11
846.505	64.63
846.675	61.25
846.845	65.04
847.015	60.86
847.185	54.4
847.355	45.89
847.525	46.56
847.695	46.64
847.865	45.27
848.035	42.43
848.205	45.15
848.375	55.95
848.545	55.34
848.715	52.95
848.884	56.25
849.054	55.96
849.224	70.17
849.394	70.15
849.564	71.28
849.733	73.33
849.903	74.3
850.073	67.08
850.243	57.15
850.412	57.04
850.582	60.38
850.752	67.74
850.921	80.47
851.091	77.02
851.26	60.27
851.43	51.39
851.599	55.79
851.769	64.16
851.939	66.66
852.108	60.16
852.278	62.2
852.447	59.51
852.616	60.53
852.786	55.66
852.955	67.51
853.125	90.73
853.294	87.48
853.463	86.83
853.633	84.63
853.802	96.47
853.971	111.33
854.141	125.23
854.31	127.9
854.479	134.92
854.648	130.24
854.818	120.05
854.987	106.77
855.156	123.02
855.325	117.25
855.494	114.32
855.663	97.36
855.832	90.65
856.001	82.63
856.171	78.83
856.34	72.78
856.509	67.71
856.678	65.93
856.847	87.07
857.016	87.68
857.185	85.04
857.353	92.49
857.522	103.69
857.691	98.21
857.86	81.74
858.029	96.72
858.198	73.84
858.367	89.97
858.535	86.02
858.704	88.41
858.873	71.96
859.042	80.08
859.21	63.89
859.379	44.02
859.548	62.48
859.717	62
859.885	45.37
860.054	54.06
860.222	42.85
860.391	52.99
860.56	31.95
860.728	37.04
860.897	43.1
861.065	46.37
861.234	55.49
861.402	53.09
861.571	61.19
861.739	59.01
861.908	67.7
862.076	65.69
862.244	55.72
862.413	57.6
862.581	63.61
862.749	46.11
862.918	62.61
863.086	49.39
863.254	56.53
863.423	90.95
863.591	112
863.759	77.81
863.927	56.39
864.096	60.66
864.264	61.84
864.432	45.88
864.6	54.65
864.768	50.46
864.936	69.65
865.104	53.06
865.272	41.65
865.44	54.54
865.608	50.37
865.776	47.46
865.944	41.97
866.112	46.57
866.28	65.56
866.448	60.7
866.616	60.79
866.784	60.55
866.952	66.78
867.12	53.88
867.288	39.35
867.455	42.07
867.623	60.32
867.791	61.07
867.959	59.91
868.127	51.92
868.294	56.32
868.462	54.05
868.63	41.11
868.797	36.73
868.965	46.74
869.133	52.28
869.3	54.6
869.468	50.65
869.636	53.43
869.803	60.62
869.971	50.16
870.138	67.1
870.306	69.35
870.473	72.33
870.641	90.63
870.808	95.01
870.975	89.97
871.143	100.29
871.31	109.27
871.478	118.36
871.645	126.49
871.812	120.36
871.98	130.97
872.147	104.67
872.314	80.57
872.482	82.48
872.649	90.56
872.816	85.88
872.983	68.96
873.15	71.7
873.318	66.23
873.485	41.99
873.652	39.8
873.819	27.47
873.986	22.19
874.153	35.6
874.32	31.86
874.487	38.73
874.654	31.86
874.821	35.88
874.988	46.21
875.155	40.09
875.322	83.8
875.489	90.21
875.656	85.76
875.823	98.86
875.99	84.36
876.157	65.89
876.324	55.61
876.49	60.71
876.657	70.31
876.824	55.65
876.991	65.24
877.157	59.66
877.324	45.99
877.491	40.95
877.658	36.9
877.824	49.15
877.991	50.31
878.157	63.14
878.324	54.11
878.491	55.56
878.657	63
878.824	52.66
878.99	48.29
879.157	64.15
879.323	81.14
879.49	78.22
879.656	54.74
879.823	82.68
879.989	52.45
880.156	63.37
880.322	44.31
880.488	52.38
880.655	60.86
880.821	51.43
880.987	41.89
881.154	44.32
881.32	56.65
881.486	57.3
881.652	52.49
881.819	57.37
881.985	59.44
882.151	56.4
882.317	50.46
882.483	48.3
882.649	51.69
882.816	45.75
882.982	41.66
883.148	41.48
883.314	44.13
883.48	41.12
883.646	40.9
883.812	39.2
883.978	40.72
884.144	41.84
884.31	43.46
884.476	43.01
884.642	48.68
884.807	50.63
884.973	51.08
885.139	49.14
885.305	52.5
885.471	53.67
885.637	53.39
885.802	53.61
885.968	53.34
886.134	50.78
886.3	50.28
886.465	48.57
886.631	49.78
886.797	46.75
886.962	52.27
887.128	51.94
887.293	55.31
887.459	56.86
887.625	59.76
887.79	72.52
887.956	74.89
888.121	80.61
888.287	81.11
888.452	80.48
888.618	88.95
888.783	85.58
