Data from 2937889_Reflection_1.txt Node
Date: Wed Jul 15 14:16:55 EDT 2015
User: robert
Spectrometer: USB4E03001
Autoset integration time: false
Trigger mode: 4
Integration Time (sec): 1.000000E-1
Scans to average: 10
Electric dark correction enabled: true
Nonlinearity correction enabled: false
Boxcar width: 5
Stray light correction enabled: false
XAxis mode: Wavelengths
Stop averaging: false
Number of Pixels in Spectrum: 3648
>>>>>Begin Spectral Data<<<<<
177.566	-8.04
177.785	-248.26
178.005	53.23
178.225	50.32
178.445	88.6
178.665	52.16
178.885	7.62
179.105	5.41
179.324	-48.29
179.544	12.31
179.764	16.22
179.984	-8.32
180.204	-50.18
180.423	10.66
180.643	29.71
180.863	27.62
181.083	37.23
181.302	0.8
181.522	6.07
181.742	28.49
181.961	34.78
182.181	-275.23
182.401	409.93
182.621	103.5
182.84	489.29
183.06	1075.97
183.279	-58.35
183.499	178.96
183.719	6.74
183.938	17.53
184.158	48.08
184.377	33.02
184.597	108.48
184.816	83.16
185.036	61.69
185.256	183.16
185.475	202.59
185.695	685.84
185.914	274.87
186.134	-1307.14
186.353	-1.61
186.572	399.61
186.792	-357.76
187.011	-2.25
187.231	-23.39
187.45	-335.86
187.67	-17.57
187.889	-175.47
188.108	-1681.67
188.328	-416.22
188.547	-128.42
188.766	9.76
188.986	-43.8
189.205	-208.26
189.424	-10.79
189.644	-18.14
189.863	-30.93
190.082	-83.22
190.302	-90.88
190.521	-30.48
190.74	-34.86
190.959	41.31
191.178	1.92
191.398	47.59
191.617	20.77
191.836	402
192.055	210.01
192.274	364.22
192.494	330.87
192.713	306.45
192.932	272.3
193.151	338.06
193.37	255.05
193.589	212.82
193.808	244.75
194.027	599.57
194.246	-540.6
194.465	-141.88
194.685	-40.18
194.904	-12.1
195.123	-23.78
195.342	-4.97
195.561	-63.58
195.78	-108.44
195.999	-38.88
196.218	-89.08
196.436	-317.71
196.655	-810.96
196.874	-543.31
197.093	-633.51
197.312	424.32
197.531	-440.27
197.75	-9039.51
197.969	361.34
198.188	1477.67
198.407	310.88
198.625	1557.61
198.844	-288.21
199.063	-143.98
199.282	-86.1
199.501	-333.45
199.719	-1056.4
199.938	290.51
200.157	323.06
200.376	820.22
200.594	-3072.43
200.813	-3121.2
201.032	-1499.48
201.251	5125.49
201.469	-9264.2
201.688	-496.12
201.907	-197.31
202.125	-98.88
202.344	-80.44
202.563	-53.2
202.781	-77.28
203	-118.07
203.218	-56
203.437	-25.91
203.656	-52.97
203.874	-58.76
204.093	-75.33
204.311	-84.31
204.53	-173.12
204.748	-193.85
204.967	-131.03
205.185	-107.35
205.404	-33.06
205.622	-48.42
205.841	-76.13
206.059	-58.58
206.278	-47.32
206.496	-78.47
206.715	-22.9
206.933	25.1
207.151	29.56
207.37	73.02
207.588	46.02
207.806	33.91
208.025	-2.3
208.243	37.82
208.461	56.39
208.68	74.02
208.898	25.81
209.116	29.79
209.335	-19.36
209.553	-41
209.771	-156.9
209.989	57.71
210.208	25.22
210.426	485.47
210.644	71.37
210.862	459.33
211.081	-152.4
211.299	-76.81
211.517	-90.92
211.735	-64.69
211.953	-35.64
212.171	-30.45
212.39	-52.75
212.608	-100.49
212.826	-23.46
213.044	3.77
213.262	-8.38
213.48	-46.08
213.698	-89.25
213.916	-117.86
214.134	-176.47
214.352	2066.67
214.57	-604.92
214.788	789.68
215.006	232.06
215.224	347.04
215.442	262.65
215.66	562.01
215.878	-378.72
216.096	-207.73
216.314	-176.72
216.532	-130.87
216.75	-26.8
216.968	-51.62
217.185	-40.23
217.403	-14.47
217.621	-31.23
217.839	-24.21
218.057	-26.56
218.275	-72.21
218.492	-31.06
218.71	-33.14
218.928	-23.54
219.146	-62.97
219.363	-30.92
219.581	-36.18
219.799	-93.34
220.017	-136.04
220.234	-119.23
220.452	-154.56
220.67	-63.39
220.887	-153.19
221.105	-254.03
221.323	-532.44
221.54	-177.53
221.758	-587.13
221.976	-375.85
222.193	-266.64
222.411	-105.82
222.629	-170.79
222.846	-116.59
223.064	-824.72
223.281	-126.36
223.499	-173.78
223.716	-158.17
223.934	-276.61
224.151	-208.75
224.369	-99.46
224.586	-254.99
224.804	-372.63
225.021	10485.71
225.239	3191.74
225.456	-486.25
225.674	-300.72
225.891	-150.81
226.108	-184.99
226.326	-188.92
226.543	-115.54
226.76	-124.62
226.978	-97.89
227.195	-88.07
227.413	-58.67
227.63	-41.55
227.847	-18.21
228.064	-8.42
228.282	-0.05
228.499	5.47
228.716	12.85
228.934	15.52
229.151	20
229.368	16.66
229.585	17.4
229.802	20.23
230.02	23.04
230.237	16.55
230.454	14.3
230.671	11.95
230.888	17.47
231.105	9.62
231.323	9.91
231.54	8.26
231.757	6.42
231.974	2.88
232.191	7.28
232.408	7.9
232.625	9.94
232.842	5.52
233.059	6.34
233.276	-16.36
233.493	1.57
233.71	5.22
233.927	7.29
234.144	16.21
234.361	16.13
234.578	13.86
234.795	16.95
235.012	16.7
235.229	23.74
235.446	22.26
235.663	25.32
235.879	27.8
236.096	27.27
236.313	20.02
236.53	18.81
236.747	18.77
236.964	14.53
237.181	14.17
237.397	17.05
237.614	18.09
237.831	17.39
238.048	12.98
238.264	8.83
238.481	3.79
238.698	8.87
238.915	9.04
239.131	10.61
239.348	16.88
239.565	16.77
239.781	17.51
239.998	14.59
240.215	13.73
240.431	15.4
240.648	13.41
240.865	15.28
241.081	17.1
241.298	16.19
241.514	14.8
241.731	10.98
241.947	10.2
242.164	9.35
242.38	8.34
242.597	9.43
242.814	9.52
243.03	11.19
243.246	10.31
243.463	10.49
243.679	11.53
243.896	9.72
244.112	11.97
244.329	10.42
244.545	11.96
244.762	13.79
244.978	14.19
245.194	14.09
245.411	13.28
245.627	14.27
245.843	13.8
246.06	13.84
246.276	15.51
246.492	14.52
246.709	14.66
246.925	14.7
247.141	14.71
247.357	14.34
247.574	14.73
247.79	14.59
248.006	14.58
248.222	14.29
248.439	13.91
248.655	14.72
248.871	14.85
249.087	16.2
249.303	15.02
249.519	15.04
249.736	14.39
249.952	13.42
250.168	13.69
250.384	12.71
250.6	11.34
250.816	9.91
251.032	7.61
251.248	6.26
251.464	4.79
251.68	5.83
251.896	4.58
252.112	6
252.328	7.09
252.544	6.61
252.76	7.45
252.976	8.68
253.192	8.43
253.408	8.91
253.624	9.42
253.84	6.64
254.056	6.18
254.272	5.81
254.487	7.45
254.703	4.98
254.919	5
255.135	6.51
255.351	1.32
255.567	3.94
255.782	-0.67
255.998	-1.98
256.214	2.14
256.43	4.2
256.646	5.27
256.861	4.64
257.077	8.71
257.293	6.86
257.508	6.09
257.724	11.48
257.94	10.68
258.155	13.08
258.371	12.76
258.587	12.35
258.802	11.61
259.018	11.86
259.234	11.34
259.449	10.29
259.665	11.25
259.88	11.75
260.096	10.57
260.312	10.19
260.527	9.76
260.743	10.43
260.958	10.47
261.174	10.03
261.389	8.99
261.605	8.2
261.82	7.14
262.036	7.12
262.251	5.16
262.466	4.36
262.682	4.57
262.897	4.52
263.113	3.99
263.328	3.92
263.543	5.85
263.759	5.84
263.974	6.28
264.189	9.03
264.405	7.04
264.62	7.43
264.835	9.82
265.051	10.16
265.266	10.57
265.481	11.82
265.696	12.36
265.912	10.56
266.127	10.02
266.342	9.22
266.557	6.79
266.773	8.64
266.988	9.02
267.203	8.87
267.418	9.42
267.633	9.17
267.848	7.43
268.064	6.25
268.279	6.55
268.494	7.75
268.709	7.74
268.924	9.48
269.139	8.31
269.354	10.31
269.569	9.87
269.784	10.75
269.999	10.89
270.214	11.12
270.429	10.38
270.644	10.42
270.859	9.63
271.074	9.74
271.289	8.62
271.504	8.84
271.719	6.52
271.934	7.57
272.149	6.2
272.363	6.35
272.578	5.47
272.793	6.86
273.008	6.89
273.223	7.95
273.438	7.85
273.653	8.66
273.867	8.82
274.082	8.39
274.297	7.94
274.512	6.25
274.726	6.44
274.941	8.58
275.156	7.6
275.371	7.68
275.585	8.3
275.8	9.18
276.015	9.93
276.229	10.95
276.444	12.09
276.659	11.27
276.873	12.87
277.088	12.78
277.302	12.04
277.517	12.24
277.732	12.88
277.946	10.96
278.161	10.25
278.375	8.9
278.59	7.93
278.804	8.33
279.019	9.21
279.233	9.33
279.448	8.17
279.662	7.45
279.877	5.97
280.091	6.59
280.306	6.89
280.52	7.82
280.735	9.24
280.949	8.04
281.163	7.39
281.378	6.16
281.592	6.73
281.806	8.04
282.021	9.16
282.235	9.59
282.449	9.55
282.664	9.76
282.878	8.89
283.092	8.54
283.307	9.41
283.521	9.73
283.735	9.69
283.949	8.9
284.164	7.49
284.378	6.45
284.592	7.21
284.806	5.86
285.02	5.92
285.234	6.23
285.449	4.78
285.663	4.57
285.877	4.87
286.091	5.25
286.305	5.05
286.519	5.77
286.733	6.29
286.947	6.77
287.161	6.23
287.375	5.88
287.589	6.08
287.803	7.71
288.017	8.44
288.231	8.6
288.445	9.05
288.659	9.94
288.873	11.04
289.087	9.9
289.301	10.21
289.515	12.15
289.729	12
289.943	12.22
290.157	11.1
290.371	10.97
290.584	10.52
290.798	9.85
291.012	8.41
291.226	7.87
291.44	9.72
291.654	8.56
291.867	8.22
292.081	8.17
292.295	6.63
292.509	5.9
292.722	5.45
292.936	5.19
293.15	5.87
293.364	6.2
293.577	6.42
293.791	4.97
294.005	7.07
294.218	5.97
294.432	7.39
294.645	7.94
294.859	8.62
295.073	9.14
295.286	9.8
295.5	10.41
295.713	11.45
295.927	12.11
296.14	12.98
296.354	11.7
296.568	12.38
296.781	12.13
296.994	11.66
297.208	11.63
297.421	11.51
297.635	10.87
297.848	10.75
298.062	10.31
298.275	9.94
298.489	8.75
298.702	9.11
298.915	9.32
299.129	9.24
299.342	10.54
299.555	10.4
299.769	10.49
299.982	11.08
300.195	10.76
300.409	12.33
300.622	11.28
300.835	12.11
301.048	12.17
301.262	10.35
301.475	10.35
301.688	10.55
301.901	11.41
302.115	9.99
302.328	8.99
302.541	9.31
302.754	7.78
302.967	8.56
303.18	8.69
303.393	8.2
303.607	8.81
303.82	9.4
304.033	10.08
304.246	9.67
304.459	11.3
304.672	12.2
304.885	11.75
305.098	12.6
305.311	13.19
305.524	12.03
305.737	12.37
305.95	12.16
306.163	11.26
306.376	8.19
306.589	9.22
306.802	9.41
307.015	9.93
307.228	9.49
307.44	9.63
307.653	9.06
307.866	8.05
308.079	8.73
308.292	10.21
308.505	9.5
308.718	12.24
308.93	10.89
309.143	9.8
309.356	9.52
309.569	10.33
309.781	11.77
309.994	10.69
310.207	11.82
310.42	11.32
310.632	10.79
310.845	11.95
311.058	11.51
311.27	11.98
311.483	12.31
311.696	12.53
311.908	12.26
312.121	9.65
312.333	10.48
312.546	11.16
312.759	12.2
312.971	12.25
313.184	11.86
313.396	11.3
313.609	11.76
313.821	12.61
314.034	13.03
314.246	13.05
314.459	14.06
314.671	14.06
314.884	15.2
315.096	15.02
315.309	15.01
315.521	14.1
315.733	13.68
315.946	14.33
316.158	14.58
316.371	12.89
316.583	11.17
316.795	10.87
317.008	10.96
317.22	8.47
317.432	8.83
317.644	10.59
317.857	10.72
318.069	10.85
318.281	10.45
318.494	8.59
318.706	9.87
318.918	11.27
319.13	12.5
319.342	11.85
319.555	13.79
319.767	12.33
319.979	10.56
320.191	11.43
320.403	12.54
320.615	10.85
320.827	12.02
321.039	11.06
321.252	11.19
321.464	10.74
321.676	11.71
321.888	11.65
322.1	11.45
322.312	9.87
322.524	9
322.736	8.64
322.948	9.5
323.16	10.24
323.372	11.72
323.584	12.2
323.796	11.88
324.007	11.42
324.219	11.16
324.431	10.56
324.643	13.16
324.855	13.9
325.067	13.82
325.279	13.43
325.491	13.48
325.702	13.56
325.914	13.03
326.126	13.41
326.338	11.8
326.55	11.67
326.761	11.4
326.973	9.91
327.185	9.7
327.396	10.62
327.608	11.41
327.82	11.4
328.032	11.06
328.243	13.62
328.455	13.62
328.666	14.75
328.878	15.14
329.09	17.14
329.301	16.38
329.513	16.7
329.725	15.68
329.936	16.95
330.148	14.79
330.359	15.17
330.571	11.29
330.782	11.1
330.994	10.46
331.205	8.25
331.417	7.61
331.628	9.91
331.84	11.44
332.051	10.49
332.262	8.76
332.474	8.85
332.685	6.91
332.897	8.92
333.108	8.87
333.319	9.45
333.531	11.68
333.742	12.18
333.953	12.1
334.165	12.31
334.376	13.37
334.587	12.53
334.799	13.01
335.01	13.98
335.221	14.37
335.432	14.94
335.644	14.47
335.855	13.52
336.066	11.63
336.277	11.2
336.488	10.64
336.7	10.64
336.911	12.08
337.122	13.46
337.333	13.73
337.544	13.88
337.755	13.91
337.966	14.77
338.177	15.06
338.388	16.06
338.599	16.03
338.811	15.06
339.022	15.44
339.233	14.92
339.444	13.7
339.655	13.95
339.866	13.42
340.076	12.79
340.287	14.2
340.498	14.97
340.709	15.15
340.92	15.22
341.131	15.06
341.342	14.49
341.553	13.77
341.764	15.21
341.975	14.85
342.185	15.36
342.396	16.67
342.607	16.12
342.818	15.8
343.029	15.19
343.239	14.29
343.45	14.27
343.661	14.32
343.872	15.87
344.082	15.19
344.293	15.29
344.504	15.13
344.714	14.01
344.925	12.7
345.136	11.97
345.346	12.89
345.557	13.4
345.768	13.64
345.978	14.22
346.189	13.03
346.399	12.07
346.61	11.54
346.821	10.6
347.031	10.84
347.242	11.25
347.452	11.17
347.663	10.76
347.873	10.72
348.084	9.84
348.294	9.17
348.504	9.87
348.715	10.59
348.925	10.56
349.136	9.76
349.346	9.49
349.557	9.86
349.767	9.6
349.977	8.61
350.188	8.7
350.398	8.98
350.608	10.35
350.819	9.11
351.029	8.03
351.239	8.3
351.449	9.5
351.66	10.01
351.87	10.49
352.08	11.36
352.29	12.03
352.501	12.2
352.711	13.2
352.921	12.24
353.131	13.78
353.341	15.28
353.552	14.9
353.762	14.79
353.972	15.08
354.182	14
354.392	14.01
354.602	14.52
354.812	15.18
355.022	15.52
355.232	15.12
355.442	14.75
355.652	13.59
355.862	14.67
356.072	14.77
356.282	14.08
356.492	14.19
356.702	13.59
356.912	14.34
357.122	14.34
357.332	13.02
357.542	13.64
357.752	12.63
357.962	13.53
358.171	13.26
358.381	13.28
358.591	13.92
358.801	13.37
359.011	14.09
359.221	13.65
359.43	12.83
359.64	13.52
359.85	13.44
360.06	14.33
360.269	14.23
360.479	13.96
360.689	14.13
360.899	13.41
361.108	14.86
361.318	14.37
361.528	13.73
361.737	14.08
361.947	14.02
362.156	14.11
362.366	13.71
362.576	13.73
362.785	13.84
362.995	13.83
363.204	14.26
363.414	13.43
363.623	13.37
363.833	13.84
364.042	13.54
364.252	13.5
364.461	11.75
364.671	12.43
364.88	12.01
365.09	11.85
365.299	10.59
365.509	10.42
365.718	10.53
365.927	10.02
366.137	10.1
366.346	10.1
366.555	9.74
366.765	10.78
366.974	10.45
367.183	10.82
367.393	11.15
367.602	11.46
367.811	11.81
368.021	11.61
368.23	12.01
368.439	11.27
368.648	11.56
368.857	12.06
369.067	12.61
369.276	11.77
369.485	12.17
369.694	12.4
369.903	12.12
370.112	11.33
370.321	11.39
370.531	12.39
370.74	12.3
370.949	12.19
371.158	12.67
371.367	12.52
371.576	12.93
371.785	11.88
371.994	11.61
372.203	12.53
372.412	12.63
372.621	12.57
372.83	11.92
373.039	12.02
373.248	12.07
373.457	11.01
373.666	10.61
373.874	10.36
374.083	10.22
374.292	10.14
374.501	8.93
374.71	8.21
374.919	7.99
375.128	7.84
375.336	8.67
375.545	9.07
375.754	8.94
375.963	8.6
376.171	8.43
376.38	8.72
376.589	8.23
376.798	9.16
377.006	9.79
377.215	10.16
377.424	9.49
377.632	9.58
377.841	8.9
378.05	9.49
378.258	9.76
378.467	9.97
378.675	9.89
378.884	10.02
379.093	9.74
379.301	9.42
379.51	9.11
379.718	9.83
379.927	9.44
380.135	8.95
380.344	8.79
380.552	9.24
380.761	9.31
380.969	9.02
381.177	9.05
381.386	8.74
381.594	8.85
381.803	8.75
382.011	8.51
382.219	7.51
382.428	8.18
382.636	7.82
382.845	7.04
383.053	6.7
383.261	6.9
383.469	7.25
383.678	7.45
383.886	7.53
384.094	7.76
384.302	7.69
384.511	7.74
384.719	7.34
384.927	7.88
385.135	7.73
385.343	7.6
385.552	7.98
385.76	7.61
385.968	7.73
386.176	7.77
386.384	7.69
386.592	7.94
386.8	8.55
387.008	8.27
387.216	7.6
387.424	7.85
387.633	8.6
387.841	8.89
388.049	9.37
388.257	9.59
388.465	9.34
388.672	9.25
388.88	8.94
389.088	8.72
389.296	9.4
389.504	9.54
389.712	9.58
389.92	8.99
390.128	8.45
390.336	8.05
390.544	7.79
390.751	7.9
390.959	7.38
391.167	7.32
391.375	7.33
391.583	6.99
391.79	7
391.998	6.42
392.206	6.28
392.414	6.29
392.621	6.29
392.829	6.02
393.037	5.85
393.244	6.02
393.452	6.44
393.66	6.46
393.867	6.28
394.075	6.17
394.283	6.6
394.49	6.6
394.698	6.65
394.905	6.74
395.113	6.85
395.32	7.11
395.528	7.12
395.735	6.75
395.943	6.49
396.15	6.42
396.358	6.33
396.565	6.49
396.773	6.53
396.98	6.36
397.188	6.07
397.395	6
397.602	5.95
397.81	5.9
398.017	5.65
398.225	5.8
398.432	5.95
398.639	6.05
398.847	5.62
399.054	5.82
399.261	6.18
399.468	6.33
399.676	6.27
399.883	6.19
400.09	6.62
400.297	6.71
400.505	6.95
400.712	7.47
400.919	7.72
401.126	8.08
401.333	7.99
401.54	7.69
401.748	7.67
401.955	7.39
402.162	7.33
402.369	6.96
402.576	6.71
402.783	6.38
402.99	6.09
403.197	5.76
403.404	5.42
403.611	5.44
403.818	5.51
404.025	5.41
404.232	5.77
404.439	5.67
404.646	5.93
404.853	5.7
405.06	5.66
405.267	5.58
405.474	5.47
405.681	5.69
405.887	5.69
406.094	5.46
406.301	5.42
406.508	5.23
406.715	5.49
406.922	5.14
407.128	5.67
407.335	5.7
407.542	5.64
407.749	5.92
407.955	6.16
408.162	6.3
408.369	6.46
408.575	6.4
408.782	6.55
408.989	6.28
409.195	6.4
409.402	6.32
409.609	6.46
409.815	6.66
410.022	6.34
410.228	6.14
410.435	6.03
410.642	5.96
410.848	6.13
411.055	6.26
411.261	6.25
411.468	6.42
411.674	6.52
411.881	6.37
412.087	5.97
412.294	6.21
412.5	6
412.706	5.74
412.913	5.57
413.119	5.71
413.326	5.27
413.532	5.2
413.738	5.12
413.945	5.03
414.151	4.77
414.357	4.87
414.564	5.19
414.77	5.58
414.976	5.61
415.182	5.73
415.389	5.83
415.595	6.12
415.801	5.92
416.007	6.07
416.214	6.18
416.42	6.35
416.626	6.43
416.832	6.08
417.038	5.69
417.244	5.73
417.45	5.94
417.657	5.62
417.863	5.73
418.069	5.87
418.275	5.86
418.481	5.81
418.687	5.84
418.893	5.87
419.099	5.78
419.305	5.93
419.511	6.05
419.717	5.97
419.923	6.19
420.129	6.14
420.335	6.1
420.541	5.96
420.746	5.97
420.952	6.07
421.158	6.01
421.364	5.95
421.57	5.87
421.776	5.95
421.982	6.03
422.187	5.89
422.393	5.89
422.599	5.98
422.805	6.01
423.01	5.98
423.216	5.86
423.422	5.97
423.628	6.14
423.833	6.25
424.039	6.11
424.245	5.94
424.45	5.91
424.656	5.79
424.862	5.73
425.067	5.89
425.273	5.9
425.478	6.04
425.684	5.97
425.889	5.77
426.095	5.78
426.301	5.85
426.506	5.85
426.712	5.87
426.917	5.98
427.123	6.03
427.328	5.95
427.533	6.06
427.739	5.82
427.944	5.73
428.15	5.96
428.355	5.9
428.561	5.84
428.766	5.79
428.971	5.84
429.177	5.81
429.382	5.93
429.587	5.59
429.793	5.2
429.998	5.13
430.203	4.98
430.408	4.99
430.614	4.97
430.819	4.93
431.024	5.19
431.229	5.06
431.434	4.89
431.64	4.61
431.845	4.7
432.05	5.1
432.255	5.29
432.46	5.49
432.665	5.49
432.87	5.42
433.076	5.47
433.281	5.28
433.486	5.32
433.691	5.33
433.896	5.34
434.101	5.36
434.306	5.03
434.511	5.01
434.716	5.01
434.921	4.9
435.126	5
435.331	5.09
435.535	5.04
435.74	5.14
435.945	5.28
436.15	5.39
436.355	5.25
436.56	5.6
436.765	5.51
436.97	5.38
437.174	5.44
437.379	5.47
437.584	5.36
437.789	5.46
437.993	5.61
438.198	5.64
438.403	5.59
438.608	5.76
438.812	5.53
439.017	5.72
439.222	5.76
439.426	5.78
439.631	5.71
439.836	5.68
440.04	5.67
440.245	5.5
440.45	5.38
440.654	5.36
440.859	5.29
441.063	5.5
441.268	5.44
441.472	5.47
441.677	5.27
441.881	5.26
442.086	5.07
442.29	5.06
442.495	5.06
442.699	5.19
442.904	5.31
443.108	5.4
443.312	5.23
443.517	5.01
443.721	4.9
443.925	5.21
444.13	5.2
444.334	5.34
444.538	5.33
444.743	5.27
444.947	5.45
445.151	5.31
445.356	5.24
445.56	5.34
445.764	5.53
445.968	5.58
446.173	5.55
446.377	5.53
446.581	5.38
446.785	5.38
446.989	5.32
447.193	5.11
447.398	5.14
447.602	5.13
447.806	5.01
448.01	4.87
448.214	4.96
448.418	4.95
448.622	4.96
448.826	5.14
449.03	5.21
449.234	5.4
449.438	5.3
449.642	5.33
449.846	5.33
450.05	5.3
450.254	5.21
450.458	5.03
450.662	4.85
450.866	4.83
451.069	4.95
451.273	4.96
451.477	4.86
451.681	4.76
451.885	4.74
452.089	4.99
452.292	4.84
452.496	5.03
452.7	5.09
452.904	5.39
453.107	5.24
453.311	5.21
453.515	5.17
453.719	5.28
453.922	5.31
454.126	5.18
454.33	5.09
454.533	5.27
454.737	5.12
454.94	5.17
455.144	4.91
455.348	5.04
455.551	5.03
455.755	5.01
455.958	4.77
456.162	4.92
456.365	5.02
456.569	4.86
456.772	4.99
456.976	5.28
457.179	5.24
457.383	5.34
457.586	5.43
457.79	5.41
457.993	5.28
458.196	5.42
458.4	5.37
458.603	5.47
458.807	5.52
459.01	5.43
459.213	5.29
459.417	5.23
459.62	5.24
459.823	5.22
460.026	4.96
460.23	5.14
460.433	5.07
460.636	5.24
460.839	5.25
461.042	5.1
461.246	5.04
461.449	5.03
461.652	4.99
461.855	5.04
462.058	4.97
462.261	5.07
462.464	4.98
462.668	5.06
462.871	4.83
463.074	4.61
463.277	4.84
463.48	4.88
463.683	4.91
463.886	5.01
464.089	4.91
464.292	5.07
464.495	5.12
464.698	5.1
464.901	5.1
465.104	5.23
465.306	5.06
465.509	5.07
465.712	4.89
465.915	4.92
466.118	4.71
466.321	4.76
466.524	4.83
466.726	4.96
466.929	4.84
467.132	4.48
467.335	4.43
467.538	4.67
467.74	4.69
467.943	4.77
468.146	4.58
468.348	4.74
468.551	4.57
468.754	4.4
468.956	4.48
469.159	4.69
469.362	4.79
469.564	4.68
469.767	4.74
469.969	4.84
470.172	4.86
470.375	4.76
470.577	4.92
470.78	4.91
470.982	5.08
471.185	4.89
471.387	4.84
471.59	4.96
471.792	5.04
471.995	5.04
472.197	4.85
472.399	4.87
472.602	5.05
472.804	4.94
473.007	5.07
473.209	4.82
473.411	4.9
473.614	4.62
473.816	4.61
474.018	4.62
474.22	4.54
474.423	4.54
474.625	4.8
474.827	4.71
475.03	4.68
475.232	4.71
475.434	4.76
475.636	4.61
475.838	4.85
476.04	4.75
476.243	4.88
476.445	4.9
476.647	4.8
476.849	4.61
477.051	4.72
477.253	4.76
477.455	4.69
477.657	4.8
477.859	5.04
478.061	4.98
478.263	5.29
478.465	5.2
478.667	5.16
478.869	5.19
479.071	5.23
479.273	5.16
479.475	5.16
479.677	5.15
479.879	5.05
480.081	4.98
480.283	5.03
480.485	4.84
480.686	4.79
480.888	4.79
481.09	4.93
481.292	4.83
481.494	4.91
481.695	4.91
481.897	4.96
482.099	5.07
482.301	5.08
482.502	5.22
482.704	5.34
482.906	5.36
483.107	5.38
483.309	5.29
483.511	5.35
483.712	5.34
483.914	5.34
484.115	5.32
484.317	5.25
484.519	5.21
484.72	5.13
484.922	5.05
485.123	5.08
485.325	5.08
485.526	5.13
485.728	5.12
485.929	5.15
486.131	5.14
486.332	5.14
486.534	5.19
486.735	5.25
486.936	5.22
487.138	5.24
487.339	5.22
487.541	5.21
487.742	5.16
487.943	5.22
488.144	5.16
488.346	5.13
488.547	5.1
488.748	5.11
488.95	5.11
489.151	5.14
489.352	5.14
489.553	5.13
489.755	5.24
489.956	5.29
490.157	5.17
490.358	5.17
490.559	5.23
490.76	5.24
490.961	5.24
491.163	5.24
491.364	5.18
491.565	5.17
491.766	5.23
491.967	5.13
492.168	5.13
492.369	5.15
492.57	5.24
492.771	5.24
492.972	5.27
493.173	5.24
493.374	5.22
493.575	5.33
493.776	5.25
493.976	5.17
494.177	5.11
494.378	5.09
494.579	5.07
494.78	4.98
494.981	5.04
495.182	4.99
495.382	4.96
495.583	5.05
495.784	4.86
495.985	4.94
496.185	5.06
496.386	5.07
496.587	5.03
496.788	5.14
496.988	5.15
497.189	5.1
497.39	5.13
497.59	5.24
497.791	5.21
497.992	5.4
498.192	5.46
498.393	5.37
498.593	5.37
498.794	5.51
498.994	5.3
499.195	5.28
499.395	5.45
499.596	5.48
499.796	5.5
499.997	5.43
500.197	5.51
500.398	5.66
500.598	5.58
500.799	5.74
500.999	5.57
501.199	5.65
501.4	5.77
501.6	5.63
501.801	5.7
502.001	5.58
502.201	5.61
502.402	5.67
502.602	5.58
502.802	5.74
503.002	5.68
503.203	5.87
503.403	5.95
503.603	5.99
503.803	5.9
504.003	5.75
504.204	5.81
504.404	5.74
504.604	5.57
504.804	5.42
505.004	5.51
505.204	5.54
505.404	5.47
505.604	5.58
505.804	5.46
506.005	5.38
506.205	5.45
506.405	5.24
506.605	5.21
506.805	5.43
507.005	5.61
507.204	5.49
507.404	5.52
507.604	5.6
507.804	5.53
508.004	5.6
508.204	5.77
508.404	5.78
508.604	5.95
508.804	6.12
509.003	6.13
509.203	6.13
509.403	6.19
509.603	6.14
509.803	6.06
510.002	6.03
510.202	6.02
510.402	6.1
510.602	6.13
510.801	6.23
511.001	6.01
511.201	5.99
511.4	6.07
511.6	5.93
511.8	6.03
511.999	6.17
512.199	6.36
512.398	6.43
512.598	6.44
512.797	6.49
512.997	6.56
513.197	6.93
513.396	6.9
513.596	6.96
513.795	7.31
513.994	7.42
514.194	7.41
514.393	7.37
514.593	7.39
514.792	7.43
514.992	7.57
515.191	7.57
515.39	7.47
515.59	7.43
515.789	7.26
515.988	7.27
516.188	7.14
516.387	7.21
516.586	7.24
516.786	7.27
516.985	7.2
517.184	7.31
517.383	7.31
517.582	7.41
517.782	7.41
517.981	7.54
518.18	7.45
518.379	7.51
518.578	7.54
518.777	7.63
518.976	7.52
519.176	7.49
519.375	7.39
519.574	7.4
519.773	7.37
519.972	7.41
520.171	7.42
520.37	7.45
520.569	7.44
520.768	7.38
520.967	7.31
521.166	7.48
521.365	7.67
521.564	7.68
521.762	7.76
521.961	7.71
522.16	7.63
522.359	7.77
522.558	7.84
522.757	7.94
522.956	8.09
523.154	8.05
523.353	8.06
523.552	8.12
523.751	8.18
523.949	8.32
524.148	8.41
524.347	8.56
524.546	8.43
524.744	8.41
524.943	8.31
525.142	8.31
525.34	8.4
525.539	8.55
525.737	8.58
525.936	8.58
526.135	8.57
526.333	8.67
526.532	8.82
526.73	8.92
526.929	8.94
527.127	8.99
527.326	8.94
527.524	8.92
527.723	8.91
527.921	8.86
528.12	8.87
528.318	8.86
528.516	8.91
528.715	8.92
528.913	8.91
529.112	8.88
529.31	8.94
529.508	8.96
529.707	9.08
529.905	9.12
530.103	9.15
530.301	9.25
530.5	9.28
530.698	9.34
530.896	9.28
531.094	9.28
531.293	9.42
531.491	9.54
531.689	9.63
531.887	9.61
532.085	9.63
532.283	9.66
532.481	9.72
532.68	9.66
532.878	9.57
533.076	9.55
533.274	9.67
533.472	9.69
533.67	9.72
533.868	9.74
534.066	9.73
534.264	9.75
534.462	9.87
534.66	9.82
534.858	10.05
535.056	10.07
535.253	10.18
535.451	10.21
535.649	10.28
535.847	10.31
536.045	10.37
536.243	10.43
536.441	10.43
536.638	10.38
536.836	10.39
537.034	10.32
537.232	10.45
537.43	10.55
537.627	10.54
537.825	10.45
538.023	10.5
538.22	10.49
538.418	10.5
538.616	10.56
538.813	10.57
539.011	10.79
539.209	10.79
539.406	10.85
539.604	10.75
539.801	10.88
539.999	11.11
540.196	10.94
540.394	11.14
540.591	11.14
540.789	11.17
540.986	11.33
541.184	11.29
541.381	11.27
541.579	11.17
541.776	11.26
541.974	11.19
542.171	11.22
542.368	11.37
542.566	11.35
542.763	11.39
542.96	11.43
543.158	11.54
543.355	11.6
543.552	11.76
543.75	11.98
543.947	12.12
544.144	12.22
544.341	12.24
544.539	12.21
544.736	12.26
544.933	12.37
545.13	12.36
545.327	12.32
545.524	12.37
545.722	12.52
545.919	12.56
546.116	12.61
546.313	12.85
546.51	13
546.707	13.07
546.904	13.13
547.101	13.17
547.298	13.22
547.495	13.23
547.692	13.19
547.889	13.12
548.086	13.23
548.283	13.25
548.48	13.25
548.677	13.19
548.874	13.24
549.07	13.24
549.267	13.27
549.464	13.39
549.661	13.49
549.858	13.62
550.055	13.76
550.251	13.87
550.448	13.99
550.645	13.85
550.842	13.96
551.038	14.22
551.235	14.29
551.432	14.61
551.628	14.61
551.825	14.61
552.022	14.6
552.218	14.52
552.415	14.57
552.612	14.4
552.808	14.58
553.005	14.7
553.201	14.66
553.398	14.71
553.594	14.55
553.791	14.73
553.987	14.79
554.184	14.82
554.38	14.97
554.577	15.07
554.773	15.43
554.97	15.6
555.166	15.61
555.362	15.5
555.559	15.55
555.755	15.69
555.952	15.77
556.148	15.77
556.344	15.68
556.541	15.88
556.737	15.79
556.933	15.45
557.129	15.43
557.326	15.53
557.522	15.72
557.718	15.87
557.914	15.99
558.11	16.02
558.307	16.14
558.503	16.47
558.699	16.43
558.895	16.36
559.091	16.87
559.287	17.09
559.483	17.16
559.679	17.4
559.876	17.18
560.072	17.11
560.268	17.14
560.464	17.33
560.66	17.35
560.856	17.35
561.052	17.68
561.247	17.55
561.443	17.46
561.639	17.43
561.835	17.33
562.031	17.9
562.227	18.25
562.423	18.41
562.619	18.44
562.815	18.56
563.01	18.78
563.206	18.71
563.402	18.65
563.598	18.63
563.793	18.74
563.989	19.07
564.185	18.74
564.381	18.56
564.576	18.66
564.772	18.55
564.968	18.57
565.163	18.49
565.359	18.7
565.555	18.78
565.75	18.82
565.946	19
566.141	18.92
566.337	19.12
566.532	19.04
566.728	19
566.923	19.07
567.119	19.17
567.314	19.24
567.51	19.26
567.705	19.31
567.901	19.5
568.096	19.35
568.292	19.26
568.487	19.25
568.682	19.52
568.878	19.52
569.073	19.76
569.268	19.9
569.464	20.1
569.659	20.05
569.854	20.27
570.05	20.29
570.245	20.3
570.44	20.36
570.635	20.72
570.831	20.75
571.026	20.8
571.221	20.77
571.416	20.89
571.611	20.89
571.806	20.91
572.002	20.98
572.197	21.23
572.392	21.4
572.587	21.62
572.782	21.52
572.977	21.59
573.172	21.76
573.367	21.63
573.562	21.55
573.757	21.39
573.952	21.59
574.147	21.67
574.342	21.47
574.537	21.48
574.732	21.48
574.927	21.53
575.121	21.74
575.316	21.76
575.511	22.03
575.706	22.09
575.901	22.24
576.096	22.17
576.29	22.05
576.485	22.11
576.68	22.2
576.875	22.23
577.069	22.25
577.264	22.24
577.459	22.12
577.654	22.22
577.848	22.16
578.043	22.63
578.238	22.61
578.432	22.69
578.627	22.92
578.821	23.08
579.016	23.05
579.21	23.03
579.405	22.88
579.6	23.17
579.794	23.28
579.989	23.45
580.183	22.84
580.378	22.85
580.572	22.99
580.766	22.64
580.961	22.52
581.155	22.37
581.35	22.29
581.544	22.46
581.738	22.34
581.933	22.31
582.127	22.2
582.321	22.35
582.516	22.62
582.71	22.51
582.904	22.82
583.099	22.89
583.293	22.96
583.487	23.12
583.681	22.84
583.875	22.73
584.07	22.72
584.264	23.08
584.458	23.11
584.652	22.93
584.846	23
585.04	22.92
585.234	22.96
585.428	23.23
585.623	23.38
585.817	23.48
586.011	23.75
586.205	23.6
586.399	23.4
586.593	23.71
586.787	23.72
586.981	23.64
587.174	23.89
587.368	23.77
587.562	24.03
587.756	23.9
587.95	24.1
588.144	24.17
588.338	24.31
588.532	24.3
588.725	24.14
588.919	24.23
589.113	24.41
589.307	24.29
589.501	24.55
589.694	24.29
589.888	24.35
590.082	24.46
590.275	24.47
590.469	24.37
590.663	24.3
590.856	24.47
591.05	24.58
591.244	24.77
591.437	24.88
591.631	24.8
591.824	24.95
592.018	24.75
592.212	24.7
592.405	24.47
592.599	24.53
592.792	24.73
592.986	24.68
593.179	24.74
593.372	24.57
593.566	24.24
593.759	24.15
593.953	23.9
594.146	24.37
594.339	24.32
594.533	24.36
594.726	24.33
594.92	24.34
595.113	24.54
595.306	24.24
595.499	24.3
595.693	24.67
595.886	24.93
596.079	25.28
596.272	25.11
596.466	25.05
596.659	25.21
596.852	25.44
597.045	25.28
597.238	25.31
597.431	25.32
597.624	25.32
597.818	25.3
598.011	25.25
598.204	25.26
598.397	25.37
598.59	25.55
598.783	25.61
598.976	25.63
599.169	26.05
599.362	25.85
599.555	25.93
599.748	26.26
599.941	26.36
600.134	26.32
600.326	26.04
600.519	25.84
600.712	25.98
600.905	26
601.098	25.92
601.291	25.83
601.483	25.88
601.676	26
601.869	25.9
602.062	25.79
602.255	25.8
602.447	26.13
602.64	26.15
602.833	26.01
603.025	26.21
603.218	26.28
603.411	26.38
603.603	26.39
603.796	26.42
603.989	26.43
604.181	26.65
604.374	26.81
604.566	26.73
604.759	26.81
604.951	26.89
605.144	26.83
605.336	26.82
605.529	26.54
605.721	26.57
605.914	26.59
606.106	26.33
606.299	26.16
606.491	26.06
606.683	26.05
606.876	26.18
607.068	26.2
607.26	25.91
607.453	25.69
607.645	25.85
607.837	25.86
608.03	25.88
608.222	26.15
608.414	26.27
608.606	26.05
608.799	25.92
608.991	25.93
609.183	25.64
609.375	25.66
609.567	25.58
609.759	25.44
609.952	25.63
610.144	25.88
610.336	25.78
610.528	25.67
610.72	25.81
610.912	25.73
611.104	25.66
611.296	25.84
611.488	26.01
611.68	26.28
611.872	26.52
612.064	26.08
612.256	25.66
612.448	25.73
612.64	25.27
612.832	25.23
613.023	25.37
613.215	25.4
613.407	25.39
613.599	25.17
613.791	25.31
613.983	25.17
614.174	25.44
614.366	25.66
614.558	25.53
614.75	26.07
614.941	26.25
615.133	26.22
615.325	26.58
615.516	26.51
615.708	26.77
615.9	26.67
616.091	26.83
616.283	26.95
616.475	26.87
616.666	27.2
616.858	26.94
617.049	26.78
617.241	27.15
617.432	26.9
617.624	27.02
617.815	27.16
618.007	27.21
618.198	27.07
618.39	27.17
618.581	27.45
618.773	27.53
618.964	27.97
619.155	27.72
619.347	27.56
619.538	27.68
619.729	27.95
619.921	27.59
620.112	27.66
620.303	27.93
620.494	27.88
620.686	28.07
620.877	27.91
621.068	27.68
621.259	28.01
621.451	27.63
621.642	27.45
621.833	27.26
622.024	27.37
622.215	27.62
622.406	27.47
622.597	27.46
622.788	27.09
622.98	27.14
623.171	27.12
623.362	27.09
623.553	27.45
623.744	27.5
623.935	27.55
624.126	27.4
624.317	27.17
624.508	27.42
624.698	27.36
624.889	27.43
625.08	27.19
625.271	27.26
625.462	27.46
625.653	27.53
625.844	27.57
626.034	27.61
626.225	27.93
626.416	27.88
626.607	27.81
626.798	27.86
626.988	28.02
627.179	28
627.37	28.05
627.56	28.09
627.751	27.94
627.942	27.89
628.132	27.94
628.323	27.86
628.514	27.73
628.704	27.68
628.895	27.63
629.085	27.48
629.276	27.77
629.466	27.46
629.657	27.46
629.847	27.33
630.038	27.24
630.228	26.95
630.419	26.95
630.609	27.28
630.8	27.27
630.99	27.53
631.181	27.35
631.371	27.42
631.561	27.95
631.752	27.95
631.942	28.14
632.132	27.93
632.323	28.08
632.513	28.15
632.703	28.01
632.893	27.97
633.084	27.86
633.274	28.02
633.464	27.93
633.654	27.7
633.844	27.44
634.034	27.63
634.225	27.91
634.415	28.15
634.605	28.18
634.795	28.14
634.985	28.06
635.175	28.18
635.365	28.12
635.555	28.15
635.745	28.25
635.935	28.32
636.125	28.15
636.315	28.34
636.505	28.32
636.695	28.52
636.885	28.55
637.075	28.6
637.265	28.5
637.455	28.49
637.644	28.36
637.834	28.33
638.024	28.24
638.214	28.51
638.404	28.3
638.593	28.15
638.783	27.56
638.973	27.52
639.163	27.66
639.352	27.65
639.542	27.7
639.732	27.99
639.921	28.01
640.111	28.46
640.301	28.21
640.49	28.06
640.68	27.68
640.87	28.1
641.059	28.07
641.249	27.66
641.438	27.18
641.628	27.07
641.817	26.99
642.007	26.95
642.196	26.67
642.386	26.68
642.575	26.98
642.764	27.15
642.954	27.07
643.143	27.58
643.333	28.22
643.522	28.19
643.711	28.45
643.901	28.48
644.09	28.41
644.279	28.08
644.469	27.73
644.658	27.56
644.847	27.85
645.036	27.62
645.226	27.1
645.415	27.08
645.604	27.22
645.793	27.07
645.982	27.04
646.171	27.3
646.361	27.57
646.55	28.09
646.739	28.3
646.928	27.69
647.117	28.02
647.306	28.21
647.495	28.04
647.684	28.52
647.873	28.83
648.062	28.53
648.251	28.56
648.44	28.75
648.629	28.86
648.818	28.77
649.007	29.5
649.196	29.44
649.384	29.34
649.573	29.33
649.762	29.28
649.951	29.06
650.14	29.33
650.328	29.58
650.517	29.58
650.706	29.33
650.895	29.25
651.083	29.01
651.272	28.93
651.461	28.95
651.65	28.89
651.838	28.91
652.027	29.07
652.216	28.99
652.404	28.53
652.593	28.17
652.781	27.87
652.97	28.03
653.158	27.87
653.347	27.9
653.535	28.3
653.724	28.26
653.912	28.08
654.101	28.05
654.289	28.14
654.478	28.39
654.666	28.63
654.855	28.99
655.043	29.3
655.231	29.75
655.42	30.07
655.608	29.27
655.796	29.22
655.985	29.47
656.173	29.49
656.361	29.29
656.55	28.83
656.738	29.25
656.926	29.43
657.114	28.42
657.302	28.26
657.491	28.08
657.679	28.55
657.867	28.9
658.055	28.83
658.243	28.95
658.431	28.83
658.619	29.02
658.807	28.41
658.996	28.2
659.184	28.74
659.372	28.73
659.56	28.76
659.748	28.99
659.936	28.9
660.124	28.89
660.311	28.81
660.499	29.04
660.687	29.38
660.875	29.67
661.063	29.77
661.251	29.58
661.439	29.63
661.627	29.33
661.814	28.94
662.002	29.06
662.19	28.91
662.378	29.09
662.565	29.11
662.753	28.91
662.941	28.62
663.129	28.59
663.316	29.08
663.504	29.05
663.692	29.36
663.879	29.53
664.067	29.68
664.254	29.83
664.442	29.46
664.63	29.26
664.817	29.19
665.005	29.26
665.192	28.97
665.38	28.67
665.567	28.86
665.755	28.79
665.942	28.55
666.13	27.85
666.317	27.57
666.504	27.61
666.692	27.94
666.879	27.74
667.067	28.07
667.254	28.82
667.441	28.67
667.629	28.33
667.816	28.28
668.003	28.46
668.19	28.98
668.378	29.42
668.565	29.19
668.752	28.91
668.939	28.63
669.127	28.46
669.314	27.86
669.501	28.18
669.688	28.13
669.875	28.11
670.062	28.22
670.249	27.87
670.436	27.09
670.623	27.26
670.81	27.51
670.997	27.85
671.184	27.99
671.371	27.96
671.558	28.11
671.745	28.34
671.932	28.41
672.119	28.15
672.306	28.27
672.493	28.77
672.68	28.72
672.867	28.37
673.054	28.07
673.24	28.32
673.427	28.38
673.614	28.19
673.801	27.89
673.988	28.42
674.174	28.43
674.361	28.76
674.548	28.91
674.734	28.84
674.921	29.28
675.108	29.31
675.294	29.27
675.481	29.62
675.668	29.62
675.854	29.63
676.041	29.05
676.227	29.23
676.414	29.14
676.601	29.33
676.787	29.46
676.974	29.18
677.16	29.9
677.347	29.85
677.533	30.01
677.719	29.82
677.906	29.97
678.092	30.12
678.279	30.39
678.465	30.12
678.651	29.92
678.838	29.52
679.024	30.23
679.21	30.06
679.397	29.67
679.583	29.73
679.769	29.94
679.955	30.33
680.142	30.69
680.328	30.82
680.514	31.03
680.7	31.29
680.886	32.05
681.073	31.5
681.259	31.53
681.445	31.66
681.631	31.19
681.817	30.79
682.003	30.66
682.189	30.26
682.375	30.07
682.561	30.03
682.747	29.82
682.933	29.39
683.119	29.26
683.305	29.53
683.491	30.04
683.677	30.11
683.863	30.71
684.049	30.47
684.235	30.39
684.42	30.13
684.606	29.92
684.792	29.54
684.978	29.64
685.164	30.25
685.349	30.07
685.535	29.55
685.721	29.94
685.907	29.75
686.092	29.73
686.278	30.2
686.464	29.69
686.649	30.05
686.835	30.38
687.021	30.26
687.206	30.29
687.392	29.9
687.577	29.77
687.763	30.11
687.948	30.36
688.134	30.59
688.319	30.45
688.505	30.8
688.69	31.06
688.876	31.02
689.061	31.1
689.247	30.47
689.432	30.57
689.618	30.83
689.803	29.89
689.988	29.71
690.174	29.64
690.359	29.36
690.544	29.84
690.73	29.2
690.915	28.87
691.1	28.49
691.285	28.66
691.471	28.6
691.656	29.14
691.841	28.97
692.026	28.62
692.211	28.54
692.396	28.34
692.582	28.29
692.767	28.64
692.952	28.84
693.137	28.8
693.322	28.96
693.507	29.08
693.692	27.94
693.877	28.66
694.062	28.73
694.247	29.06
694.432	29.66
694.617	29.31
694.802	29
694.987	28.95
695.172	29.79
695.357	29.67
695.541	29.77
695.726	30.06
695.911	30.04
696.096	29.73
696.281	28.83
696.466	29
696.65	29.5
696.835	29.76
697.02	30.12
697.204	29.48
697.389	29.43
697.574	29.23
697.759	29.64
697.943	29.27
698.128	29.56
698.312	30.01
698.497	29.68
698.682	29.92
698.866	30.04
699.051	29.96
699.235	30.26
699.42	30.6
699.604	30.85
699.789	31.08
699.973	31.46
700.158	31.49
700.342	31.52
700.527	31.56
700.711	30.96
700.895	30.57
701.08	30.43
701.264	30.05
701.448	29.5
701.633	29.6
701.817	28.84
702.001	28.35
702.186	28.62
702.37	28.29
702.554	28.47
702.738	28.61
702.923	28.28
703.107	28.89
703.291	29.36
703.475	29.66
703.659	29.39
703.843	29.61
704.027	30.25
704.212	29.75
704.396	30.15
704.58	30.18
704.764	30.64
704.948	31.42
705.132	30.07
705.316	29.9
705.5	29.58
705.684	29.77
705.868	29.88
706.052	30.02
706.235	29.6
706.419	29.49
706.603	29.29
706.787	28.85
706.971	28.49
707.155	29.49
707.339	30.38
707.522	30.31
707.706	30.56
707.89	30.64
708.074	30.23
708.257	31
708.441	31.24
708.625	31.34
708.808	31.34
708.992	31.75
709.176	31.5
709.359	30.55
709.543	30.73
709.727	30.07
709.91	29.95
710.094	30.76
710.277	30.9
710.461	30.62
710.644	30.28
710.828	30.29
711.011	29.89
711.195	30.25
711.378	30.92
711.562	31.54
711.745	31.92
711.928	32.17
712.112	31.45
712.295	31.36
712.478	31.39
712.662	32
712.845	32.08
713.028	32.65
713.212	33.35
713.395	32.44
713.578	32.39
713.761	31.98
713.945	32.23
714.128	32.51
714.311	32.75
714.494	33.26
714.677	33.14
714.86	32.93
715.043	32.47
715.227	31.33
715.41	31.89
715.593	30.96
715.776	31.45
715.959	31.83
716.142	31.56
716.325	31.05
716.508	30.98
716.691	30.71
716.874	30.59
717.057	30.69
717.239	30.53
717.422	30.05
717.605	30.11
717.788	29.1
717.971	27.55
718.154	27.68
718.337	27.58
718.519	27.31
718.702	27.37
718.885	27.32
719.068	27.58
719.25	27.93
719.433	27.92
719.616	28.14
719.798	30
719.981	30.46
720.164	31.09
720.346	31.66
720.529	31.8
720.712	32.07
720.894	31.8
721.077	31.43
721.259	30.59
721.442	30.81
721.624	30.37
721.807	28.75
721.989	29.04
722.172	27.59
722.354	28.29
722.537	28.11
722.719	28.19
722.901	28.69
723.084	28.59
723.266	29.3
723.448	29.05
723.631	29.37
723.813	29.67
723.995	30.32
724.178	31.29
724.36	30.6
724.542	30.45
724.724	29.25
724.907	28.62
725.089	27.32
725.271	27.43
725.453	26.99
725.635	27.85
725.817	27.91
725.999	26.79
726.181	25.51
726.364	24.83
726.546	25.01
726.728	26.22
726.91	26.56
727.092	28.12
727.274	28.68
727.456	28.59
727.638	27.2
727.819	26.53
728.001	26.58
728.183	27.17
728.365	26.87
728.547	26.21
728.729	25.65
728.911	25.58
729.093	25.59
729.274	25.49
729.456	26.08
729.638	27.18
729.82	27.99
730.001	28.6
730.183	29.45
730.365	30.61
730.546	31.65
730.728	31.98
730.91	31.71
731.091	31.8
731.273	32.35
731.455	31.87
731.636	31.12
731.818	31.01
731.999	30.88
732.181	30.42
732.362	29.59
732.544	29.88
732.725	30.3
732.907	30.12
733.088	29.63
733.27	29.39
733.451	30.33
733.633	30.58
733.814	29.96
733.995	30.43
734.177	30.33
734.358	30.27
734.539	29.6
734.721	30.21
734.902	31.31
735.083	31.68
735.264	31.31
735.446	31.06
735.627	31.57
735.808	32.23
735.989	31.63
736.17	32.08
736.351	32.73
736.533	32.4
736.714	31
736.895	31.54
737.076	32.03
737.257	31.85
737.438	31.54
737.619	31.78
737.8	31.41
737.981	31.65
738.162	30.96
738.343	30.95
738.524	31.32
738.705	32.11
738.886	30.91
739.067	30.03
739.247	29.45
739.428	29.13
739.609	28.72
739.79	28.18
739.971	28
740.151	28.11
740.332	27.88
740.513	27.9
740.694	26.74
740.874	28.36
741.055	28.24
741.236	29.48
741.417	30.06
741.597	29.7
741.778	31.95
741.958	32.55
742.139	32.49
742.32	32.39
742.5	33.11
742.681	33.1
742.861	32.63
743.042	34.47
743.222	33.74
743.403	33.48
743.583	33.54
743.764	31.86
743.944	30.78
744.124	30.51
744.305	30.86
744.485	30.29
744.666	31.62
744.846	30.38
745.026	29.13
745.207	28.4
745.387	28.18
745.567	28.5
745.747	29.04
745.928	29.22
746.108	29.64
746.288	29.12
746.468	28.47
746.648	26.49
746.829	26.55
747.009	27.03
747.189	27.78
747.369	27.28
747.549	28.47
747.729	28.24
747.909	28.76
748.089	28.99
748.269	29.75
748.449	31.04
748.629	30.53
748.809	30.81
748.989	30.6
749.169	30.81
749.349	31.34
749.529	30.39
749.709	30.47
749.889	29.67
750.068	30.24
750.248	28.48
750.428	27.34
750.608	27.67
750.788	27.61
750.967	26.92
751.147	27.17
751.327	28.39
751.507	29.27
751.686	30.03
751.866	31.17
752.046	30.89
752.225	30.88
752.405	31.24
752.585	32.43
752.764	33.05
752.944	33.33
753.123	32.68
753.303	31.85
753.482	31.18
753.662	30.9
753.841	31.11
754.021	29.84
754.2	31.6
754.38	32.18
754.559	32.5
754.739	31.78
754.918	30.47
755.097	30.38
755.277	30.22
755.456	28.73
755.635	27.87
755.815	25.55
755.994	26.13
756.173	26.37
756.352	24.47
756.532	24.29
756.711	24.68
756.89	25.68
757.069	24.88
757.248	24.42
757.427	27.19
757.607	27.29
757.786	28.66
757.965	30.53
758.144	29.46
758.323	29.93
758.502	30.19
758.681	30.23
758.86	32.04
759.039	33.19
759.218	34.33
759.397	33.97
759.576	34.19
759.755	33.18
759.934	31.18
760.113	31.27
760.291	32.13
760.47	32.3
760.649	32.71
760.828	31.02
761.007	29.18
761.186	28.52
761.364	28.45
761.543	27.81
761.722	30.17
761.901	30.42
762.079	30.14
762.258	29.64
762.437	28.7
762.615	28.24
762.794	28.62
762.972	30.63
763.151	31.67
763.33	31.23
763.508	32.13
763.687	30.74
763.865	31.5
764.044	31.97
764.222	31.64
764.401	31.9
764.579	31.55
764.758	31.72
764.936	31.52
765.114	31.37
765.293	31.33
765.471	30.4
765.65	31.22
765.828	31.94
766.006	31.84
766.184	32.54
766.363	32.86
766.541	32.59
766.719	32.28
766.898	32.76
767.076	33.22
767.254	32.74
767.432	33.37
767.61	34.21
767.788	31.91
767.967	31.88
768.145	31.73
768.323	31.42
768.501	33.26
768.679	33.51
768.857	32.34
769.035	30.3
769.213	32.81
769.391	35.04
769.569	31.86
769.747	32.84
769.925	32.22
770.103	32.89
770.281	34.28
770.459	34.13
770.636	33.89
770.814	34.12
770.992	36.15
771.17	35.18
771.348	31.7
771.525	34.38
771.703	34.4
771.881	36.02
772.059	34.32
772.236	33.72
772.414	33.8
772.592	31.34
772.769	30.58
772.947	28.87
773.125	28.82
773.302	31.13
773.48	28.79
773.657	28.59
773.835	26.72
774.013	26.79
774.19	24.59
774.368	24.46
774.545	26.28
774.723	24.79
774.9	23.12
775.077	24.22
775.255	23.63
775.432	25.16
775.61	24.94
775.787	25.59
775.964	23.92
776.142	25.88
776.319	26.56
776.496	27.74
776.674	30.92
776.851	30.56
777.028	27.67
777.205	27.79
777.382	26.65
777.56	25.44
777.737	24.03
777.914	27.25
778.091	27
778.268	26.73
778.445	24.5
778.622	24.7
778.8	25.77
778.977	26.03
779.154	24.55
779.331	24.68
779.508	23.35
779.685	22.54
779.862	21.81
780.038	21.27
780.215	24.14
780.392	27.72
780.569	27.95
780.746	28.89
780.923	30.68
781.1	30.53
781.277	30.1
781.453	30.58
781.63	31.79
781.807	31.26
781.984	31.38
782.16	31.06
782.337	29.83
782.514	27.17
782.691	26.79
782.867	22.88
783.044	21.69
783.221	22.63
783.397	23.73
783.574	23.85
783.75	23.91
783.927	24.29
784.103	19.75
784.28	19.47
784.456	20.27
784.633	19.63
784.809	21.84
784.986	21.8
785.162	21.73
785.339	21.84
785.515	21.61
785.692	19.99
785.868	19.81
786.044	19.54
786.221	20.3
786.397	20.07
786.573	19.03
786.749	20.71
786.926	23.21
787.102	25.77
787.278	27.44
787.454	28.72
787.631	29.82
787.807	29.41
787.983	31.27
788.159	30.59
788.335	31.93
788.511	35.83
788.687	36.09
788.863	35.85
789.039	34.86
789.216	36.32
789.392	35.89
789.568	35.99
789.744	37.69
789.919	37.78
790.095	36.03
790.271	37.36
790.447	37.27
790.623	36.42
790.799	36.22
790.975	35.75
791.151	34.01
791.327	34.44
791.502	34.79
791.678	32.75
791.854	33.66
792.03	34.14
792.205	32.46
792.381	30.8
792.557	30.7
792.733	32.75
792.908	31.2
793.084	31.47
793.259	31.94
793.435	32.58
793.611	33.4
793.786	33.06
793.962	31.58
794.137	31.58
794.313	33.65
794.488	34.87
794.664	32.63
794.839	33.05
795.015	35.21
795.19	34.82
795.366	36.53
795.541	36.97
795.716	35.76
795.892	37.78
796.067	39.77
796.242	40.09
796.418	37.76
796.593	40.01
796.768	38.17
796.944	36.17
797.119	35.01
797.294	35.43
797.469	35.89
797.644	36.16
797.82	37.72
797.995	33.66
798.17	30.76
798.345	30.56
798.52	28.53
798.695	29.63
798.87	29.74
799.045	30.77
799.22	29.34
799.395	29.73
799.57	27.89
799.745	22.79
799.92	24.45
800.095	22.32
800.27	20.43
800.445	24.25
800.62	25.47
800.795	28.17
800.97	26.58
801.145	25.92
801.319	24.54
801.494	22.98
801.669	26.04
801.844	23.98
802.018	26.62
802.193	26.51
802.368	22.06
802.543	21.86
802.717	15.18
802.892	19.21
803.067	17.69
803.241	19.06
803.416	20.81
803.59	20.46
803.765	25.24
803.94	24.34
804.114	24.87
804.289	24.76
804.463	22.91
804.638	24.94
804.812	20.9
804.986	20.66
805.161	20.6
805.335	22.01
805.51	24.97
805.684	22.95
805.858	22.87
806.033	24.61
806.207	23.26
806.381	26.28
806.556	27.48
806.73	31.16
806.904	31.67
807.078	29.27
807.253	31.22
807.427	29.55
807.601	32.84
807.775	34.35
807.949	33.71
808.123	32.36
808.298	29.66
808.472	29.16
808.646	30.53
808.82	30.6
808.994	31.61
809.168	29.44
809.342	30.68
809.516	29.14
809.69	29.52
809.864	28
810.038	34.6
810.212	37
810.385	35.38
810.559	33.16
810.733	34.86
810.907	34.25
811.081	34.71
811.255	34.09
811.428	31.06
811.602	30.5
811.776	34.68
811.95	35.71
812.123	36.1
812.297	35.91
812.471	36.32
812.644	34.6
812.818	36.27
812.992	34.36
813.165	36.36
813.339	37.47
813.512	38.49
813.686	39.26
813.86	40.22
814.033	41.25
814.207	45.19
814.38	43.78
814.554	41.59
814.727	38.89
814.9	40.84
815.074	41.31
815.247	39.06
815.421	38.33
815.594	34.57
815.767	30.38
815.941	23.34
816.114	18.04
816.287	16.85
816.46	18.43
816.634	18.33
816.807	14.47
816.98	9.83
817.153	10.44
817.327	8.39
817.5	8.19
817.673	8.15
817.846	9.36
818.019	11.57
818.192	16.09
818.365	14.92
818.538	18.32
818.711	18.04
818.884	24.56
819.057	28.08
819.23	32.98
819.403	30.49
819.576	28.98
819.749	30.3
819.922	27.95
820.095	23.21
820.268	29.54
820.441	30.6
820.614	31.36
820.786	28.17
820.959	27.24
821.132	26.69
821.305	28.56
821.477	29.78
821.65	30.04
821.823	31.07
821.996	32.27
822.168	31.38
822.341	29.65
822.514	30.78
822.686	31.32
822.859	31.54
823.031	31.3
823.204	31.55
823.376	31.6
823.549	31.55
823.722	31.42
823.894	31.04
824.067	30.9
824.239	31.62
824.411	30.67
824.584	30.37
824.756	30.38
824.929	29.69
825.101	28
825.273	28.79
825.446	28.39
825.618	29.1
825.79	29.24
825.963	29.61
826.135	30.45
826.307	32.17
826.479	32.2
826.652	31.61
826.824	31.32
826.996	32.51
827.168	31.82
827.34	32.79
827.512	33.27
827.684	34.04
827.856	35.21
828.029	34.4
828.201	33.71
828.373	33.24
828.545	33.6
828.717	34.17
828.889	35.48
829.061	36.81
829.232	36.1
829.404	37.06
829.576	37.48
829.748	36.78
829.92	38.5
830.092	37.22
830.264	38.38
830.436	36.76
830.607	37.26
830.779	37.8
830.951	36.01
831.123	36.68
831.294	31.09
831.466	27.53
831.638	24.29
831.809	21.44
831.981	22.86
832.153	24.88
832.324	27.84
832.496	30.84
832.667	30.57
832.839	31.04
833.011	33.52
833.182	37.33
833.354	36.03
833.525	36.14
833.697	37.13
833.868	37.05
834.039	35.2
834.211	36.29
834.382	35.07
834.554	34.03
834.725	33.8
834.896	31.09
835.068	29.27
835.239	30.44
835.41	30.96
835.581	28.03
835.753	25.83
835.924	24.5
836.095	23.61
836.266	26.08
836.438	26.17
836.609	24.66
836.78	23.92
836.951	27.1
837.122	26.92
837.293	22.65
837.464	23.74
837.635	25.05
837.806	25.53
837.977	23.73
838.148	19.03
838.319	21.23
838.49	19.34
838.661	20.56
838.832	12.3
839.003	12.31
839.174	18.64
839.345	18.95
839.516	22.36
839.687	25.82
839.857	27.1
840.028	26.07
840.199	22.8
840.37	27.75
840.54	25.35
840.711	29.02
840.882	25.73
841.053	24.69
841.223	26.68
841.394	26.15
841.564	22.77
841.735	21.9
841.906	23.73
842.076	26.35
842.247	24.32
842.417	22.47
842.588	23.32
842.758	32.94
842.929	31.41
843.099	28.66
843.27	26.73
843.44	26.62
843.611	26.38
843.781	20.66
843.951	14.59
844.122	11.12
844.292	19.86
844.462	18.37
844.633	5.16
844.803	2.66
844.973	12.37
845.144	8.16
845.314	9.06
845.484	8.37
845.654	9.59
845.824	7.21
845.995	16.62
846.165	16.45
846.335	10.8
846.505	14.89
846.675	18.08
846.845	13.78
847.015	11.17
847.185	2.76
847.355	11.77
847.525	14.73
847.695	32.71
847.865	19.78
848.035	14.99
848.205	23.43
848.375	27.91
848.545	20.02
848.715	8.35
848.884	31.28
849.054	24.16
849.224	14.18
849.394	15.53
849.564	-6.47
849.733	2.73
849.903	6.43
850.073	-7.02
850.243	-24.86
850.412	-36.66
850.582	-22.46
850.752	-20.21
850.921	-2.8
851.091	16.24
851.26	3.77
851.43	3.95
851.599	-7.25
851.769	-1.74
851.939	6.04
852.108	17.36
852.278	15.57
852.447	18.51
852.616	-14.21
852.786	-6.65
852.955	-23.78
853.125	6.1
853.294	6.32
853.463	9.78
853.633	12.46
853.802	10.47
853.971	16.37
854.141	32.44
854.31	45.18
854.479	57.46
854.648	49.69
854.818	62.14
854.987	40.42
855.156	53.8
855.325	50.01
855.494	37.73
855.663	38.68
855.832	32.6
856.001	24.25
856.171	-3.66
856.34	-7.04
856.509	-4.97
856.678	3.85
856.847	2.52
857.016	-16.28
857.185	-21.03
857.353	3.72
857.522	7.59
857.691	4.28
857.86	1.96
858.029	-12.36
858.198	-8.18
858.367	1.81
858.535	-10.46
858.704	-10.82
858.873	-6.12
859.042	3.6
859.21	-21.19
859.379	-24.06
859.548	-25.65
859.717	-28.56
859.885	-18.85
860.054	-14.66
860.222	-11.05
860.391	-8.49
860.56	-5.3
860.728	5.44
860.897	-1
861.065	10.98
861.234	21.9
861.402	37.29
861.571	64.42
861.739	60.42
861.908	48.47
862.076	47.76
862.244	29.31
862.413	43.77
862.581	54.19
862.749	39.88
862.918	-9.71
863.086	-13.27
863.254	-11.06
863.423	-15.98
863.591	-20.46
863.759	1.89
863.927	-68.45
864.096	-78.25
864.264	-63.32
864.432	-96.72
864.6	-95.58
864.768	-65.37
864.936	-80.83
865.104	-91.52
865.272	-62.37
865.44	-51.6
865.608	-48.24
865.776	-24.29
865.944	-2.53
866.112	0.62
866.28	11.98
866.448	16.21
866.616	16.87
866.784	9.02
866.952	27.87
867.12	18.24
867.288	27.27
867.455	25.05
867.623	20.32
867.791	29.81
867.959	30
868.127	26.24
868.294	27.23
868.462	28.08
868.63	24.4
868.797	10.89
868.965	3.59
869.133	-19.19
869.3	-3.24
869.468	2.94
869.636	-18.9
869.803	-23.82
869.971	-32
870.138	-40.95
870.306	-44.28
870.473	-63.49
870.641	-52.52
870.808	-42.17
870.975	-35.19
871.143	-53.01
871.31	-86.28
871.478	-101.38
871.645	-94.31
871.812	-129.41
871.98	-70.25
872.147	-73.22
872.314	-50.42
872.482	-64.62
872.649	-72.35
872.816	-58.98
872.983	-100.94
873.15	-71.8
873.318	-11.06
873.485	-4.61
873.652	16.49
873.819	12.67
873.986	13.77
874.153	6.67
874.32	12.15
874.487	28.34
874.654	36.15
874.821	52.24
874.988	39.14
875.155	33.22
875.322	40.82
875.489	36.41
875.656	39.23
875.823	41.2
875.99	41.44
876.157	30
876.324	9.22
876.49	-6.56
876.657	-17.52
876.824	-42.4
876.991	-57.61
877.157	-209.61
877.324	-117.11
877.491	-18.45
877.658	0.44
877.824	5.54
877.991	26.93
878.157	28.34
878.324	38.9
878.491	8.57
878.657	25.59
878.824	30.48
878.99	18.25
879.157	22.92
879.323	-0.92
879.49	-52.31
879.656	-38.49
879.823	-80.07
879.989	-60.95
880.156	-99.73
880.322	-37.87
880.488	-21.73
880.655	-15.81
880.821	-14.58
880.987	-16.08
881.154	3.93
881.32	14.74
881.486	18.3
881.652	26.94
881.819	32.99
881.985	32.31
882.151	28.6
882.317	32.44
882.483	28.89
882.649	35.05
882.816	31.74
882.982	30.98
883.148	31.16
883.314	30.38
883.48	28.98
883.646	27.75
883.812	28.43
883.978	29.92
884.144	29
884.31	30.9
884.476	28.68
884.642	30.26
884.807	28.85
884.973	28.98
885.139	27.69
885.305	24.99
885.471	21.94
885.637	24.93
885.802	23.96
885.968	22.19
886.134	24.32
886.3	21.52
886.465	19.53
886.631	22.32
886.797	21.35
886.962	21.82
887.128	21.46
887.293	26.04
887.459	17.08
887.625	13.68
887.79	20.38
887.956	20.58
888.121	29
888.287	29.89
888.452	27.65
888.618	30.13
888.783	36.09
