Data from 2937814_Reflection_1.txt Node
Date: Wed Jul 15 17:38:55 EDT 2015
User: robert
Spectrometer: USB4E03001
Autoset integration time: false
Trigger mode: 4
Integration Time (sec): 1.000000E-1
Scans to average: 10
Electric dark correction enabled: true
Nonlinearity correction enabled: false
Boxcar width: 5
Stray light correction enabled: false
XAxis mode: Wavelengths
Stop averaging: false
Number of Pixels in Spectrum: 3648
>>>>>Begin Spectral Data<<<<<
177.566	105.81
177.785	108.83
178.005	88.78
178.225	303.04
178.445	-1010.17
178.665	-3.02
178.885	29.52
179.105	58.35
179.324	-182.59
179.544	469.01
179.764	-871.58
179.984	116.95
180.204	134.28
180.423	136.94
180.643	96.28
180.863	71.71
181.083	85.4
181.302	67.61
181.522	80.3
181.742	70.86
181.961	60.28
182.181	81.23
182.401	83.85
182.621	109.29
182.84	94.68
183.06	128.82
183.279	90.46
183.499	121.64
183.719	164.66
183.938	113.1
184.158	131.82
184.377	112.51
184.597	122.19
184.816	103.64
185.036	88.69
185.256	114.44
185.475	100.32
185.695	146.65
185.914	134.19
186.134	107.41
186.353	98.62
186.572	63.9
186.792	80.83
187.011	56.64
187.231	56.52
187.45	60.65
187.67	36.46
187.889	50.42
188.108	61.4
188.328	65.24
188.547	93.27
188.766	160.91
188.986	137.64
189.205	108.99
189.424	118.3
189.644	231.98
189.863	176.69
190.082	202.56
190.302	239.65
190.521	313.96
190.74	273.86
190.959	230.78
191.178	1419.95
191.398	-209.75
191.617	-2643.3
191.836	-276.66
192.055	-346.12
192.274	-209.45
192.494	-175.67
192.713	-600.32
192.932	-551.86
193.151	-56.47
193.37	-81.4
193.589	-4174.07
193.808	286.37
194.027	-3.01
194.246	27.02
194.465	-175.32
194.685	-212.08
194.904	19.83
195.123	127.51
195.342	118.04
195.561	36.83
195.78	80.84
195.999	35.3
196.218	123.76
196.436	64.71
196.655	60.27
196.874	65.8
197.093	113.93
197.312	84.58
197.531	87.73
197.75	97.11
197.969	123.08
198.188	123.67
198.407	168.99
198.625	180.24
198.844	219.57
199.063	288.67
199.282	226.36
199.501	242.88
199.719	869.82
199.938	-525.09
200.157	-27.99
200.376	52.15
200.594	-340.95
200.813	7.56
201.032	-18.6
201.251	333.14
201.469	-466.67
201.688	-2651.18
201.907	452.21
202.125	507.26
202.344	7457.14
202.563	-122.29
202.781	-79.81
203	-136.09
203.218	-120.46
203.437	-144.53
203.656	1093.51
203.874	876.14
204.093	175.05
204.311	143.16
204.53	337.27
204.748	335.9
204.967	140.08
205.185	174.26
205.404	261.01
205.622	214.63
205.841	186.19
206.059	331.05
206.278	268.39
206.496	311.49
206.715	412.59
206.933	294.26
207.151	200.3
207.37	277.08
207.588	111.46
207.806	14.83
208.025	30.92
208.243	40.86
208.461	69.33
208.68	37.86
208.898	34.38
209.116	181.56
209.335	-8.43
209.553	-309.09
209.771	144.09
209.989	-148.41
210.208	-389.43
210.426	-39.93
210.644	-35.13
210.862	-215.27
211.081	-246.84
211.299	-599.07
211.517	824.01
211.735	4748.28
211.953	1665.72
212.171	4944.96
212.39	237.75
212.608	184.19
212.826	148.33
213.044	187.93
213.262	116.96
213.48	89.45
213.698	70.35
213.916	85.3
214.134	65.98
214.352	29.49
214.57	58.58
214.788	75.78
215.006	249.59
215.224	-299.35
215.442	364.96
215.66	-177.94
215.878	-172.75
216.096	-447.21
216.314	-1598.01
216.532	412.25
216.75	-1804.83
216.968	374.98
217.185	194.72
217.403	111.43
217.621	70.78
217.839	135.11
218.057	144.66
218.275	134.62
218.492	98.61
218.71	72.19
218.928	85.31
219.146	66.01
219.363	118.74
219.581	145.39
219.799	194.48
220.017	192.82
220.234	95.38
220.452	87.41
220.67	127.08
220.887	91.44
221.105	80.4
221.323	59.87
221.54	87.67
221.758	68.27
221.976	75.77
222.193	63.27
222.411	71.54
222.629	72.83
222.846	76.02
223.064	81.48
223.281	94.13
223.499	105.66
223.716	92.03
223.934	85.58
224.151	103.55
224.369	110
224.586	122.82
224.804	86.57
225.021	95.66
225.239	86.51
225.456	67.07
225.674	46.87
225.891	53.03
226.108	59.16
226.326	60.97
226.543	50.62
226.76	38.76
226.978	38.87
227.195	36.41
227.413	34.54
227.63	36.07
227.847	32.03
228.064	30.7
228.282	25.16
228.499	23.33
228.716	16.01
228.934	17.79
229.151	19.48
229.368	18.43
229.585	20.09
229.802	17.43
230.02	13.78
230.237	15.39
230.454	12.55
230.671	13.35
230.888	7.41
231.105	5.28
231.323	4.68
231.54	1.88
231.757	-2.39
231.974	-5.39
232.191	0.67
232.408	7.66
232.625	-5.48
232.842	-0.73
233.059	-7.44
233.276	17.05
233.493	25.01
233.71	22.16
233.927	17.96
234.144	14.46
234.361	11.59
234.578	12.14
234.795	15.3
235.012	15.96
235.229	19.43
235.446	23.08
235.663	20.59
235.879	20.71
236.096	22.85
236.313	24.84
236.53	26.74
236.747	32.93
236.964	32.36
237.181	29.83
237.397	35.62
237.614	33.28
237.831	31.64
238.048	30.3
238.264	32.25
238.481	35.25
238.698	29.16
238.915	27.94
239.131	28.36
239.348	26.17
239.565	24.32
239.781	18.9
239.998	23.77
240.215	23.83
240.431	11.8
240.648	12.24
240.865	10.25
241.081	14.36
241.298	13.33
241.514	13.06
241.731	15.18
241.947	16.6
242.164	17.97
242.38	13.49
242.597	14.02
242.814	18.34
243.03	17.25
243.246	18.49
243.463	18.77
243.679	20.32
243.896	20.27
244.112	19.2
244.329	17.74
244.545	18.87
244.762	20.55
244.978	19.29
245.194	18.43
245.411	18.42
245.627	16.99
245.843	15.28
246.06	15.58
246.276	14.25
246.492	14.51
246.709	15.7
246.925	13.75
247.141	13.88
247.357	13.86
247.574	13.85
247.79	13.08
248.006	13.16
248.222	13.01
248.439	12.82
248.655	11.26
248.871	11.43
249.087	10.2
249.303	10.55
249.519	10.79
249.736	8.8
249.952	8.2
250.168	10.56
250.384	9.31
250.6	10.61
250.816	9.85
251.032	12.58
251.248	11.44
251.464	12.92
251.68	13.14
251.896	10.52
252.112	12.87
252.328	12.9
252.544	9.96
252.76	9.05
252.976	8.09
253.192	9.13
253.408	10.41
253.624	10.6
253.84	9.03
254.056	9.22
254.272	11.66
254.487	10.17
254.703	11.85
254.919	14.61
255.135	15.02
255.351	13.53
255.567	9.44
255.782	8.06
255.998	7.9
256.214	5.82
256.43	5.2
256.646	4.93
256.861	8.69
257.077	7.84
257.293	5.48
257.508	7.24
257.724	7.41
257.94	9.05
258.155	8.31
258.371	8.65
258.587	9.34
258.802	11.07
259.018	11.41
259.234	11.62
259.449	12.47
259.665	12.44
259.88	12.48
260.096	13.35
260.312	13.61
260.527	14.87
260.743	15.42
260.958	16.16
261.174	15
261.389	14.89
261.605	13.23
261.82	12.48
262.036	13.04
262.251	13.4
262.466	13.27
262.682	12.84
262.897	11.56
263.113	10.23
263.328	7.97
263.543	9.22
263.759	7.86
263.974	10.29
264.189	9.88
264.405	10.52
264.62	8.67
264.835	9.1
265.051	8.08
265.266	8.06
265.481	8.31
265.696	12.17
265.912	13.3
266.127	13.21
266.342	11
266.557	11.37
266.773	11.28
266.988	11.61
267.203	8.39
267.418	10.19
267.633	8.15
267.848	7.55
268.064	6.73
268.279	6.41
268.494	7.27
268.709	9.19
268.924	8.8
269.139	8.77
269.354	7.24
269.569	9
269.784	9.21
269.999	10.7
270.214	11.08
270.429	8.14
270.644	8.25
270.859	8.11
271.074	8.75
271.289	10.06
271.504	9.29
271.719	10.12
271.934	11.32
272.149	11.36
272.363	11.48
272.578	10.31
272.793	10.73
273.008	10.54
273.223	9.62
273.438	8.53
273.653	7.38
273.867	7.01
274.082	7.8
274.297	6.73
274.512	5.57
274.726	5.92
274.941	7.01
275.156	10.61
275.371	10.86
275.585	12.3
275.8	11.87
276.015	12.29
276.229	14.52
276.444	14.85
276.659	14.5
276.873	15.38
277.088	16.56
277.302	18.39
277.517	15.01
277.732	15.35
277.946	13.7
278.161	14.41
278.375	12.44
278.59	10.75
278.804	9.76
279.019	9.67
279.233	7.99
279.448	4.78
279.662	2.17
279.877	3.37
280.091	2.38
280.306	3.5
280.52	3.34
280.735	6.04
280.949	7.26
281.163	8.05
281.378	8.25
281.592	7.33
281.806	7.19
282.021	6.17
282.235	5.44
282.449	5.69
282.664	7.86
282.878	8.88
283.092	7.6
283.307	6.52
283.521	6.6
283.735	6.67
283.949	8.7
284.164	10.72
284.378	12.52
284.592	13.59
284.806	13.07
285.02	9.94
285.234	8.32
285.449	7.79
285.663	7.58
285.877	6.54
286.091	7.57
286.305	7.22
286.519	6.11
286.733	6.64
286.947	6.81
287.161	5.99
287.375	6.62
287.589	7.25
287.803	7.66
288.017	8.62
288.231	8.63
288.445	8.56
288.659	8.54
288.873	9.02
289.087	7.58
289.301	6.86
289.515	8.62
289.729	8.14
289.943	8.71
290.157	10.49
290.371	9.06
290.584	10.64
290.798	10.11
291.012	9.89
291.226	9.77
291.44	9.22
291.654	9.51
291.867	8.54
292.081	10.3
292.295	9.14
292.509	7.55
292.722	8.92
292.936	7.29
293.15	8.12
293.364	8.14
293.577	10.03
293.791	12.1
294.005	11.64
294.218	12.09
294.432	10.47
294.645	10.9
294.859	11.12
295.073	10.54
295.286	10.04
295.5	8.71
295.713	9.23
295.927	8.63
296.14	8.74
296.354	9.61
296.568	9.85
296.781	11.33
296.994	12.27
297.208	11.76
297.421	12.36
297.635	13.57
297.848	14.23
298.062	14.62
298.275	13.37
298.489	14.02
298.702	13.2
298.915	12.46
299.129	12.65
299.342	12.15
299.555	13.64
299.769	13.76
299.982	12.29
300.195	11.39
300.409	11.11
300.622	10.63
300.835	10.11
301.048	10.01
301.262	10.92
301.475	10.77
301.688	10.35
301.901	10.35
302.115	10.38
302.328	10.49
302.541	10.39
302.754	10.56
302.967	12.65
303.18	11.75
303.393	14.04
303.607	14.19
303.82	13.67
304.033	15.5
304.246	14.57
304.459	13.39
304.672	12.78
304.885	13.98
305.098	13.9
305.311	12.57
305.524	11.78
305.737	10.43
305.95	9.24
306.163	9.31
306.376	7.58
306.589	6.92
306.802	4.93
307.015	6.9
307.228	5.84
307.44	4.86
307.653	6.42
307.866	6.81
308.079	7.91
308.292	9.23
308.505	8.23
308.718	9.35
308.93	9.65
309.143	12.76
309.356	13.78
309.569	14.01
309.781	15.28
309.994	14.14
310.207	14.75
310.42	14.61
310.632	14.36
310.845	14.84
311.058	13.53
311.27	13.65
311.483	12.63
311.696	11.75
311.908	11.38
312.121	10.64
312.333	11.77
312.546	10.64
312.759	9.62
312.971	10.35
313.184	11.32
313.396	11.58
313.609	10.47
313.821	10.39
314.034	10.71
314.246	12.02
314.459	12.32
314.671	12.37
314.884	12.41
315.096	10.98
315.309	11.56
315.521	11.25
315.733	11.93
315.946	13.29
316.158	15.55
316.371	15.39
316.583	13.07
316.795	11.45
317.008	11.26
317.22	13.79
317.432	15.12
317.644	14.52
317.857	12.65
318.069	12.62
318.281	13.03
318.494	10
318.706	7.8
318.918	7.95
319.13	8.17
319.342	7.91
319.555	9.69
319.767	10.81
319.979	7.67
320.191	8.29
320.403	9.28
320.615	7
320.827	9.17
321.039	11.63
321.252	13.26
321.464	14.87
321.676	15.88
321.888	12.67
322.1	11.27
322.312	13.76
322.524	16.02
322.736	16.11
322.948	16.7
323.16	16.82
323.372	15.78
323.584	15.12
323.796	14.29
324.007	13.24
324.219	13.09
324.431	12.41
324.643	12.24
324.855	10.57
325.067	10.21
325.279	9.43
325.491	8.95
325.702	9.26
325.914	11.11
326.126	10.8
326.338	10.59
326.55	11.28
326.761	12.44
326.973	11.84
327.185	11.55
327.396	11.83
327.608	13.03
327.82	12.8
328.032	11.69
328.243	9.75
328.455	8.76
328.666	8.97
328.878	9.88
329.09	10.54
329.301	11.51
329.513	11.44
329.725	9.84
329.936	11.01
330.148	11.44
330.359	13.05
330.571	14.01
330.782	15.7
330.994	16.09
331.205	15.82
331.417	14.34
331.628	13.85
331.84	14.96
332.051	15.02
332.262	15.21
332.474	13.25
332.685	12.24
332.897	10.95
333.108	10.3
333.319	9.98
333.531	9.08
333.742	9.31
333.953	9.5
334.165	10.26
334.376	10.73
334.587	10.67
334.799	12.27
335.01	12.58
335.221	14.45
335.432	13.82
335.644	14.37
335.855	12.67
336.066	13.87
336.277	14.31
336.488	13.38
336.7	12.53
336.911	11.92
337.122	11.67
337.333	12.58
337.544	11.85
337.755	13.13
337.966	11.68
338.177	11.42
338.388	10.96
338.599	10.7
338.811	10.31
339.022	10.65
339.233	9.47
339.444	10.16
339.655	9.04
339.866	9.09
340.076	6.55
340.287	7.79
340.498	9.39
340.709	8.71
340.92	8.21
341.131	7.63
341.342	7.19
341.553	9.01
341.764	8.65
341.975	7.95
342.185	7.64
342.396	9.34
342.607	8.52
342.818	8.58
343.029	9.69
343.239	10.19
343.45	11.78
343.661	13.06
343.872	11.74
344.082	11.91
344.293	12.8
344.504	13.44
344.714	13.43
344.925	13.72
345.136	13.97
345.346	11.65
345.557	10.54
345.768	9.79
345.978	8.59
346.189	8.46
346.399	7.52
346.61	7.62
346.821	5.81
347.031	6.98
347.242	7.96
347.452	7.77
347.663	9.14
347.873	10.27
348.084	10.91
348.294	11.88
348.504	12.5
348.715	12.88
348.925	11.37
349.136	13.04
349.346	11.34
349.557	9.48
349.767	9.21
349.977	8.39
350.188	6.94
350.398	6.46
350.608	5.68
350.819	5.82
351.029	5.77
351.239	7.67
351.449	7.05
351.66	6.58
351.87	7.45
352.08	8.01
352.29	9.44
352.501	11.46
352.711	12.03
352.921	13.53
353.131	12.49
353.341	12.81
353.552	11.91
353.762	10.84
353.972	12.2
354.182	12.41
354.392	12.77
354.602	12.09
354.812	11.03
355.022	10.31
355.232	9.03
355.442	9.88
355.652	9.75
355.862	9.61
356.072	10.07
356.282	9.7
356.492	9.32
356.702	9.41
356.912	9.51
357.122	9.64
357.332	9.74
357.542	10.01
357.752	9.76
357.962	8.94
358.171	9.16
358.381	9.74
358.591	8.88
358.801	8.32
359.011	7.49
359.221	7.77
359.43	8.11
359.64	7.97
359.85	8.04
360.06	9.22
360.269	8.95
360.479	8.72
360.689	8.16
360.899	8.97
361.108	9.95
361.318	9.76
361.528	9.57
361.737	9.66
361.947	9.48
362.156	8.87
362.366	8.11
362.576	9.18
362.785	9.69
362.995	10.49
363.204	10.77
363.414	10.16
363.623	10.65
363.833	11.04
364.042	10.03
364.252	10.64
364.461	10.76
364.671	12.02
364.88	11.64
365.09	11.28
365.299	10.4
365.509	9.64
365.718	10
365.927	9.88
366.137	9.21
366.346	9.91
366.555	10.06
366.765	10.84
366.974	9.03
367.183	9.03
367.393	8.27
367.602	8.75
367.811	8.95
368.021	8.46
368.23	8.19
368.439	7.54
368.648	6.75
368.857	6.16
369.067	5.65
369.276	6.48
369.485	7.34
369.694	7.35
369.903	7.11
370.112	7.27
370.321	6.89
370.531	7
370.74	7.77
370.949	8.31
371.158	8.18
371.367	7.48
371.576	7.72
371.785	7.28
371.994	7.08
372.203	6.5
372.412	6.21
372.621	6.32
372.83	5.17
373.039	4.98
373.248	4.21
373.457	3.97
373.666	4.43
373.874	4.02
374.083	3.33
374.292	4.42
374.501	5.45
374.71	5.63
374.919	6.14
375.128	7.11
375.336	7.84
375.545	8.71
375.754	8.1
375.963	8.09
376.171	7.83
376.38	8.3
376.589	8.32
376.798	7.52
377.006	7.28
377.215	7.09
377.424	7.07
377.632	7.25
377.841	6.87
378.05	7.1
378.258	7.36
378.467	7.51
378.675	7.25
378.884	7.22
379.093	7.43
379.301	7.91
379.51	8.22
379.718	8.27
379.927	7.8
380.135	7.77
380.344	8.88
380.552	8.93
380.761	8.72
380.969	8.49
381.177	7.88
381.386	8.05
381.594	7.96
381.803	7.71
382.011	7.31
382.219	6.97
382.428	6.5
382.636	5.8
382.845	5.36
383.053	5.23
383.261	5.71
383.469	5.78
383.678	6.1
383.886	5.83
384.094	6
384.302	6.2
384.511	5.9
384.719	6.6
384.927	6.57
385.135	6.39
385.343	6.04
385.552	6.4
385.76	6.6
385.968	6.14
386.176	5.96
386.384	5.88
386.592	5.13
386.8	5.62
387.008	5.37
387.216	5.54
387.424	6.05
387.633	6.01
387.841	5.15
388.049	5.13
388.257	5.05
388.465	5.42
388.672	5.46
388.88	6.3
389.088	5.94
389.296	6.12
389.504	5.85
389.712	5.36
389.92	5.6
390.128	5.71
390.336	5.72
390.544	5.84
390.751	5.79
390.959	5.27
391.167	5.41
391.375	5.49
391.583	5.45
391.79	5.48
391.998	5.67
392.206	5.54
392.414	5.61
392.621	5.66
392.829	5.39
393.037	5.43
393.244	5.88
393.452	5.77
393.66	5.93
393.867	5.64
394.075	5.43
394.283	5.32
394.49	5.38
394.698	5.7
394.905	5.78
395.113	5.71
395.32	5.65
395.528	5.7
395.735	5.18
395.943	4.87
396.15	4.66
396.358	4.66
396.565	4.72
396.773	5.04
396.98	4.73
397.188	4.7
397.395	4.78
397.602	4.53
397.81	4.43
398.017	5.1
398.225	5.63
398.432	5.99
398.639	6.04
398.847	6.4
399.054	6.03
399.261	5.76
399.468	5.36
399.676	5.49
399.883	5.5
400.09	5.17
400.297	4.99
400.505	4.65
400.712	4.62
400.919	5.04
401.126	4.87
401.333	5.05
401.54	5.13
401.748	5.56
401.955	5.64
402.162	5.29
402.369	5.65
402.576	5.23
402.783	5.14
402.99	5.34
403.197	4.9
403.404	4.57
403.611	4.62
403.818	4.88
404.025	4.51
404.232	4.47
404.439	4.96
404.646	4.74
404.853	5.15
405.06	5.34
405.267	5.33
405.474	5.19
405.681	5.28
405.887	5.37
406.094	4.94
406.301	4.81
406.508	4.6
406.715	4.61
406.922	4.99
407.128	4.84
407.335	4.31
407.542	4.07
407.749	4.59
407.955	4.83
408.162	4.45
408.369	4.92
408.575	5.22
408.782	5.47
408.989	5.08
409.195	4.53
409.402	4.45
409.609	4.61
409.815	4.56
410.022	4.14
410.228	3.98
410.435	4.14
410.642	3.91
410.848	3.85
411.055	3.94
411.261	3.7
411.468	3.99
411.674	4.05
411.881	3.97
412.087	4.1
412.294	4.38
412.5	4.26
412.706	4.09
412.913	3.43
413.119	3.4
413.326	3.09
413.532	3.29
413.738	3.33
413.945	2.86
414.151	3.18
414.357	3.24
414.564	3.39
414.77	3.59
414.976	3.78
415.182	4.13
415.389	4.39
415.595	4.58
415.801	4.86
416.007	4.59
416.214	4.89
416.42	4.7
416.626	4.66
416.832	4.4
417.038	4.13
417.244	4.3
417.45	4.68
417.657	4.4
417.863	4.34
418.069	4.36
418.275	4.37
418.481	4.25
418.687	4.33
418.893	4.21
419.099	4.36
419.305	4.5
419.511	4.44
419.717	4.31
419.923	4.26
420.129	4.39
420.335	4.51
420.541	4.55
420.746	4.64
420.952	4.59
421.158	4.65
421.364	4.57
421.57	4.58
421.776	4.57
421.982	4.52
422.187	4.62
422.393	4.53
422.599	4.48
422.805	4.5
423.01	4.55
423.216	4.61
423.422	4.64
423.628	4.7
423.833	4.72
424.039	4.82
424.245	4.94
424.45	4.94
424.656	4.89
424.862	4.61
425.067	4.59
425.273	4.52
425.478	4.42
425.684	4.47
425.889	4.3
426.095	4.26
426.301	4.06
426.506	3.81
426.712	3.75
426.917	3.75
427.123	3.92
427.328	3.73
427.533	3.62
427.739	3.67
427.944	3.49
428.15	3.33
428.355	3.23
428.561	3.2
428.766	3.43
428.971	3.39
429.177	3.44
429.382	3.32
429.587	3.47
429.793	3.75
429.998	3.98
430.203	3.97
430.408	4.06
430.614	4.2
430.819	4.17
431.024	4.16
431.229	4.34
431.434	4.33
431.64	4.44
431.845	4.55
432.05	4.39
432.255	4.18
432.46	4.29
432.665	4.26
432.87	4.17
433.076	4.31
433.281	4.04
433.486	3.87
433.691	3.66
433.896	3.72
434.101	3.68
434.306	3.71
434.511	3.66
434.716	3.58
434.921	3.6
435.126	3.56
435.331	3.39
435.535	3.79
435.74	3.65
435.945	3.75
436.15	3.61
436.355	3.55
436.56	3.41
436.765	3.4
436.97	3.57
437.174	3.61
437.379	3.74
437.584	3.71
437.789	3.41
437.993	3.52
438.198	3.61
438.403	3.65
438.608	3.56
438.812	3.85
439.017	3.91
439.222	3.86
439.426	3.87
439.631	3.8
439.836	3.65
440.04	3.72
440.245	3.96
440.45	4.01
440.654	4.02
440.859	4.01
441.063	3.85
441.268	3.97
441.472	3.93
441.677	3.98
441.881	4.06
442.086	4.4
442.29	4.43
442.495	4.29
442.699	4.3
442.904	4.33
443.108	4.51
443.312	4.56
443.517	4.52
443.721	4.4
443.925	4.51
444.13	4.4
444.334	4.03
444.538	4.09
444.743	4.14
444.947	4.15
445.151	4.15
445.356	4.1
445.56	4.06
445.764	3.99
445.968	4.18
446.173	4.09
446.377	3.99
446.581	4.21
446.785	4.15
446.989	3.92
447.193	3.82
447.398	3.82
447.602	3.84
447.806	3.79
448.01	3.68
448.214	3.47
448.418	3.49
448.622	3.56
448.826	3.44
449.03	3.42
449.234	3.52
449.438	3.36
449.642	3.36
449.846	3.3
450.05	3.34
450.254	3.32
450.458	3.4
450.662	3.24
450.866	3.12
451.069	3.15
451.273	3.07
451.477	3.26
451.681	3.43
451.885	3.48
452.089	3.56
452.292	3.43
452.496	3.62
452.7	3.51
452.904	3.61
453.107	3.77
453.311	3.82
453.515	3.86
453.719	3.79
453.922	3.87
454.126	3.71
454.33	3.66
454.533	3.63
454.737	3.43
454.94	3.55
455.144	3.75
455.348	3.57
455.551	3.54
455.755	3.62
455.958	3.67
456.162	3.55
456.365	3.58
456.569	3.45
456.772	3.54
456.976	3.82
457.179	3.73
457.383	3.68
457.586	3.66
457.79	3.62
457.993	3.62
458.196	3.56
458.4	3.71
458.603	3.72
458.807	3.84
459.01	3.89
459.213	3.79
459.417	3.81
459.62	3.65
459.823	3.74
460.026	3.75
460.23	3.64
460.433	3.58
460.636	3.42
460.839	3.41
461.042	3.36
461.246	3.17
461.449	3.04
461.652	2.96
461.855	2.99
462.058	2.75
462.261	2.79
462.464	2.8
462.668	2.85
462.871	2.96
463.074	3.02
463.277	3.17
463.48	3.33
463.683	3.47
463.886	3.61
464.089	3.48
464.292	3.74
464.495	3.68
464.698	3.67
464.901	3.61
465.104	3.65
465.306	3.56
465.509	3.51
465.712	3.44
465.915	3.59
466.118	3.43
466.321	3.61
466.524	3.46
466.726	3.41
466.929	3.43
467.132	3.41
467.335	3.34
467.538	3.57
467.74	3.36
467.943	3.55
468.146	3.4
468.348	3.49
468.551	3.45
468.754	3.65
468.956	3.58
469.159	3.67
469.362	3.63
469.564	3.56
469.767	3.23
469.969	3.44
470.172	3.26
470.375	3.15
470.577	3.14
470.78	2.89
470.982	2.71
471.185	2.69
471.387	2.61
471.59	2.79
471.792	2.98
471.995	3.05
472.197	2.78
472.399	2.91
472.602	3.1
472.804	3.12
473.007	3.31
473.209	3.2
473.411	3.52
473.614	3.58
473.816	3.4
474.018	3.44
474.22	3.6
474.423	3.75
474.625	3.58
474.827	3.44
475.03	3.44
475.232	3.6
475.434	3.87
475.636	3.74
475.838	3.78
476.04	3.71
476.243	3.66
476.445	3.76
476.647	3.76
476.849	3.87
477.051	3.7
477.253	3.62
477.455	3.6
477.657	3.56
477.859	3.46
478.061	3.4
478.263	3.46
478.465	3.4
478.667	2.98
478.869	2.94
479.071	2.91
479.273	2.98
479.475	3.12
479.677	3.08
479.879	3.05
480.081	3.2
480.283	3.08
480.485	3.16
480.686	3.26
480.888	3.42
481.09	3.41
481.292	3.47
481.494	3.5
481.695	3.36
481.897	3.36
482.099	3.37
482.301	3.29
482.502	3.44
482.704	3.43
482.906	3.47
483.107	3.51
483.309	3.56
483.511	3.59
483.712	3.66
483.914	3.7
484.115	3.7
484.317	3.72
484.519	3.75
484.72	3.72
484.922	3.73
485.123	3.66
485.325	3.72
485.526	3.75
485.728	3.7
485.929	3.68
486.131	3.65
486.332	3.67
486.534	3.62
486.735	3.55
486.936	3.59
487.138	3.57
487.339	3.66
487.541	3.52
487.742	3.46
487.943	3.44
488.144	3.44
488.346	3.48
488.547	3.38
488.748	3.41
488.95	3.49
489.151	3.47
489.352	3.44
489.553	3.37
489.755	3.48
489.956	3.58
490.157	3.56
490.358	3.53
490.559	3.49
490.76	3.55
490.961	3.55
491.163	3.45
491.364	3.37
491.565	3.45
491.766	3.42
491.967	3.41
492.168	3.34
492.369	3.37
492.57	3.31
492.771	3.36
492.972	3.39
493.173	3.45
493.374	3.56
493.575	3.59
493.776	3.62
493.976	3.65
494.177	3.7
494.378	3.68
494.579	3.67
494.78	3.78
494.981	3.87
495.182	3.77
495.382	3.64
495.583	3.68
495.784	3.63
495.985	3.58
496.185	3.54
496.386	3.39
496.587	3.47
496.788	3.63
496.988	3.73
497.189	3.71
497.39	3.8
497.59	3.74
497.791	3.65
497.992	3.67
498.192	3.61
498.393	3.64
498.593	3.64
498.794	3.51
498.994	3.5
499.195	3.49
499.395	3.31
499.596	3.28
499.796	3.22
499.997	3.24
500.197	3.29
500.398	3.23
500.598	3.2
500.799	3.37
500.999	3.45
501.199	3.35
501.4	3.2
501.6	3.3
501.801	3.22
502.001	3.57
502.201	3.57
502.402	3.53
502.602	3.82
502.802	3.79
503.002	3.78
503.203	3.85
503.403	3.88
503.603	3.97
503.803	4.08
504.003	4.23
504.204	4.05
504.404	3.96
504.604	4.06
504.804	3.78
505.004	3.93
505.204	3.91
505.404	3.86
505.604	3.85
505.804	3.76
506.005	3.61
506.205	3.58
506.405	3.64
506.605	3.67
506.805	3.83
507.005	3.99
507.204	4.02
507.404	3.96
507.604	4.04
507.804	4.19
508.004	4.19
508.204	4.19
508.404	4.27
508.604	4.33
508.804	4.41
509.003	4.35
509.203	4.47
509.403	4.56
509.603	4.66
509.803	4.57
510.002	4.53
510.202	4.59
510.402	4.7
510.602	4.61
510.801	4.66
511.001	4.57
511.201	4.62
511.4	4.5
511.6	4.49
511.8	4.55
511.999	4.71
512.199	4.76
512.398	4.7
512.598	4.79
512.797	4.78
512.997	4.75
513.197	4.89
513.396	4.85
513.596	4.9
513.795	4.81
513.994	4.74
514.194	4.73
514.393	4.67
514.593	4.84
514.792	4.81
514.992	4.81
515.191	4.86
515.39	4.8
515.59	4.8
515.789	4.95
515.988	4.9
516.188	4.92
516.387	4.87
516.586	4.79
516.786	4.85
516.985	4.91
517.184	5.09
517.383	5.01
517.582	5.09
517.782	5.13
517.981	5.2
518.18	5.26
518.379	5.32
518.578	5.4
518.777	5.45
518.976	5.47
519.176	5.56
519.375	5.62
519.574	5.53
519.773	5.58
519.972	5.56
520.171	5.59
520.37	5.61
520.569	5.66
520.768	5.69
520.967	5.87
521.166	5.8
521.365	5.7
521.564	5.73
521.762	5.84
521.961	5.81
522.16	5.95
522.359	5.98
522.558	6
522.757	5.92
522.956	5.98
523.154	5.87
523.353	6.15
523.552	6.19
523.751	6.11
523.949	6.26
524.148	6.37
524.347	6.36
524.546	6.33
524.744	6.46
524.943	6.57
525.142	6.7
525.34	6.72
525.539	6.68
525.737	6.59
525.936	6.68
526.135	6.62
526.333	6.57
526.532	6.64
526.73	6.55
526.929	6.56
527.127	6.53
527.326	6.41
527.524	6.38
527.723	6.38
527.921	6.57
528.12	6.5
528.318	6.57
528.516	6.63
528.715	6.67
528.913	6.73
529.112	6.77
529.31	6.8
529.508	6.86
529.707	6.95
529.905	6.97
530.103	6.94
530.301	7.06
530.5	7.1
530.698	7.12
530.896	7.09
531.094	7.14
531.293	7.15
531.491	7.14
531.689	7.21
531.887	7.34
532.085	7.33
532.283	7.34
532.481	7.4
532.68	7.44
532.878	7.51
533.076	7.48
533.274	7.56
533.472	7.63
533.67	7.7
533.868	7.72
534.066	7.59
534.264	7.66
534.462	7.71
534.66	7.68
534.858	7.7
535.056	7.73
535.253	7.84
535.451	7.76
535.649	7.74
535.847	7.83
536.045	7.88
536.243	7.96
536.441	8.01
536.638	7.98
536.836	8.15
537.034	8.22
537.232	8.27
537.43	8.37
537.627	8.45
537.825	8.47
538.023	8.52
538.22	8.56
538.418	8.65
538.616	8.69
538.813	8.78
539.011	8.79
539.209	8.82
539.406	8.76
539.604	8.57
539.801	8.69
539.999	8.68
540.196	8.64
540.394	8.75
540.591	8.84
540.789	9.03
540.986	9.14
541.184	9.13
541.381	9.11
541.579	9.25
541.776	9.49
541.974	9.55
542.171	9.63
542.368	9.71
542.566	9.82
542.763	9.76
542.96	9.67
543.158	9.66
543.355	9.81
543.552	9.99
543.75	10.06
543.947	10.01
544.144	10.05
544.341	10.15
544.539	10.16
544.736	10.13
544.933	10.39
545.13	10.55
545.327	10.68
545.524	10.6
545.722	10.75
545.919	10.79
546.116	10.95
546.313	11.12
546.51	11.24
546.707	11.32
546.904	11.38
547.101	11.28
547.298	11.36
547.495	11.4
547.692	11.47
547.889	11.36
548.086	11.39
548.283	11.46
548.48	11.43
548.677	11.47
548.874	11.72
549.07	11.65
549.267	11.81
549.464	11.89
549.661	12.21
549.858	12.47
550.055	12.56
550.251	12.54
550.448	12.66
550.645	12.72
550.842	12.73
551.038	12.49
551.235	12.77
551.432	13.02
551.628	12.95
551.825	12.68
552.022	12.81
552.218	12.81
552.415	12.9
552.612	12.74
552.808	13
553.005	13.05
553.201	13.26
553.398	13.2
553.594	13.18
553.791	13.28
553.987	13.64
554.184	13.6
554.38	13.71
554.577	13.94
554.773	14.07
554.97	13.97
555.166	14.17
555.362	14.18
555.559	14.52
555.755	14.55
555.952	14.76
556.148	14.68
556.344	14.78
556.541	15.11
556.737	15.29
556.933	15.44
557.129	15.59
557.326	15.73
557.522	16
557.718	15.99
557.914	16.23
558.11	16.3
558.307	16.55
558.503	16.53
558.699	16.58
558.895	16.69
559.091	16.73
559.287	16.76
559.483	16.75
559.679	16.86
559.876	16.96
560.072	16.81
560.268	16.81
560.464	16.67
560.66	16.98
560.856	16.99
561.052	16.96
561.247	17.06
561.443	17.18
561.639	17.28
561.835	17.4
562.031	17.49
562.227	17.65
562.423	17.82
562.619	18.09
562.815	18.18
563.01	18.28
563.206	18.41
563.402	18.61
563.598	18.72
563.793	18.75
563.989	18.83
564.185	18.84
564.381	18.92
564.576	19.12
564.772	19.28
564.968	19.33
565.163	19.45
565.359	19.45
565.555	19.36
565.75	19.43
565.946	19.66
566.141	19.68
566.337	19.83
566.532	19.99
566.728	19.92
566.923	19.76
567.119	19.76
567.314	19.9
567.51	19.82
567.705	19.95
567.901	20.04
568.096	20.14
568.292	20.11
568.487	20.07
568.682	19.99
568.878	20.23
569.073	20.34
569.268	20.44
569.464	20.52
569.659	20.81
569.854	20.99
570.05	21.06
570.245	21
570.44	21.17
570.635	21.35
570.831	21.59
571.026	21.52
571.221	21.72
571.416	21.87
571.611	21.76
571.806	21.79
572.002	21.93
572.197	22.11
572.392	22.15
572.587	22.12
572.782	22.04
572.977	22.17
573.172	22.15
573.367	22.17
573.562	22.15
573.757	22.3
573.952	22.29
574.147	22.34
574.342	22.3
574.537	22.32
574.732	22.74
574.927	22.82
575.121	22.6
575.316	22.76
575.511	22.83
575.706	23.02
575.901	23.1
576.096	23.35
576.29	23.19
576.485	23.39
576.68	23.65
576.875	23.45
577.069	23.66
577.264	23.79
577.459	23.92
577.654	23.89
577.848	23.9
578.043	23.76
578.238	23.87
578.432	23.87
578.627	23.66
578.821	23.48
579.016	23.7
579.21	23.73
579.405	23.92
579.6	23.98
579.794	24.15
579.989	24.19
580.183	24.31
580.378	24.29
580.572	24.52
580.766	24.62
580.961	24.68
581.155	24.51
581.35	24.69
581.544	24.79
581.738	24.78
581.933	24.59
582.127	24.53
582.321	24.59
582.516	24.78
582.71	24.83
582.904	24.7
583.099	24.69
583.293	25.04
583.487	25.08
583.681	25.15
583.875	25.34
584.07	25.45
584.264	25.56
584.458	25.68
584.652	25.47
584.846	25.57
585.04	25.88
585.234	25.93
585.428	25.88
585.623	25.61
585.817	25.55
586.011	25.37
586.205	25.5
586.399	25.21
586.593	25.4
586.787	25.48
586.981	25.54
587.174	25.68
587.368	25.76
587.562	25.84
587.756	25.9
587.95	25.89
588.144	26.06
588.338	26.07
588.532	26.19
588.725	26.19
588.919	26.33
589.113	26.4
589.307	26.21
589.501	26.27
589.694	26.24
589.888	26.46
590.082	26.62
590.275	26.32
590.469	26.39
590.663	26.58
590.856	26.43
591.05	26.59
591.244	26.42
591.437	26.69
591.631	26.88
591.824	26.69
592.018	26.74
592.212	26.67
592.405	26.84
592.599	26.89
592.792	27.05
592.986	27.03
593.179	26.77
593.372	26.76
593.566	26.86
593.759	26.88
593.953	26.93
594.146	26.88
594.339	26.74
594.533	26.96
594.726	26.9
594.92	27.09
595.113	27.24
595.306	27.6
595.499	27.85
595.693	27.52
595.886	27.48
596.079	27.47
596.272	27.71
596.466	27.9
596.659	27.88
596.852	28.12
597.045	27.83
597.238	27.78
597.431	27.47
597.624	27.53
597.818	27.76
598.011	27.79
598.204	27.91
598.397	27.78
598.59	27.98
598.783	28.02
598.976	28
599.169	27.9
599.362	28.21
599.555	28.25
599.748	28.1
599.941	28.01
600.134	28.08
600.326	28.16
600.519	28.27
600.712	28.01
600.905	28.02
601.098	27.78
601.291	27.84
601.483	27.65
601.676	27.45
601.869	27.26
602.062	27.37
602.255	27.18
602.447	27.45
602.64	27.35
602.833	27.59
603.025	27.56
603.218	27.71
603.411	28.14
603.603	28.25
603.796	28.49
603.989	28.78
604.181	28.81
604.374	28.95
604.566	28.84
604.759	28.75
604.951	28.62
605.144	28.64
605.336	28.47
605.529	28.4
605.721	28.45
605.914	28.55
606.106	28.6
606.299	28.61
606.491	28.59
606.683	28.56
606.876	28.6
607.068	28.7
607.26	28.89
607.453	29.21
607.645	28.98
607.837	29.09
608.03	29.02
608.222	28.74
608.414	28.61
608.606	28.49
608.799	28.44
608.991	28.42
609.183	28.5
609.375	28.33
609.567	28.32
609.759	28.36
609.952	28.2
610.144	28.4
610.336	28.55
610.528	28.64
610.72	28.71
610.912	28.54
611.104	28.59
611.296	28.34
611.488	28.5
611.68	28.44
611.872	28.59
612.064	28.57
612.256	28.1
612.448	28.22
612.64	28.09
612.832	28.13
613.023	28.35
613.215	28.5
613.407	28.83
613.599	28.85
613.791	28.89
613.983	28.99
614.174	29.04
614.366	29.38
614.558	29.09
614.75	29.21
614.941	29.24
615.133	29
615.325	29.12
615.516	28.76
615.708	28.88
615.9	28.83
616.091	28.62
616.283	28.48
616.475	28.08
616.666	28.11
616.858	28.28
617.049	28.29
617.241	28.49
617.432	28.26
617.624	28.59
617.815	28.6
618.007	28.85
618.198	28.93
618.39	29.07
618.581	29.46
618.773	29.7
618.964	29.67
619.155	30.09
619.347	30.09
619.538	30.1
619.729	29.95
619.921	30.03
620.112	30.06
620.303	30.12
620.494	30.16
620.686	30.65
620.877	30.85
621.068	30.89
621.259	30.72
621.451	30.88
621.642	30.78
621.833	31.02
622.024	30.62
622.215	30.46
622.406	30.34
622.597	30.17
622.788	29.43
622.98	29.26
623.171	29.04
623.362	28.72
623.553	28.39
623.744	28.65
623.935	28.57
624.126	28.51
624.317	28.56
624.508	28.48
624.698	28.59
624.889	29
625.08	28.77
625.271	28.81
625.462	29.14
625.653	29.65
625.844	29.53
626.034	29.57
626.225	29.83
626.416	30.01
626.607	30.29
626.798	30.46
626.988	30.36
627.179	30.64
627.37	30.86
627.56	31.02
627.751	31.16
627.942	31.32
628.132	31.22
628.323	31.36
628.514	30.98
628.704	31.08
628.895	31.09
629.085	31.26
629.276	31.37
629.466	31.4
629.657	31.13
629.847	30.84
630.038	30.84
630.228	30.7
630.419	30.91
630.609	31.17
630.8	31.19
630.99	31.07
631.181	31.07
631.371	30.82
631.561	30.88
631.752	31.01
631.942	30.82
632.132	31.05
632.323	31.37
632.513	30.78
632.703	30.88
632.893	30.82
633.084	30.9
633.274	31.01
633.464	31.05
633.654	30.95
633.844	31.13
634.034	31.36
634.225	31.42
634.415	31.39
634.605	31.84
634.795	31.43
634.985	31.38
635.175	31.37
635.365	31.4
635.555	31.37
635.745	31.27
635.935	31.48
636.125	31.16
636.315	31
636.505	30.71
636.695	30.46
636.885	30.82
637.075	30.75
637.265	30.76
637.455	30.34
637.644	30.42
637.834	30.32
638.024	29.94
638.214	30.01
638.404	30.08
638.593	30.53
638.783	30.6
638.973	30.76
639.163	30.98
639.352	31.22
639.542	31.71
639.732	31.86
639.921	32.16
640.111	31.76
640.301	31.79
640.49	31.78
640.68	31.82
640.87	32.15
641.059	32.24
641.249	32.33
641.438	32.4
641.628	32.1
641.817	32.25
642.007	31.99
642.196	32.11
642.386	32.44
642.575	32.23
642.764	32.26
642.954	31.65
643.143	31.79
643.333	31.45
643.522	31.44
643.711	31.95
643.901	31.77
644.09	31.88
644.279	32.33
644.469	31.98
644.658	32.06
644.847	32.2
645.036	32.13
645.226	32.01
645.415	32.28
645.604	32.24
645.793	31.97
645.982	31.83
646.171	32.05
646.361	32.07
646.55	32.61
646.739	32.55
646.928	32.43
647.117	32.75
647.306	32.23
647.495	32.04
647.684	31.91
647.873	31.57
648.062	31.39
648.251	31.27
648.44	30.93
648.629	30.76
648.818	31.11
649.007	31.07
649.196	30.79
649.384	31.06
649.573	30.99
649.762	31.05
649.951	31.42
650.14	32.26
650.328	32.1
650.517	31.86
650.706	31.69
650.895	31.31
651.083	31.32
651.272	31.45
651.461	31.62
651.65	31.68
651.838	31.24
652.027	31.14
652.216	30.65
652.404	31.03
652.593	31.3
652.781	31.21
652.97	31.55
653.158	31.77
653.347	32.19
653.535	31.96
653.724	32.19
653.912	32.36
654.101	32.06
654.289	31.94
654.478	31.96
654.666	32.15
654.855	32.38
655.043	32.21
655.231	31.85
655.42	31.55
655.608	31.8
655.796	31.65
655.985	31.88
656.173	32.32
656.361	32.6
656.55	32.25
656.738	31.89
656.926	31.35
657.114	31.48
657.302	31.5
657.491	31.58
657.679	31.79
657.867	31.79
658.055	31.72
658.243	31.56
658.431	31.5
658.619	31.83
658.807	32.23
658.996	32.6
659.184	32.77
659.372	32.6
659.56	32.65
659.748	32.58
659.936	32.3
660.124	32.27
660.311	32.38
660.499	32.24
660.687	32.23
660.875	32.39
661.063	32.24
661.251	31.98
661.439	32.42
661.627	32.44
661.814	32.21
662.002	32.74
662.19	32.87
662.378	32.43
662.565	32.48
662.753	32.37
662.941	31.73
663.129	32.19
663.316	32.33
663.504	32.22
663.692	32.26
663.879	32.49
664.067	32.53
664.254	32.85
664.442	33.63
664.63	34.05
664.817	34.16
665.005	34.14
665.192	34.08
665.38	33.66
665.567	33.53
665.755	33.53
665.942	33.53
666.13	33.1
666.317	32.61
666.504	32.86
666.692	32.55
666.879	32.26
667.067	32.06
667.254	32.2
667.441	32.83
667.629	32.41
667.816	32.45
668.003	32.71
668.19	32.82
668.378	32.64
668.565	31.89
668.752	31.83
668.939	32.24
669.127	32.37
669.314	32.17
669.501	32.33
669.688	32.69
669.875	32.57
670.062	32.51
670.249	32.45
670.436	33
670.623	33.59
670.81	33.53
670.997	33.28
671.184	33.58
671.371	33.95
671.558	33.11
671.745	33.05
671.932	33.4
672.119	33.22
672.306	33.67
672.493	33.62
672.68	33.2
672.867	33.59
673.054	33.66
673.24	33.69
673.427	33.21
673.614	32.88
673.801	32.8
673.988	32.5
674.174	32.31
674.361	32.13
674.548	31.87
674.734	32.33
674.921	32.09
675.108	32.31
675.294	31.91
675.481	31.62
675.668	32.63
675.854	33.07
676.041	33.14
676.227	33.2
676.414	32.74
676.601	32.53
676.787	31.82
676.974	31.75
677.16	31.3
677.347	31.84
677.533	32.33
677.719	32
677.906	32.32
678.092	32.6
678.279	32.41
678.465	32.4
678.651	33.04
678.838	33.44
679.024	33.02
679.21	33.39
679.397	33.3
679.583	33.41
679.769	33.57
679.955	33.21
680.142	32.88
680.328	33.11
680.514	33.4
680.7	33.05
680.886	32.96
681.073	33.22
681.259	32.97
681.445	33.43
681.631	33.66
681.817	33.61
682.003	33.6
682.189	33.19
682.375	32.92
682.561	32.88
682.747	33.08
682.933	33.16
683.119	33.04
683.305	33.75
683.491	33.58
683.677	32.99
683.863	32.94
684.049	33.14
684.235	34
684.42	34.58
684.606	34.64
684.792	34.76
684.978	34.56
685.164	35.2
685.349	34.75
685.535	34.55
685.721	34.56
685.907	34.82
686.092	34.64
686.278	34.63
686.464	34.23
686.649	33.93
686.835	33.35
687.021	33.33
687.206	33.3
687.392	33.46
687.577	33.08
687.763	33.31
687.948	33.24
688.134	33.44
688.319	33.56
688.505	34
688.69	34.96
688.876	35.61
689.061	35.89
689.247	35.71
689.432	35.18
689.618	35.57
689.803	35.74
689.988	36.1
690.174	36.14
690.359	35.96
690.544	35.83
690.73	35.64
690.915	35.48
691.1	35.86
691.285	35.77
691.471	35.97
691.656	35.78
691.841	35.5
692.026	34.54
692.211	34.42
692.396	34.68
692.582	34.38
692.767	33.76
692.952	33.59
693.137	33.2
693.322	33.04
693.507	32.85
693.692	32.87
693.877	32.95
694.062	33.44
694.247	33.77
694.432	33.53
694.617	33.79
694.802	33.62
694.987	33.14
695.172	33.17
695.357	33.05
695.541	33.4
695.726	33.47
695.911	33.41
696.096	33.68
696.281	33.26
696.466	33.2
696.65	32.81
696.835	33.2
697.02	34
697.204	33.96
697.389	34.57
697.574	34.54
697.759	34.63
697.943	34.72
698.128	34.59
698.312	34.66
698.497	34.14
698.682	34.15
698.866	33.85
699.051	33.69
699.235	33.81
699.42	33.54
699.604	33.39
699.789	33.29
699.973	33.33
700.158	32.81
700.342	32.53
700.527	33.35
700.711	33.85
700.895	33.97
701.08	34.06
701.264	34.09
701.448	33.93
701.633	33.7
701.817	33.26
702.001	33.11
702.186	33.34
702.37	33.29
702.554	31.85
702.738	31.41
702.923	32.1
703.107	32.14
703.291	31.15
703.475	31.44
703.659	31.97
703.843	32.26
704.027	32.1
704.212	31.92
704.396	32.02
704.58	32.98
704.764	32.77
704.948	32.23
705.132	32.62
705.316	33.64
705.5	32.68
705.684	32.62
705.868	33.06
706.052	32.82
706.235	33.39
706.419	34.11
706.603	34.79
706.787	34.88
706.971	34.99
707.155	34.27
707.339	33.92
707.522	34.08
707.706	34
707.89	33.58
708.074	33.71
708.257	33.95
708.441	33.69
708.625	32.44
708.808	32.56
708.992	32.81
709.176	32.76
709.359	32.64
709.543	33.26
709.727	33.4
709.91	33.38
710.094	33.45
710.277	32.32
710.461	32.82
710.644	33.38
710.828	33.16
711.011	32.77
711.195	33.38
711.378	33.62
711.562	34.26
711.745	34.24
711.928	34.11
712.112	34.23
712.295	34.96
712.478	34.98
712.662	35.56
712.845	35.37
713.028	35.02
713.212	35.11
713.395	34.76
713.578	34.21
713.761	34.12
713.945	34.06
714.128	34.54
714.311	34.79
714.494	34.41
714.677	33.76
714.86	34.54
715.043	35.35
715.227	34.93
715.41	35.1
715.593	35.38
715.776	35.25
715.959	35.1
716.142	34.62
716.325	34.2
716.508	33.76
716.691	33.9
716.874	33.85
717.057	32.97
717.239	32.83
717.422	32.89
717.605	32.68
717.788	33.07
717.971	34.22
718.154	34.21
718.337	34.32
718.519	34.46
718.702	34.07
718.885	33.41
719.068	34.15
719.25	33.92
719.433	34.43
719.616	33.09
719.798	32.31
719.981	32.11
720.164	31.96
720.346	32.91
720.529	32.67
720.712	32.26
720.894	32.95
721.077	32.5
721.259	32.75
721.442	32.09
721.624	33.58
721.807	34.56
721.989	33.27
722.172	33.31
722.354	32.48
722.537	32.76
722.719	33.26
722.901	32.88
723.084	33.7
723.266	33.96
723.448	34.85
723.631	35.41
723.813	34.86
723.995	36
724.178	36.18
724.36	36.65
724.542	36.79
724.724	37.02
724.907	36.03
725.089	35.88
725.271	35.2
725.453	34.54
725.635	33.26
725.817	32.79
725.999	32.57
726.181	32.69
726.364	32.6
726.546	32.96
726.728	33.4
726.91	34.37
727.092	34.19
727.274	35.79
727.456	34.82
727.638	35
727.819	36.14
728.001	36.57
728.183	36.6
728.365	36.13
728.547	36.41
728.729	36.42
728.911	36.31
729.093	36.19
729.274	34.97
729.456	35.16
729.638	35.91
729.82	34.49
730.001	33.6
730.183	33.27
730.365	33.72
730.546	32.84
730.728	32.11
730.91	32.04
731.091	32.81
731.273	33.63
731.455	34.36
731.636	34.26
731.818	35.12
731.999	35.51
732.181	36.46
732.362	37.01
732.544	37.66
732.725	37.93
732.907	38.71
733.088	37.67
733.27	36.61
733.451	36.9
733.633	36.99
733.814	37.26
733.995	37.83
734.177	37.29
734.358	36.57
734.539	35.28
734.721	35.2
734.902	34.09
735.083	34.31
735.264	35.48
735.446	35.13
735.627	34.55
735.808	33.64
735.989	32.37
736.17	31.88
736.351	32.08
736.533	32.56
736.714	32.54
736.895	32.68
737.076	32.77
737.257	32.55
737.438	32.39
737.619	33.18
737.8	33.18
737.981	34.49
738.162	35.25
738.343	35.35
738.524	35.37
738.705	35.77
738.886	34.76
739.067	34.79
739.247	34.01
739.428	34.21
739.609	33.67
739.79	33.64
739.971	33.28
740.151	33.06
740.332	32.03
740.513	31.7
740.694	31.78
740.874	34.25
741.055	35.52
741.236	35.54
741.417	34.75
741.597	35
741.778	35.93
741.958	35.46
742.139	35.67
742.32	37.54
742.5	38.4
742.681	38.72
742.861	38.58
743.042	37.41
743.222	36.18
743.403	36.61
743.583	35.68
743.764	35.82
743.944	34.41
744.124	33.69
744.305	32.79
744.485	32.9
744.666	31.64
744.846	30
745.026	29
745.207	30.12
745.387	30.25
745.567	31.17
745.747	31.39
745.928	32.11
746.108	31.65
746.288	32.15
746.468	32.58
746.648	33.13
746.829	32.27
747.009	34.26
747.189	34.76
747.369	35.43
747.549	35.93
747.729	33.3
747.909	34.66
748.089	34.78
748.269	32.7
748.449	32.18
748.629	32.21
748.809	32.26
748.989	30.4
749.169	28.49
749.349	28.11
749.529	26.42
749.709	28.2
749.889	27.31
750.068	27.24
750.248	29.07
750.428	28.66
750.608	28.1
750.788	27.84
750.967	29.32
751.147	31.11
751.327	32.17
751.507	31.64
751.686	31.83
751.866	31.88
752.046	31.85
752.225	31.88
752.405	31.51
752.585	31.4
752.764	33.15
752.944	31.88
753.123	32.44
753.303	31.97
753.482	32.29
753.662	32.6
753.841	33.38
754.021	33.85
754.2	32.13
754.38	32.63
754.559	34.32
754.739	32.73
754.918	33.26
755.097	32.99
755.277	31.82
755.456	32.57
755.635	31.74
755.815	32.53
755.994	33.2
756.173	34.77
756.352	34.47
756.532	33.67
756.711	35.32
756.89	36.46
757.069	35.58
757.248	36.25
757.427	37.21
757.607	37.86
757.786	37.53
757.965	36.9
758.144	35.7
758.323	35.76
758.502	35.55
758.681	35.32
758.86	34.99
759.039	34.94
759.218	34.69
759.397	33.87
759.576	33.74
759.755	33.25
759.934	31.85
760.113	33.03
760.291	32.88
760.47	33.99
760.649	33.98
760.828	34.43
761.007	34.83
761.186	34.39
761.364	34.37
761.543	34.74
761.722	35.03
761.901	36.84
762.079	35.06
762.258	35.11
762.437	33.96
762.615	33.33
762.794	33.39
762.972	33.01
763.151	33.93
763.33	34.48
763.508	35.18
763.687	35.24
763.865	34.98
764.044	36.41
764.222	37.19
764.401	36.97
764.579	36.54
764.758	35.23
764.936	35.79
765.114	36.08
765.293	36.18
765.471	35.57
765.65	35.34
765.828	35.27
766.006	35.6
766.184	36.51
766.363	37.82
766.541	39.77
766.719	40.23
766.898	40.82
767.076	40.28
767.254	39.65
767.432	38.63
767.61	39.26
767.788	39.59
767.967	38.34
768.145	37.33
768.323	35.92
768.501	35.11
768.679	35.4
768.857	33.32
769.035	32.41
769.213	32.6
769.391	34.12
769.569	34.27
769.747	34.82
769.925	34.29
770.103	31.76
770.281	33.19
770.459	32.57
770.636	31.43
770.814	32.35
770.992	33.16
771.17	32.69
771.348	32.62
771.525	32.43
771.703	32.05
771.881	29.39
772.059	31.16
772.236	28.99
772.414	28.77
772.592	29.51
772.769	29.03
772.947	28.33
773.125	28.93
773.302	29.63
773.48	30.32
773.657	29.05
773.835	31.09
774.013	30.27
774.19	32.33
774.368	33.16
774.545	33.59
774.723	32.71
774.9	32.7
775.077	32.36
775.255	31.45
775.432	29.37
775.61	29.47
775.787	29.34
775.964	30.62
776.142	31.34
776.319	32.34
776.496	31.81
776.674	34.42
776.851	34.65
777.028	35.27
777.205	34.04
777.382	33.62
777.56	33.31
777.737	34.29
777.914	30.57
778.091	28.34
778.268	27.64
778.445	31.43
778.622	29.17
778.8	28.1
778.977	29.63
779.154	29.24
779.331	29.5
779.508	29.42
779.685	29.83
779.862	32.86
780.038	31.64
780.215	31.7
780.392	27.01
780.569	30.32
780.746	31.69
780.923	30.58
781.1	31.59
781.277	29.99
781.453	30.9
781.63	30.93
781.807	31.94
781.984	33.46
782.16	32.56
782.337	35.7
782.514	33.77
782.691	35.13
782.867	34.56
783.044	31.76
783.221	36.05
783.397	34.11
783.574	31.28
783.75	30.79
783.927	31.92
784.103	33.5
784.28	33.94
784.456	33.15
784.633	31.53
784.809	32.28
784.986	34.93
785.162	31.95
785.339	36.02
785.515	39.69
785.692	40.07
785.868	35.52
786.044	32.66
786.221	32.21
786.397	30.98
786.573	32.49
786.749	31.81
786.926	33.86
787.102	35.64
787.278	35.33
787.454	35.36
787.631	37.19
787.807	38.91
787.983	40.81
788.159	38.36
788.335	39.54
788.511	34.45
788.687	34.29
788.863	31.55
789.039	33.38
789.216	32.1
789.392	33.47
789.568	33.24
789.744	35.77
789.919	34.73
790.095	37.48
790.271	38.16
790.447	41.48
790.623	42.57
790.799	43.71
790.975	42.03
791.151	42.44
791.327	40.16
791.502	39.23
791.678	37.8
791.854	38.99
792.03	36.21
792.205	33.66
792.381	31.4
792.557	25.72
792.733	27.63
792.908	26.44
793.084	26.77
793.259	28.83
793.435	27.14
793.611	28.88
793.786	30.94
793.962	30.58
794.137	31.43
794.313	36.95
794.488	41.72
794.664	41.05
794.839	41.01
795.015	38.78
795.19	35.13
795.366	34.71
795.541	30.12
795.716	27.66
795.892	29.26
796.067	29.69
796.242	27.79
796.418	28.52
796.593	30.77
796.768	30.02
796.944	33.08
797.119	34.87
797.294	33.5
797.469	35.29
797.644	34.26
797.82	35.54
797.995	34.92
798.17	34.66
798.345	33.99
798.52	31.02
798.695	27.7
798.87	26.85
799.045	29.6
799.22	34.8
799.395	34.35
799.57	36.66
799.745	36.9
799.92	39.14
800.095	37.98
800.27	38.88
800.445	40.47
800.62	44.46
800.795	44.33
800.97	39.09
801.145	36.41
801.319	36.13
801.494	39.46
801.669	34.61
801.844	31.64
802.018	36.15
802.193	34.53
802.368	29.54
802.543	28.75
802.717	25.85
802.892	27.23
803.067	26.1
803.241	25.73
803.416	24.63
803.59	24.43
803.765	25.3
803.94	22.37
804.114	23.66
804.289	27.91
804.463	27.5
804.638	29.92
804.812	34.31
804.986	34
805.161	34.72
805.335	29.8
805.51	30.46
805.684	30.82
805.858	32.02
806.033	31.96
806.207	28.45
806.381	27.78
806.556	27.62
806.73	26.01
806.904	28.61
807.078	30.88
807.253	35.81
807.427	38.07
807.601	37.54
807.775	38.02
807.949	35.53
808.123	38.29
808.298	39.91
808.472	41.71
808.646	40.83
808.82	36.48
808.994	34.17
809.168	28.57
809.342	31.05
809.516	29.92
809.69	28.73
809.864	26.39
810.038	26.31
810.212	30.01
810.385	31.07
810.559	32.9
810.733	34.84
810.907	33.6
811.081	37.85
811.255	37.37
811.428	43.1
811.602	42.97
811.776	47.12
811.95	44.39
812.123	37.44
812.297	35.7
812.471	32.94
812.644	28.84
812.818	31.22
812.992	28.2
813.165	25.9
813.339	25.12
813.512	25.07
813.686	24.3
813.86	27.17
814.033	31.55
814.207	26.35
814.38	26.83
814.554	30.87
814.727	32.32
814.9	36.61
815.074	41.45
815.247	41.57
815.421	47.04
815.594	40.77
815.767	40.97
815.941	40.32
816.114	43.68
816.287	45.94
816.46	47.03
816.634	51.41
816.807	47.48
816.98	45.54
817.153	42.2
817.327	40.96
817.5	47.46
817.673	45.81
817.846	44.29
818.019	46.84
818.192	49.23
818.365	44.54
818.538	43.03
818.711	43.88
818.884	38.93
819.057	38.33
819.23	35.85
819.403	35.07
819.576	34.88
819.749	32.65
819.922	31.14
820.095	31.74
820.268	36.33
820.441	33.58
820.614	34.39
820.786	37.91
820.959	38.2
821.132	38.02
821.305	38.06
821.477	38.17
821.65	37.9
821.823	38
821.996	36.88
822.168	35.51
822.341	35.92
822.514	36.88
822.686	36.79
822.859	36.83
823.031	37.1
823.204	36.17
823.376	36.18
823.549	37.01
823.722	37.2
823.894	37.1
824.067	36.59
824.239	37.03
824.411	35.52
824.584	34.71
824.756	35.28
824.929	33.7
825.101	34.72
825.273	34.14
825.446	33.95
825.618	33.11
825.79	33.21
825.963	35.83
826.135	35.32
826.307	36.23
826.479	35.97
826.652	33.98
826.824	36.5
826.996	37.57
827.168	38.45
827.34	37.89
827.512	37.74
827.684	37.54
827.856	36.63
828.029	36.28
828.201	35.5
828.373	36.35
828.545	36.7
828.717	35.88
828.889	33.14
829.061	33.25
829.232	32.26
829.404	33.51
829.576	32.71
829.748	30.29
829.92	31.71
830.092	33.6
830.264	33.19
830.436	38.54
830.607	39.18
830.779	44.2
830.951	46.09
831.123	45.95
831.294	44.07
831.466	45.85
831.638	45.91
831.809	45.46
831.981	44.92
832.153	44.44
832.324	41.17
832.496	39.84
832.667	30.32
832.839	23.4
833.011	26.88
833.182	30.66
833.354	30.02
833.525	35.17
833.697	34.13
833.868	33.76
834.039	32.99
834.211	31.72
834.382	31.45
834.554	35.19
834.725	34.93
834.896	35.57
835.068	34.13
835.239	37.48
835.41	36.46
835.581	35.54
835.753	37.78
835.924	36.57
836.095	36.95
836.266	35.49
836.438	36.04
836.609	38.99
836.78	39.85
836.951	41.36
837.122	38.55
837.293	39.59
837.464	38.23
837.635	36.62
837.806	38.32
837.977	35.9
838.148	37.46
838.319	31.74
838.49	35.33
838.661	32.1
838.832	31.66
839.003	29.95
839.174	34.31
839.345	41.73
839.516	35.69
839.687	40.16
839.857	37.76
840.028	36.2
840.199	39.46
840.37	38.08
840.54	45.29
840.711	44.27
840.882	42.1
841.053	34.59
841.223	32.27
841.394	34.82
841.564	31.27
841.735	40.87
841.906	47.99
842.076	41.16
842.247	31.42
842.417	25.37
842.588	20.7
842.758	23.94
842.929	28.92
843.099	29.1
843.27	33.22
843.44	35.61
843.611	29.44
843.781	29.66
843.951	31.94
844.122	41.5
844.292	41.95
844.462	53.62
844.633	55.72
844.803	51.77
844.973	51.95
845.144	50.84
845.314	57.34
845.484	59.74
845.654	55.81
845.824	68.4
845.995	61.99
846.165	65.18
846.335	63.63
846.505	62.82
846.675	63.91
846.845	55.25
847.015	59.37
847.185	62.83
847.355	67.71
847.525	59.86
847.695	57.63
847.865	59.47
848.035	65.89
848.205	63.3
848.375	67.69
848.545	65.31
848.715	74.59
848.884	73.79
849.054	75.65
849.224	80.39
849.394	88.43
849.564	78.4
849.733	96.08
849.903	91.89
850.073	96.78
850.243	87.67
850.412	91.01
850.582	89.62
850.752	93.91
850.921	89.28
851.091	79.53
851.26	82.69
851.43	97.8
851.599	81.25
851.769	64.05
851.939	60.74
852.108	62.81
852.278	66.5
852.447	74.35
852.616	75.77
852.786	68.76
852.955	64.27
853.125	67.67
853.294	60.2
853.463	58.94
853.633	55.21
853.802	51.53
853.971	71.33
854.141	82
854.31	73.27
854.479	60.86
854.648	68.29
854.818	65.57
854.987	61.83
855.156	73.17
855.325	69.89
855.494	74.95
855.663	78.68
855.832	53.48
856.001	46.28
856.171	45.15
856.34	49.98
856.509	37.46
856.678	43.53
856.847	29.9
857.016	17.47
857.185	9.5
857.353	-1.06
857.522	-1.01
857.691	23
857.86	21.96
858.029	5.94
858.198	18.48
858.367	44.46
858.535	42.02
858.704	55.14
858.873	63.75
859.042	68.68
859.21	70.62
859.379	61.37
859.548	63.15
859.717	51.65
859.885	62.4
860.054	57.92
860.222	44.66
860.391	45.51
860.56	36.44
860.728	38.71
860.897	29.53
861.065	35.49
861.234	68.91
861.402	53.37
861.571	49.67
861.739	44.44
861.908	85.17
862.076	115.61
862.244	145.7
862.413	167.5
862.581	132.95
862.749	132.08
862.918	107.67
863.086	88.82
863.254	85.35
863.423	94.61
863.591	107.54
863.759	84.94
863.927	66.19
864.096	54.56
864.264	60.38
864.432	70.69
864.6	62.21
864.768	56.65
864.936	70.71
865.104	67.27
865.272	68.04
865.44	52.99
865.608	54.05
865.776	61.73
865.944	52.67
866.112	67.24
866.28	53.54
866.448	27.74
866.616	45.88
866.784	52.77
866.952	53.33
867.12	83.89
867.288	89.37
867.455	64.74
867.623	55.44
867.791	63.47
867.959	36.58
868.127	50.97
868.294	88.02
868.462	82.64
868.63	76.14
868.797	72.38
868.965	51.95
869.133	78.42
869.3	93.45
869.468	80.05
869.636	71.23
869.803	50.44
869.971	48.61
870.138	31.75
870.306	32.16
870.473	11.64
870.641	15.76
870.808	19.68
870.975	4.06
871.143	-7.69
871.31	-4.31
871.478	-5.34
871.645	-6.12
871.812	11.26
871.98	16.2
872.147	15.48
872.314	32.39
872.482	39.84
872.649	36.57
872.816	42.89
872.983	36.41
873.15	31.27
873.318	20.66
873.485	22.18
873.652	3.79
873.819	3.58
873.986	4.98
874.153	22.83
874.32	22.81
874.487	17.14
874.654	10.38
874.821	25.32
874.988	11.59
875.155	22.01
875.322	30.91
875.489	43.83
875.656	48.53
875.823	39.29
875.99	32.84
876.157	25.21
876.324	36.87
876.49	32.9
876.657	46.9
876.824	72.49
876.991	102.84
877.157	104.44
877.324	97.87
877.491	103.98
877.658	112.96
877.824	96.54
877.991	84.29
878.157	103.08
878.324	113.53
878.491	72.45
878.657	69.76
878.824	61.45
878.99	65.82
879.157	68.9
879.323	51.54
879.49	67.14
879.656	57.99
879.823	67.64
879.989	49.59
880.156	45.74
880.322	65.07
880.488	66.26
880.655	67.88
880.821	58.97
880.987	42.09
881.154	53.11
881.32	44.2
881.486	43.5
881.652	42.82
881.819	46.23
881.985	45.41
882.151	39.51
882.317	38.57
882.483	38.37
882.649	36.13
882.816	39.79
882.982	37
883.148	38.56
883.314	41.61
883.48	41.62
883.646	42.67
883.812	43.58
883.978	43.5
884.144	47.23
884.31	49.02
884.476	50.17
884.642	50.99
884.807	53.52
884.973	52.38
885.139	51.68
885.305	51.93
885.471	50.49
885.637	49.29
885.802	48.26
885.968	41.04
886.134	35.8
886.3	35.66
886.465	33.31
886.631	27.04
886.797	31.13
886.962	28.2
887.128	19.08
887.293	13.13
887.459	21.45
887.625	28.5
887.79	28.56
887.956	41.39
888.121	44.28
888.287	43.63
888.452	44.53
888.618	37.99
888.783	37.53
