Data from 2937825_Reflection_1.txt Node
Date: Wed Jul 15 17:04:30 EDT 2015
User: robert
Spectrometer: USB4E03001
Autoset integration time: false
Trigger mode: 4
Integration Time (sec): 1.000000E-1
Scans to average: 10
Electric dark correction enabled: true
Nonlinearity correction enabled: false
Boxcar width: 5
Stray light correction enabled: false
XAxis mode: Wavelengths
Stop averaging: false
Number of Pixels in Spectrum: 3648
>>>>>Begin Spectral Data<<<<<
177.566	95.56
177.785	82.44
178.005	85.92
178.225	83.41
178.445	93.59
178.665	111.08
178.885	101.49
179.105	91.68
179.324	107.11
179.544	133.88
179.764	145.13
179.984	136.79
180.204	109.43
180.423	107.23
180.643	113.95
180.863	128.71
181.083	148.02
181.302	160.72
181.522	172.97
181.742	154.99
181.961	136.47
182.181	162.89
182.401	159.61
182.621	226.47
182.84	212.64
183.06	187.26
183.279	193
183.499	171.71
183.719	140.63
183.938	172.27
184.158	200.08
184.377	229.92
184.597	235.66
184.816	303.4
185.036	333.8
185.256	1275.45
185.475	778.74
185.695	486.2
185.914	1002.47
186.134	952.29
186.353	637.74
186.572	494.26
186.792	438.7
187.011	330.96
187.231	243.08
187.45	202.47
187.67	140.3
187.889	161.59
188.108	172.51
188.328	154.81
188.547	204.97
188.766	160.2
188.986	213.35
189.205	181.5
189.424	223.7
189.644	203.7
189.863	209.42
190.082	372.44
190.302	324.42
190.521	316.35
190.74	268.99
190.959	186.2
191.178	223.9
191.398	178.56
191.617	175.12
191.836	168.27
192.055	220.57
192.274	230.99
192.494	162.59
192.713	142.15
192.932	141.73
193.151	225.64
193.37	224.69
193.589	208.24
193.808	226.53
194.027	220.31
194.246	156.91
194.465	126.53
194.685	125.51
194.904	142.45
195.123	291.27
195.342	258.67
195.561	249.64
195.78	650
195.999	294.59
196.218	409.54
196.436	1070.96
196.655	-1306.38
196.874	-6908.38
197.093	-1247.95
197.312	-892.83
197.531	1004.06
197.75	920.98
197.969	441.07
198.188	409.48
198.407	321.93
198.625	276.09
198.844	264.29
199.063	222.94
199.282	219.83
199.501	189.59
199.719	156.25
199.938	161.08
200.157	141.58
200.376	122.28
200.594	98.34
200.813	114.21
201.032	135.74
201.251	128.76
201.469	124.01
201.688	155.76
201.907	193.78
202.125	191.88
202.344	209.74
202.563	189.43
202.781	339.98
203	282.06
203.218	333.43
203.437	274.91
203.656	293.14
203.874	327.5
204.093	290.68
204.311	222.06
204.53	252.68
204.748	295.04
204.967	511.05
205.185	556.2
205.404	4102.22
205.622	-4428.92
205.841	20588.37
206.059	-518.52
206.278	1638.94
206.496	-119.36
206.715	-117.25
206.933	-156.27
207.151	-455.24
207.37	-350.67
207.588	323.88
207.806	213.4
208.025	272.72
208.243	243.98
208.461	179.77
208.68	162.35
208.898	174.35
209.116	139.31
209.335	116.58
209.553	122.37
209.771	114.29
209.989	116.48
210.208	129.93
210.426	112.49
210.644	90.54
210.862	87.15
211.081	116.87
211.299	107.86
211.517	112.49
211.735	138.78
211.953	132.11
212.171	160.89
212.39	165.55
212.608	174.58
212.826	190.7
213.044	217.87
213.262	560.76
213.48	394.22
213.698	2867.26
213.916	-1060.97
214.134	-1136.31
214.352	-1292.66
214.57	1951.91
214.788	-1346.91
215.006	-838.1
215.224	939.15
215.442	630.91
215.66	366.23
215.878	591.13
216.096	341.33
216.314	279.6
216.532	218.43
216.75	213.91
216.968	213.15
217.185	184.63
217.403	168.51
217.621	188.39
217.839	261.97
218.057	179.28
218.275	150.39
218.492	133.6
218.71	131.6
218.928	161.67
219.146	165.09
219.363	212.74
219.581	214.14
219.799	227.31
220.017	341.82
220.234	338.69
220.452	806.1
220.67	-1882.31
220.887	-554.81
221.105	-400.45
221.323	-522.08
221.54	-229.89
221.758	-400.12
221.976	-835.97
222.193	-2041.26
222.411	1044.45
222.629	1092.19
222.846	3749.87
223.064	3452.83
223.281	1755.29
223.499	1712.65
223.716	-1043.04
223.934	5171.2
224.151	-1228.06
224.369	-445.09
224.586	-334.83
224.804	-335.57
225.021	-440.47
225.239	-467
225.456	-710.65
225.674	-665
225.891	-576.01
226.108	7836.79
226.326	-12794.24
226.543	21941.46
226.76	-1726.98
226.978	-3370.18
227.195	-894.36
227.413	-603.63
227.63	-363.64
227.847	-183.03
228.064	-99.61
228.282	-60.87
228.499	-42.12
228.716	-29.67
228.934	-28.4
229.151	-29.28
229.368	-29.07
229.585	-21.15
229.802	-17.94
230.02	-19.29
230.237	-18.77
230.454	-19.1
230.671	-19.92
230.888	-18.27
231.105	-18.38
231.323	-14.15
231.54	-13.37
231.757	-6.24
231.974	-10.55
232.191	-14.5
232.408	-16.05
232.625	-15.43
232.842	-23.81
233.059	-25.64
233.276	-24.24
233.493	-27.07
233.71	-45.87
233.927	-52.35
234.144	-40.35
234.361	-33.45
234.578	-28.04
234.795	-22.69
235.012	-24.3
235.229	-22.75
235.446	-29.22
235.663	-36.8
235.879	-50.35
236.096	-45.8
236.313	-38.36
236.53	-68.49
236.747	-65.95
236.964	-82.65
237.181	-97.41
237.397	-90.87
237.614	-84.94
237.831	-97.62
238.048	-102.34
238.264	-90.33
238.481	-71.55
238.698	-62.15
238.915	-48.57
239.131	-55.41
239.348	-48.64
239.565	-39.53
239.781	-25.46
239.998	-30.99
240.215	-22.38
240.431	-16.66
240.648	-6.72
240.865	-8.12
241.081	-4.96
241.298	-2.91
241.514	-2.88
241.731	-1.33
241.947	-2.28
242.164	-2.65
242.38	-0.87
242.597	0.22
242.814	1.68
243.03	0.27
243.246	1.27
243.463	1.26
243.679	-0.47
243.896	-2.38
244.112	-4.14
244.329	-2.72
244.545	-4.77
244.762	-7.37
244.978	-9.38
245.194	-11.23
245.411	-11.11
245.627	-10.85
245.843	-11.12
246.06	-6.83
246.276	-2.58
246.492	0.47
246.709	1.15
246.925	2.17
247.141	3.54
247.357	3.86
247.574	2.75
247.79	2.67
248.006	3.46
248.222	2.82
248.439	0.73
248.655	-0.65
248.871	-2.15
249.087	-2.42
249.303	-4.62
249.519	-6.04
249.736	-7.3
249.952	-8.86
250.168	-9.71
250.384	-13.64
250.6	-12.15
250.816	-7.76
251.032	-6.36
251.248	-7.07
251.464	-11.38
251.68	-9.44
251.896	-9.74
252.112	-9.67
252.328	-4.92
252.544	-3.34
252.76	-3.51
252.976	-4.96
253.192	-5.75
253.408	-5.07
253.624	-4.52
253.84	-3.12
254.056	-7.33
254.272	-3.85
254.487	-5.59
254.703	-6.35
254.919	-8.94
255.135	-5.36
255.351	-4.99
255.567	-11.96
255.782	-13.48
255.998	-12.53
256.214	-7.75
256.43	-2.12
256.646	-1.03
256.861	1.04
257.077	-1.07
257.293	-0.27
257.508	-2.7
257.724	-2.54
257.94	-0.98
258.155	-1.21
258.371	-2.01
258.587	-1.12
258.802	-0.92
259.018	1.06
259.234	2.48
259.449	4.16
259.665	5.14
259.88	6.47
260.096	7.34
260.312	8.12
260.527	7.91
260.743	7.79
260.958	6.72
261.174	6.55
261.389	3.98
261.605	3.57
261.82	1.92
262.036	-1.46
262.251	-2.91
262.466	-3.74
262.682	-4.65
262.897	-4.69
263.113	-6.89
263.328	-7.98
263.543	-8.52
263.759	-6.38
263.974	-8.2
264.189	-7.2
264.405	-6.94
264.62	-6.54
264.835	-10.94
265.051	-9.19
265.266	-8.91
265.481	-6.25
265.696	-5.14
265.912	-6.61
266.127	-3.02
266.342	-3.15
266.557	-3.07
266.773	-4.14
266.988	-6.07
267.203	-6.45
267.418	-7.92
267.633	-6.77
267.848	-5.91
268.064	-3.92
268.279	-2.37
268.494	-8.31
268.709	-9.53
268.924	-8.65
269.139	-6.45
269.354	-6.34
269.569	-7.27
269.784	-8.35
269.999	-11.15
270.214	-12.46
270.429	-15.19
270.644	-15.79
270.859	-11.12
271.074	-8.3
271.289	-7.88
271.504	-6.89
271.719	-5.34
271.934	-1.93
272.149	-2.58
272.363	-2.26
272.578	-1.05
272.793	0.39
273.008	0.75
273.223	0.33
273.438	-2.02
273.653	-4.43
273.867	-3.93
274.082	-6.05
274.297	-8.46
274.512	-7.33
274.726	-6.14
274.941	-5.98
275.156	-6.29
275.371	-8.02
275.585	-8.09
275.8	-3.76
276.015	-3.05
276.229	-4.08
276.444	-3.83
276.659	-4.94
276.873	-3.9
277.088	-5.18
277.302	-7.07
277.517	-7.65
277.732	-4.4
277.946	-6.16
278.161	-10.23
278.375	-9.14
278.59	-10.13
278.804	-10.71
279.019	-8.35
279.233	-9
279.448	-7.09
279.662	-6.08
279.877	-7.26
280.091	-8.91
280.306	-7.45
280.52	-7.63
280.735	-6.75
280.949	-5.71
281.163	-4.42
281.378	-3.32
281.592	-5.33
281.806	-5.8
282.021	-4.89
282.235	-3.52
282.449	-3.55
282.664	-3.68
282.878	-1.27
283.092	-0.9
283.307	-1.47
283.521	-0.53
283.735	0.43
283.949	2.27
284.164	2.08
284.378	2.74
284.592	3.99
284.806	3.57
285.02	2.83
285.234	1.93
285.449	1.92
285.663	2.31
285.877	2.74
286.091	0.26
286.305	0.97
286.519	1.39
286.733	0.5
286.947	0.34
287.161	0.95
287.375	0.84
287.589	-0.21
287.803	-2.22
288.017	-2.29
288.231	-4.15
288.445	-3.76
288.659	-5.45
288.873	-6.09
289.087	-4.54
289.301	-5.84
289.515	-4.58
289.729	-5.44
289.943	-2.45
290.157	-1.11
290.371	-0.35
290.584	2.33
290.798	3.67
291.012	4.88
291.226	4.36
291.44	2.78
291.654	4.17
291.867	3.07
292.081	3.06
292.295	1.74
292.509	1.81
292.722	1.04
292.936	-1.79
293.15	-2.71
293.364	-5.12
293.577	-4.24
293.791	-3.87
294.005	-5.52
294.218	-3.67
294.432	-1.44
294.645	-1.44
294.859	-4.09
295.073	-4
295.286	-4
295.5	-4.66
295.713	-2.22
295.927	-3.11
296.14	-1.88
296.354	-1.59
296.568	-1.76
296.781	-0.25
296.994	1.46
297.208	5.76
297.421	7.01
297.635	7.82
297.848	8.66
298.062	8.14
298.275	9.35
298.489	8.59
298.702	9.21
298.915	9.38
299.129	7.68
299.342	6.4
299.555	4.33
299.769	4.06
299.982	5.79
300.195	4.43
300.409	4.19
300.622	4.97
300.835	5.23
301.048	5.58
301.262	5.49
301.475	6.51
301.688	9.1
301.901	9.67
302.115	6.22
302.328	3.33
302.541	4.85
302.754	2.26
302.967	2.17
303.18	2.49
303.393	0.17
303.607	-0.36
303.82	0.2
304.033	-0.46
304.246	-1.73
304.459	1.48
304.672	2.37
304.885	2.63
305.098	4.11
305.311	1.05
305.524	1.95
305.737	4.08
305.95	3.25
306.163	3.23
306.376	1.78
306.589	2.42
306.802	1.54
307.015	2.54
307.228	3.61
307.44	4.07
307.653	7.98
307.866	6.11
308.079	4.9
308.292	5.35
308.505	3.38
308.718	2.13
308.93	3.28
309.143	4.7
309.356	3.4
309.569	1.49
309.781	3.07
309.994	2.73
310.207	1.72
310.42	3.5
310.632	4.64
310.845	4.95
311.058	5.68
311.27	3.58
311.483	3
311.696	4.28
311.908	4.94
312.121	3.67
312.333	2.55
312.546	3.58
312.759	1.51
312.971	0.89
313.184	0.23
313.396	-0.57
313.609	2.15
313.821	1.69
314.034	-0.19
314.246	0.65
314.459	0.77
314.671	0.96
314.884	1.14
315.096	2.33
315.309	3.38
315.521	2.69
315.733	2.01
315.946	0.28
316.158	0.35
316.371	2.56
316.583	2.79
316.795	3.13
317.008	4.35
317.22	4.95
317.432	5.15
317.644	5.5
317.857	8.39
318.069	9.37
318.281	9.25
318.494	11.76
318.706	11.29
318.918	10.54
319.13	11.99
319.342	10.35
319.555	10.15
319.767	9.92
319.979	6.13
320.191	6.31
320.403	6.72
320.615	6.56
320.827	3.24
321.039	3.73
321.252	3.31
321.464	3.8
321.676	2.56
321.888	3.18
322.1	2.83
322.312	4.27
322.524	4.41
322.736	5.28
322.948	5.66
323.16	7.65
323.372	7.72
323.584	7.91
323.796	9.18
324.007	10.14
324.219	7.94
324.431	7.23
324.643	7.27
324.855	7.67
325.067	6.93
325.279	6.57
325.491	5.65
325.702	6.06
325.914	6.45
326.126	4.53
326.338	4.25
326.55	5.72
326.761	4.84
326.973	4.54
327.185	3
327.396	3.1
327.608	3.42
327.82	4.75
328.032	0.15
328.243	-0.86
328.455	-1.25
328.666	0.14
328.878	0.63
329.09	1.23
329.301	2.2
329.513	3.51
329.725	4.51
329.936	4.49
330.148	4.75
330.359	7.68
330.571	7.88
330.782	6.5
330.994	4.57
331.205	4.2
331.417	4.55
331.628	5.33
331.84	4.64
332.051	4.16
332.262	5.7
332.474	3.29
332.685	2.62
332.897	3.48
333.108	4.48
333.319	5.93
333.531	7.35
333.742	7.2
333.953	6.79
334.165	7.12
334.376	7.56
334.587	7.58
334.799	7.65
335.01	7.64
335.221	6.98
335.432	8.67
335.644	9.76
335.855	8.7
336.066	9.94
336.277	11.17
336.488	10.94
336.7	9.65
336.911	9.06
337.122	10.5
337.333	11.72
337.544	12.57
337.755	12.42
337.966	9.91
338.177	9.72
338.388	8.82
338.599	6.85
338.811	6.77
339.022	7.32
339.233	5.88
339.444	4.89
339.655	4.08
339.866	2.82
340.076	1.06
340.287	2.87
340.498	4.62
340.709	5.04
340.92	5.86
341.131	5.91
341.342	4.8
341.553	4.65
341.764	3.94
341.975	3.97
342.185	5
342.396	5.41
342.607	4.66
342.818	3.63
343.029	3.1
343.239	3.09
343.45	2.2
343.661	2.2
343.872	3.04
344.082	4.89
344.293	4.83
344.504	5.29
344.714	3.86
344.925	3.13
345.136	3.3
345.346	3.83
345.557	3.54
345.768	4.52
345.978	6.15
346.189	6.1
346.399	4.96
346.61	5.23
346.821	5.61
347.031	6.69
347.242	6.07
347.452	5.19
347.663	4.17
347.873	4.13
348.084	2.37
348.294	1.73
348.504	1.78
348.715	3.81
348.925	4
349.136	3.36
349.346	2.49
349.557	4.84
349.767	5.82
349.977	5.68
350.188	6.52
350.398	8.35
350.608	8.89
350.819	9.96
351.029	7.2
351.239	6.53
351.449	6.64
351.66	9.51
351.87	9.53
352.08	9.32
352.29	10.6
352.501	11.06
352.711	11.17
352.921	8.02
353.131	6.97
353.341	8.14
353.552	9.68
353.762	9.28
353.972	8.14
354.182	7.27
354.392	7.04
354.602	7.62
354.812	6.37
355.022	5.47
355.232	8.92
355.442	9.08
355.652	8.87
355.862	9.84
356.072	9.32
356.282	8.61
356.492	10.01
356.702	11.18
356.912	10.88
357.122	10.79
357.332	12.02
357.542	9.82
357.752	10.22
357.962	9.95
358.171	9.08
358.381	9.37
358.591	10.21
358.801	10.26
359.011	8.21
359.221	8.17
359.43	8.49
359.64	8.92
359.85	11.09
360.06	11.82
360.269	12.52
360.479	11.25
360.689	10.94
360.899	10.62
361.108	9.67
361.318	11.37
361.528	10.75
361.737	10.11
361.947	8.95
362.156	9.02
362.366	8.29
362.576	7.74
362.785	7.92
362.995	8.16
363.204	7.22
363.414	6.78
363.623	6.07
363.833	6.44
364.042	7.13
364.252	6.73
364.461	5.78
364.671	6.09
364.88	6.11
365.09	6.78
365.299	7.04
365.509	8.16
365.718	8.78
365.927	8.54
366.137	8
366.346	8.68
366.555	9.61
366.765	10.66
366.974	9.42
367.183	8.89
367.393	8.51
367.602	9.58
367.811	8.83
368.021	8.77
368.23	8.7
368.439	8.54
368.648	7.02
368.857	5.19
369.067	3.6
369.276	3.59
369.485	3.97
369.694	4.15
369.903	2
370.112	2.66
370.321	1.99
370.531	1.93
370.74	3.17
370.949	3.68
371.158	4.69
371.367	4.69
371.576	5.13
371.785	5.58
371.994	4.96
372.203	5.16
372.412	5.03
372.621	5.55
372.83	6.24
373.039	5.37
373.248	6.01
373.457	5.95
373.666	6.77
373.874	7.89
374.083	7.8
374.292	8.37
374.501	7.91
374.71	8.13
374.919	8.62
375.128	8.34
375.336	9.17
375.545	9.23
375.754	9.98
375.963	9.48
376.171	9.32
376.38	9.12
376.589	8.23
376.798	8.91
377.006	8.5
377.215	8.23
377.424	8.41
377.632	7.34
377.841	7.3
378.05	6.42
378.258	6.12
378.467	5.17
378.675	4.97
378.884	6.01
379.093	5.69
379.301	6.21
379.51	6.03
379.718	5.25
379.927	6.29
380.135	6.2
380.344	6.36
380.552	7.73
380.761	8.47
380.969	8.47
381.177	8.2
381.386	8.44
381.594	7.42
381.803	7.8
382.011	8.28
382.219	8.23
382.428	8.3
382.636	8.41
382.845	7.57
383.053	7.11
383.261	7.32
383.469	7.75
383.678	7.97
383.886	8.04
384.094	8.15
384.302	7.52
384.511	7.28
384.719	6.73
384.927	7.36
385.135	6.91
385.343	6.56
385.552	6.05
385.76	5.53
385.968	5.26
386.176	5.96
386.384	5.39
386.592	5.67
386.8	5.26
387.008	5.27
387.216	4.67
387.424	5.12
387.633	4.91
387.841	5.29
388.049	5.37
388.257	5.39
388.465	5.06
388.672	5.35
388.88	5.36
389.088	5.29
389.296	5.33
389.504	5.18
389.712	4.78
389.92	5.68
390.128	6.08
390.336	6.16
390.544	6.24
390.751	6.61
390.959	6.39
391.167	6
391.375	6.24
391.583	6.3
391.79	6.43
391.998	6.31
392.206	5.89
392.414	5.55
392.621	5.6
392.829	5.62
393.037	4.97
393.244	4.99
393.452	5.32
393.66	5.34
393.867	5.14
394.075	5.26
394.283	5.43
394.49	5.41
394.698	5.04
394.905	5.09
395.113	5.25
395.32	5.1
395.528	5.05
395.735	5.18
395.943	4.98
396.15	5.18
396.358	5.21
396.565	5.2
396.773	5.32
396.98	5.85
397.188	5.78
397.395	5.25
397.602	5.86
397.81	6.01
398.017	5.94
398.225	5.97
398.432	5.85
398.639	5.48
398.847	5.35
399.054	5.3
399.261	5.04
399.468	4.95
399.676	5.09
399.883	4.95
400.09	4.77
400.297	4.61
400.505	4.53
400.712	4.7
400.919	4.83
401.126	5.24
401.333	5.54
401.54	5.43
401.748	5.62
401.955	5.45
402.162	5.6
402.369	5.61
402.576	5.7
402.783	5.94
402.99	5.81
403.197	6.19
403.404	5.88
403.611	5.38
403.818	5.56
404.025	5.26
404.232	5.36
404.439	5.13
404.646	5.31
404.853	5.37
405.06	5.44
405.267	5.67
405.474	5.34
405.681	5.41
405.887	5.77
406.094	5.6
406.301	5.25
406.508	5.61
406.715	5.58
406.922	5.41
407.128	5.32
407.335	5.02
407.542	4.67
407.749	4.84
407.955	4.62
408.162	4.67
408.369	4.65
408.575	5.02
408.782	4.7
408.989	4.71
409.195	4.68
409.402	4.56
409.609	4.39
409.815	4.79
410.022	4.66
410.228	4.89
410.435	4.48
410.642	4.6
410.848	4.74
411.055	4.55
411.261	4.41
411.468	4.54
411.674	4.73
411.881	4.79
412.087	4.52
412.294	4.78
412.5	4.58
412.706	4.77
412.913	4.98
413.119	4.93
413.326	5.05
413.532	5.32
413.738	5.25
413.945	5.21
414.151	5.5
414.357	5.57
414.564	5.42
414.77	5.56
414.976	5.53
415.182	5.18
415.389	5.24
415.595	5.29
415.801	5.29
416.007	5.59
416.214	5.57
416.42	5.42
416.626	5.23
416.832	5.42
417.038	5.53
417.244	5.65
417.45	5.68
417.657	5.51
417.863	5.84
418.069	5.89
418.275	5.66
418.481	5.68
418.687	5.73
418.893	6.03
419.099	5.99
419.305	5.96
419.511	5.83
419.717	6.08
419.923	6.19
420.129	6.02
420.335	6.01
420.541	6.06
420.746	6.06
420.952	6.24
421.158	6.09
421.364	5.94
421.57	5.82
421.776	5.97
421.982	5.91
422.187	5.9
422.393	5.83
422.599	5.8
422.805	5.94
423.01	5.85
423.216	5.76
423.422	5.78
423.628	5.78
423.833	5.98
424.039	5.99
424.245	5.8
424.45	5.78
424.656	5.84
424.862	5.88
425.067	5.71
425.273	5.91
425.478	5.89
425.684	5.98
425.889	5.99
426.095	5.76
426.301	5.56
426.506	5.77
426.712	5.75
426.917	5.75
427.123	5.87
427.328	5.93
427.533	5.74
427.739	5.61
427.944	5.36
428.15	5.49
428.355	5.54
428.561	5.68
428.766	5.5
428.971	5.52
429.177	5.3
429.382	5.04
429.587	4.84
429.793	4.98
429.998	5.04
430.203	5.13
430.408	5
430.614	4.98
430.819	4.94
431.024	5.03
431.229	5.07
431.434	5.15
431.64	5.07
431.845	5.11
432.05	4.82
432.255	4.74
432.46	4.77
432.665	4.84
432.87	4.72
433.076	4.78
433.281	4.76
433.486	4.66
433.691	4.74
433.896	4.8
434.101	4.73
434.306	4.89
434.511	5
434.716	4.78
434.921	4.66
435.126	4.74
435.331	4.7
435.535	4.68
435.74	4.73
435.945	4.85
436.15	4.95
436.355	5.18
436.56	5.15
436.765	5.22
436.97	5.46
437.174	5.52
437.379	5.8
437.584	5.73
437.789	5.93
437.993	5.81
438.198	5.59
438.403	5.66
438.608	5.52
438.812	5.67
439.017	5.6
439.222	5.62
439.426	5.42
439.631	5.3
439.836	5.47
440.04	5.42
440.245	5.56
440.45	5.51
440.654	5.38
440.859	5.46
441.063	5.36
441.268	5.37
441.472	5.32
441.677	5.51
441.881	5.48
442.086	5.32
442.29	5.25
442.495	5.28
442.699	5.29
442.904	5.34
443.108	5.24
443.312	5.25
443.517	5.25
443.721	5.21
443.925	5.18
444.13	5.08
444.334	5.06
444.538	4.95
444.743	4.91
444.947	5.04
445.151	5.13
445.356	5.2
445.56	5.18
445.764	5.1
445.968	5.13
446.173	5.27
446.377	5.35
446.581	5.36
446.785	5.47
446.989	5.49
447.193	5.44
447.398	5.36
447.602	5.23
447.806	5.19
448.01	5.16
448.214	5.2
448.418	5.09
448.622	5.11
448.826	5.15
449.03	5.06
449.234	4.86
449.438	4.95
449.642	4.81
449.846	4.92
450.05	4.94
450.254	5.11
450.458	4.98
450.662	4.83
450.866	4.76
451.069	4.86
451.273	4.72
451.477	4.89
451.681	4.58
451.885	4.76
452.089	4.61
452.292	4.63
452.496	4.5
452.7	4.37
452.904	4.49
453.107	4.52
453.311	4.37
453.515	4.55
453.719	4.57
453.922	4.88
454.126	4.83
454.33	5.04
454.533	5.03
454.737	5.05
454.94	5.18
455.144	5.14
455.348	5.11
455.551	5.11
455.755	4.83
455.958	4.86
456.162	4.51
456.365	4.44
456.569	4.41
456.772	4.26
456.976	4.43
457.179	4.58
457.383	4.29
457.586	4.24
457.79	4.21
457.993	4.34
458.196	4.43
458.4	4.64
458.603	4.75
458.807	4.71
459.01	4.83
459.213	4.79
459.417	4.82
459.62	5.05
459.823	5.19
460.026	5.15
460.23	5.2
460.433	5.1
460.636	5.1
460.839	4.93
461.042	4.99
461.246	4.87
461.449	4.74
461.652	4.6
461.855	4.6
462.058	4.5
462.261	4.48
462.464	4.53
462.668	4.52
462.871	4.48
463.074	4.62
463.277	4.45
463.48	4.68
463.683	4.79
463.886	4.84
464.089	4.87
464.292	4.73
464.495	4.94
464.698	4.74
464.901	4.97
465.104	4.96
465.306	4.9
465.509	5.1
465.712	5.03
465.915	5.18
466.118	5.21
466.321	5.01
466.524	5.09
466.726	5.13
466.929	5.14
467.132	4.82
467.335	4.74
467.538	4.74
467.74	4.64
467.943	4.65
468.146	4.41
468.348	4.23
468.551	4.34
468.754	4.37
468.956	4.14
469.159	4.23
469.362	4.36
469.564	4.48
469.767	4.42
469.969	4.55
470.172	4.51
470.375	4.68
470.577	4.79
470.78	4.8
470.982	4.77
471.185	4.84
471.387	4.91
471.59	4.69
471.792	4.65
471.995	4.68
472.197	4.6
472.399	4.45
472.602	4.49
472.804	4.65
473.007	4.7
473.209	4.82
473.411	4.72
473.614	4.51
473.816	4.69
474.018	4.68
474.22	4.92
474.423	4.94
474.625	5.06
474.827	4.92
475.03	4.77
475.232	4.6
475.434	4.57
475.636	4.76
475.838	4.89
476.04	4.95
476.243	4.97
476.445	4.61
476.647	4.59
476.849	4.51
477.051	4.69
477.253	4.7
477.455	4.9
477.657	4.88
477.859	4.83
478.061	4.93
478.263	4.78
478.465	4.69
478.667	4.9
478.869	4.8
479.071	4.95
479.273	4.76
479.475	4.79
479.677	4.68
479.879	4.78
480.081	4.72
480.283	4.82
480.485	4.86
480.686	4.91
480.888	4.89
481.09	4.87
481.292	4.84
481.494	4.94
481.695	5.09
481.897	5.18
482.099	5.15
482.301	5.29
482.502	5.2
482.704	5.26
482.906	5.34
483.107	5.43
483.309	5.54
483.511	5.54
483.712	5.52
483.914	5.51
484.115	5.48
484.317	5.52
484.519	5.46
484.72	5.5
484.922	5.52
485.123	5.5
485.325	5.41
485.526	5.35
485.728	5.31
485.929	5.33
486.131	5.25
486.332	5.26
486.534	5.18
486.735	5.16
486.936	5.09
487.138	5.07
487.339	5.14
487.541	5.18
487.742	5.2
487.943	5.23
488.144	5.27
488.346	5.34
488.547	5.37
488.748	5.41
488.95	5.49
489.151	5.59
489.352	5.57
489.553	5.49
489.755	5.52
489.956	5.61
490.157	5.6
490.358	5.61
490.559	5.48
490.76	5.47
490.961	5.39
491.163	5.36
491.364	5.35
491.565	5.49
491.766	5.59
491.967	5.59
492.168	5.57
492.369	5.57
492.57	5.48
492.771	5.6
492.972	5.56
493.173	5.57
493.374	5.63
493.575	5.59
493.776	5.51
493.976	5.47
494.177	5.31
494.378	5.24
494.579	5.29
494.78	5.25
494.981	5.06
495.182	5.04
495.382	5.09
495.583	5
495.784	5.08
495.985	5.14
496.185	5.13
496.386	5.29
496.587	5.32
496.788	5.33
496.988	5.31
497.189	5.48
497.39	5.55
497.59	5.63
497.791	5.75
497.992	5.68
498.192	5.59
498.393	5.48
498.593	5.47
498.794	5.39
498.994	5.42
499.195	5.49
499.395	5.19
499.596	5.21
499.796	5.14
499.997	5.17
500.197	5.22
500.398	5.27
500.598	5.34
500.799	5.26
500.999	5.27
501.199	5.13
501.4	5.27
501.6	5.43
501.801	5.33
502.001	5.25
502.201	5.01
502.402	4.98
502.602	4.98
502.802	5.02
503.002	5.11
503.203	5.27
503.403	5.48
503.603	5.5
503.803	5.63
504.003	5.75
504.204	5.94
504.404	6.18
504.604	6.25
504.804	6.25
505.004	6.48
505.204	6.65
505.404	6.61
505.604	6.56
505.804	6.53
506.005	6.48
506.205	6.47
506.405	6.39
506.605	6.29
506.805	6.41
507.005	6.58
507.204	6.3
507.404	6.13
507.604	6.06
507.804	6.15
508.004	6.16
508.204	6.32
508.404	6.41
508.604	6.5
508.804	6.55
509.003	6.61
509.203	6.56
509.403	6.71
509.603	7
509.803	7.09
510.002	7.02
510.202	6.99
510.402	6.89
510.602	6.95
510.801	6.95
511.001	7.08
511.201	7.01
511.4	7.02
511.6	7.09
511.8	7.04
511.999	7.08
512.199	7.09
512.398	7.19
512.598	7.38
512.797	7.24
512.997	7.24
513.197	7.03
513.396	7.05
513.596	6.9
513.795	6.6
513.994	6.36
514.194	6.32
514.393	6.48
514.593	6.46
514.792	6.28
514.992	6.43
515.191	6.43
515.39	6.64
515.59	6.7
515.789	6.93
515.988	7.19
516.188	7.38
516.387	7.37
516.586	7.35
516.786	7.33
516.985	7.56
517.184	7.55
517.383	7.64
517.582	7.69
517.782	7.58
517.981	7.52
518.18	7.67
518.379	7.62
518.578	7.77
518.777	7.82
518.976	7.97
519.176	7.92
519.375	8
519.574	7.98
519.773	7.91
519.972	8.09
520.171	8.21
520.37	8.09
520.569	8.21
520.768	8.11
520.967	8.07
521.166	7.91
521.365	7.93
521.564	7.82
521.762	7.81
521.961	7.88
522.16	7.81
522.359	7.74
522.558	7.8
522.757	7.72
522.956	7.74
523.154	7.77
523.353	8.01
523.552	8.05
523.751	8.15
523.949	8.37
524.148	8.35
524.347	8.41
524.546	8.45
524.744	8.48
524.943	8.67
525.142	8.99
525.34	8.97
525.539	9.02
525.737	9.08
525.936	9.06
526.135	9.07
526.333	9.08
526.532	9.03
526.73	9.09
526.929	9.18
527.127	9.19
527.326	9.15
527.524	9.28
527.723	9.4
527.921	9.47
528.12	9.61
528.318	9.65
528.516	9.8
528.715	9.95
528.913	10.01
529.112	10.04
529.31	10.04
529.508	10.07
529.707	10.05
529.905	10.02
530.103	10
530.301	10.02
530.5	9.99
530.698	9.91
530.896	9.78
531.094	9.84
531.293	9.9
531.491	9.91
531.689	9.89
531.887	10.02
532.085	10
532.283	10.06
532.481	10.06
532.68	10.16
532.878	10.27
533.076	10.4
533.274	10.42
533.472	10.33
533.67	10.37
533.868	10.31
534.066	10.28
534.264	10.29
534.462	10.33
534.66	10.32
534.858	10.36
535.056	10.34
535.253	10.39
535.451	10.35
535.649	10.49
535.847	10.56
536.045	10.75
536.243	10.86
536.441	10.82
536.638	10.8
536.836	10.86
537.034	10.79
537.232	10.81
537.43	10.85
537.627	10.83
537.825	10.79
538.023	10.84
538.22	10.76
538.418	10.7
538.616	10.89
538.813	10.93
539.011	10.85
539.209	11.06
539.406	11.15
539.604	11.22
539.801	11.29
539.999	11.49
540.196	11.44
540.394	11.49
540.591	11.63
540.789	11.63
540.986	11.71
541.184	11.89
541.381	11.89
541.579	11.92
541.776	11.87
541.974	11.93
542.171	11.86
542.368	11.97
542.566	12.07
542.763	12.07
542.96	12.15
543.158	12.11
543.355	12.01
543.552	11.97
543.75	12
543.947	12.03
544.144	12.01
544.341	12.17
544.539	12.19
544.736	12.27
544.933	12.34
545.13	12.37
545.327	12.6
545.524	12.78
545.722	12.8
545.919	12.95
546.116	12.9
546.313	13
546.51	12.87
546.707	12.95
546.904	12.82
547.101	12.88
547.298	12.76
547.495	12.66
547.692	12.55
547.889	12.68
548.086	12.57
548.283	12.78
548.48	12.92
548.677	12.99
548.874	12.93
549.07	13.12
549.267	13.05
549.464	13.24
549.661	13.24
549.858	13.56
550.055	13.66
550.251	13.89
550.448	13.84
550.645	13.72
550.842	13.98
551.038	13.99
551.235	14.05
551.432	14.17
551.628	14.29
551.825	14.51
552.022	14.53
552.218	14.44
552.415	14.22
552.612	14.24
552.808	14.36
553.005	14.33
553.201	14.51
553.398	14.4
553.594	14.37
553.791	14.55
553.987	14.58
554.184	14.61
554.38	14.75
554.577	14.99
554.773	15.16
554.97	15.09
555.166	14.97
555.362	14.98
555.559	15.33
555.755	15.45
555.952	15.34
556.148	15.32
556.344	15.28
556.541	15.11
556.737	15.12
556.933	14.92
557.129	15.33
557.326	15.57
557.522	15.65
557.718	15.55
557.914	15.89
558.11	15.76
558.307	15.82
558.503	15.87
558.699	16.05
558.895	16.23
559.091	16.38
559.287	16.16
559.483	16.12
559.679	16.16
559.876	16.32
560.072	16.02
560.268	16.16
560.464	16.13
560.66	16.12
560.856	16.3
561.052	16.24
561.247	16.41
561.443	16.71
561.639	16.82
561.835	16.79
562.031	16.65
562.227	16.69
562.423	16.85
562.619	16.95
562.815	17.2
563.01	17.19
563.206	17.03
563.402	17.16
563.598	17.09
563.793	17.29
563.989	17.37
564.185	17.6
564.381	17.88
564.576	18.13
564.772	18.26
564.968	18.18
565.163	18.43
565.359	18.68
565.555	18.75
565.75	18.93
565.946	18.94
566.141	19.02
566.337	19
566.532	18.96
566.728	18.93
566.923	19.15
567.119	19.22
567.314	19.03
567.51	18.98
567.705	19.01
567.901	18.75
568.096	18.84
568.292	18.87
568.487	19.18
568.682	19.23
568.878	19.23
569.073	19.25
569.268	19.39
569.464	19.6
569.659	19.96
569.854	20.12
570.05	20.31
570.245	20.4
570.44	20.64
570.635	20.54
570.831	20.75
571.026	20.76
571.221	20.67
571.416	20.87
571.611	20.91
571.806	20.84
572.002	20.8
572.197	20.92
572.392	20.88
572.587	20.89
572.782	20.92
572.977	20.65
573.172	20.74
573.367	20.9
573.562	20.66
573.757	20.85
573.952	20.91
574.147	20.98
574.342	21.13
574.537	21.16
574.732	21.22
574.927	21.35
575.121	21.54
575.316	21.52
575.511	21.67
575.706	21.93
575.901	21.76
576.096	21.73
576.29	21.87
576.485	21.81
576.68	21.97
576.875	21.99
577.069	22.04
577.264	22.09
577.459	22.05
577.654	21.8
577.848	21.75
578.043	21.9
578.238	21.91
578.432	21.52
578.627	21.46
578.821	21.56
579.016	21.58
579.21	21.46
579.405	21.57
579.6	21.59
579.794	21.71
579.989	21.79
580.183	21.87
580.378	22.11
580.572	22.51
580.766	22.66
580.961	22.45
581.155	22.38
581.35	22.41
581.544	22.49
581.738	22.71
581.933	22.73
582.127	22.54
582.321	22.29
582.516	22.08
582.71	22.22
582.904	22.57
583.099	22.41
583.293	22.62
583.487	22.53
583.681	22.53
583.875	22.56
584.07	22.69
584.264	22.98
584.458	23.17
584.652	23.52
584.846	23.24
585.04	22.91
585.234	23.25
585.428	23.29
585.623	23.54
585.817	23.76
586.011	24.07
586.205	24.11
586.399	24.29
586.593	24.27
586.787	24.14
586.981	24.4
587.174	24.12
587.368	24.14
587.562	24.26
587.756	24.37
587.95	24.19
588.144	23.9
588.338	23.94
588.532	23.92
588.725	24.07
588.919	24.27
589.113	24.43
589.307	24.86
589.501	24.86
589.694	24.85
589.888	24.81
590.082	24.49
590.275	24.5
590.469	24.57
590.663	24.39
590.856	24.25
591.05	24
591.244	23.88
591.437	23.84
591.631	23.94
591.824	23.93
592.018	24.02
592.212	24.61
592.405	24.53
592.599	24.69
592.792	24.72
592.986	25.08
593.179	25.49
593.372	25.44
593.566	25.27
593.759	25.33
593.953	25.2
594.146	25.39
594.339	25.29
594.533	25.46
594.726	25.35
594.92	25.49
595.113	25.29
595.306	25.22
595.499	25.25
595.693	25.47
595.886	25.27
596.079	25.47
596.272	25.26
596.466	25.16
596.659	25.15
596.852	25.15
597.045	25.15
597.238	25.29
597.431	25.11
597.624	25.18
597.818	25.02
598.011	24.96
598.204	24.51
598.397	24.5
598.59	24.59
598.783	24.43
598.976	24.37
599.169	24.13
599.362	24.05
599.555	24.1
599.748	23.85
599.941	23.78
600.134	24.3
600.326	24.55
600.519	24.39
600.712	24.29
600.905	24.65
601.098	24.62
601.291	25
601.483	25.09
601.676	25.31
601.869	25.51
602.062	25.8
602.255	25.35
602.447	25.65
602.64	26.11
602.833	26.31
603.025	26.24
603.218	26.47
603.411	26.44
603.603	26.49
603.796	26.57
603.989	26.52
604.181	26.45
604.374	26.7
604.566	26.69
604.759	26.77
604.951	26.87
605.144	27.04
605.336	26.87
605.529	26.88
605.721	27.02
605.914	26.71
606.106	26.84
606.299	27.07
606.491	27.04
606.683	26.92
606.876	26.71
607.068	26.35
607.26	26.18
607.453	26.26
607.645	26.44
607.837	26.19
608.03	26.48
608.222	26.8
608.414	26.76
608.606	27.02
608.799	27.18
608.991	27.27
609.183	27.21
609.375	27.05
609.567	27.01
609.759	26.69
609.952	26.81
610.144	26.82
610.336	26.6
610.528	26.5
610.72	26.3
610.912	26.43
611.104	26.26
611.296	26.44
611.488	26.55
611.68	26.59
611.872	26.53
612.064	26.47
612.256	26.32
612.448	26.2
612.64	26.35
612.832	25.95
613.023	25.8
613.215	25.8
613.407	25.86
613.599	26.12
613.791	26.3
613.983	26.39
614.174	26.16
614.366	26.39
614.558	26.43
614.75	26.5
614.941	26.65
615.133	26.61
615.325	26.82
615.516	26.77
615.708	26.78
615.9	26.79
616.091	27.07
616.283	27.42
616.475	26.96
616.666	27
616.858	26.89
617.049	27
617.241	26.98
617.432	26.8
617.624	26.5
617.815	26.43
618.007	26.14
618.198	26.12
618.39	26.28
618.581	26.52
618.773	26.67
618.964	26.77
619.155	27.19
619.347	27.39
619.538	27.33
619.729	28.04
619.921	28.04
620.112	28.41
620.303	28.25
620.494	27.68
620.686	27.83
620.877	27.89
621.068	27.75
621.259	27.6
621.451	27.34
621.642	27.54
621.833	27.38
622.024	27.43
622.215	27.33
622.406	27.61
622.597	27.95
622.788	27.91
622.98	27.49
623.171	27.33
623.362	27.38
623.553	27.58
623.744	26.96
623.935	26.93
624.126	26.64
624.317	26.66
624.508	26.64
624.698	26.89
624.889	26.94
625.08	27.27
625.271	27.46
625.462	27.46
625.653	27.25
625.844	27.88
626.034	27.99
626.225	28.48
626.416	28.61
626.607	28.9
626.798	28.76
626.988	28.64
627.179	28.69
627.37	28.65
627.56	28.72
627.751	28.99
627.942	28.85
628.132	28.93
628.323	28.89
628.514	29
628.704	28.91
628.895	28.94
629.085	29.23
629.276	29.2
629.466	29.2
629.657	29.16
629.847	29.18
630.038	29.2
630.228	28.78
630.419	28.77
630.609	28.5
630.8	28.2
630.99	27.8
631.181	27.77
631.371	27.71
631.561	27.93
631.752	28.09
631.942	27.91
632.132	27.98
632.323	28.24
632.513	28.17
632.703	28.35
632.893	28.62
633.084	29.09
633.274	29.1
633.464	28.9
633.654	28.82
633.844	28.58
634.034	28.66
634.225	28.96
634.415	28.68
634.605	28.64
634.795	28.59
634.985	28.44
635.175	28.39
635.365	28.29
635.555	28.5
635.745	28.36
635.935	28.29
636.125	28.32
636.315	28.1
636.505	28.6
636.695	28.65
636.885	28.53
637.075	28.58
637.265	27.93
637.455	28.22
637.644	28.45
637.834	28.51
638.024	28.83
638.214	28.69
638.404	28.66
638.593	28.31
638.783	28.45
638.973	28.53
639.163	28.5
639.352	28.96
639.542	28.54
639.732	28.46
639.921	28.16
640.111	28.31
640.301	28.47
640.49	28.29
640.68	28.72
640.87	28.38
641.059	28.29
641.249	28.46
641.438	28.75
641.628	28.84
641.817	28.5
642.007	29.24
642.196	29.08
642.386	29.18
642.575	28.95
642.764	28.69
642.954	28.7
643.143	28.8
643.333	28.83
643.522	28.58
643.711	28.57
643.901	29.06
644.09	29.23
644.279	28.94
644.469	28.78
644.658	29.07
644.847	28.71
645.036	29.27
645.226	28.91
645.415	28.94
645.604	29.23
645.793	29.46
645.982	29.05
646.171	28.18
646.361	28.28
646.55	28.4
646.739	28.47
646.928	28.52
647.117	28.11
647.306	28.25
647.495	28
647.684	28.02
647.873	27.8
648.062	28.22
648.251	28.41
648.44	28.55
648.629	28.44
648.818	28.64
649.007	29.11
649.196	28.66
649.384	29.32
649.573	28.96
649.762	29.18
649.951	29.33
650.14	29.62
650.328	29.97
650.517	30.13
650.706	30.2
650.895	30.03
651.083	29.81
651.272	30.19
651.461	29.83
651.65	30.5
651.838	29.99
652.027	29.67
652.216	29.16
652.404	29.02
652.593	28.53
652.781	28.6
652.97	28.54
653.158	28.25
653.347	28.46
653.535	28.5
653.724	28.09
653.912	28.39
654.101	28.91
654.289	28.76
654.478	29.09
654.666	29.33
654.855	29.65
655.043	29.72
655.231	30.02
655.42	29.93
655.608	29.83
655.796	30.4
655.985	30.17
656.173	30.23
656.361	30.58
656.55	30.04
656.738	29.93
656.926	29.6
657.114	29.68
657.302	29.7
657.491	29.46
657.679	29.71
657.867	29.51
658.055	29.74
658.243	29.62
658.431	29.52
658.619	29.96
658.807	30.18
658.996	30.07
659.184	30.01
659.372	30.27
659.56	30.37
659.748	30.08
659.936	30.1
660.124	30.15
660.311	30.19
660.499	30.32
660.687	30.21
660.875	29.95
661.063	29.96
661.251	30.35
661.439	30.08
661.627	30.26
661.814	30.04
662.002	29.79
662.19	29.68
662.378	29.79
662.565	29.42
662.753	29.51
662.941	29.55
663.129	29.56
663.316	29.4
663.504	29.69
663.692	29.36
663.879	29.77
664.067	29.91
664.254	29.9
664.442	29.27
664.63	29.63
664.817	29.44
665.005	29.65
665.192	29.7
665.38	28.9
665.567	28.66
665.755	29.12
665.942	29.15
666.13	29.26
666.317	29.12
666.504	29.9
666.692	29.83
666.879	29.82
667.067	29.49
667.254	29.46
667.441	30.13
667.629	30.52
667.816	30.78
668.003	30.82
668.19	31.12
668.378	31.33
668.565	31.33
668.752	31.16
668.939	31.14
669.127	31.64
669.314	31.56
669.501	31.19
669.688	30.91
669.875	30.03
670.062	29.93
670.249	29.84
670.436	29.91
670.623	29.74
670.81	29.99
670.997	30.03
671.184	29.88
671.371	30.08
671.558	30.32
671.745	30.33
671.932	30.34
672.119	29.87
672.306	29.36
672.493	29.15
672.68	29.1
672.867	28.67
673.054	29.1
673.24	29.31
673.427	29.19
673.614	29.62
673.801	29.72
673.988	29.86
674.174	30.8
674.361	30.73
674.548	30.86
674.734	30.87
674.921	31.59
675.108	31.33
675.294	30.91
675.481	31.06
675.668	30.65
675.854	30.58
676.041	30.9
676.227	30.12
676.414	30.26
676.601	30.2
676.787	30.03
676.974	29.97
677.16	29.49
677.347	29.94
677.533	30.1
677.719	30.38
677.906	30.27
678.092	30.92
678.279	31.66
678.465	31.87
678.651	31.69
678.838	31.8
679.024	31.32
679.21	32.14
679.397	32.12
679.583	32.01
679.769	31.9
679.955	31.88
680.142	31.33
680.328	31.46
680.514	31.09
680.7	31.11
680.886	30.94
681.073	31.11
681.259	30.78
681.445	30.41
681.631	30.08
681.817	30.7
682.003	30.45
682.189	30.75
682.375	30.35
682.561	30.88
682.747	31.03
682.933	30.81
683.119	30.55
683.305	30.35
683.491	30.52
683.677	30.88
683.863	30.36
684.049	30.48
684.235	30.22
684.42	30.09
684.606	30.31
684.792	30.99
684.978	31.8
685.164	32.24
685.349	32.13
685.535	31.98
685.721	31.67
685.907	31.13
686.092	32.18
686.278	32.28
686.464	32.77
686.649	32.81
686.835	32.23
687.021	32.33
687.206	32.1
687.392	32.68
687.577	33.08
687.763	33.47
687.948	33.91
688.134	32.95
688.319	32.86
688.505	32.01
688.69	31.78
688.876	32.04
689.061	31.7
689.247	31.33
689.432	30.53
689.618	30.39
689.803	30.15
689.988	30.08
690.174	30.13
690.359	29.84
690.544	30.27
690.73	30.03
690.915	29.58
691.1	29.21
691.285	29.47
691.471	29.98
691.656	29.69
691.841	30.16
692.026	29.76
692.211	29.9
692.396	29.87
692.582	29.82
692.767	30.19
692.952	30.3
693.137	30.35
693.322	30.78
693.507	30.93
693.692	31.26
693.877	30.85
694.062	30.77
694.247	30.03
694.432	30.1
694.617	30.32
694.802	29.94
694.987	29.87
695.172	29.85
695.357	29.82
695.541	28.88
695.726	29.28
695.911	28.89
696.096	29.2
696.281	30.05
696.466	30.28
696.65	30.38
696.835	30.29
697.02	30.83
697.204	30.99
697.389	30.88
697.574	31.72
697.759	31.17
697.943	31.51
698.128	31.91
698.312	31.59
698.497	31.57
698.682	31.83
698.866	32.34
699.051	32.42
699.235	32.37
699.42	32.39
699.604	32.17
699.789	32.41
699.973	32.48
700.158	32.03
700.342	32.18
700.527	32.35
700.711	31.53
700.895	31.14
701.08	30.35
701.264	30.36
701.448	29.66
701.633	29.5
701.817	29.25
702.001	28.84
702.186	29.33
702.37	29.03
702.554	28.35
702.738	29.02
702.923	28.73
703.107	28.83
703.291	28.88
703.475	30.4
703.659	30.92
703.843	31.34
704.027	31.44
704.212	30.65
704.396	30.78
704.58	31.19
704.764	31.26
704.948	31.69
705.132	31.96
705.316	32.14
705.5	31.51
705.684	30.72
705.868	30.24
706.052	30.08
706.235	30.67
706.419	31.01
706.603	31.31
706.787	31.35
706.971	31.35
707.155	31.13
707.339	30.56
707.522	30.26
707.706	30.38
707.89	31.3
708.074	30.96
708.257	30.93
708.441	30.93
708.625	31.2
708.808	30.49
708.992	29.57
709.176	30.06
709.359	30.56
709.543	30.03
709.727	30.56
709.91	29.44
710.094	30.02
710.277	30.19
710.461	29.91
710.644	29.04
710.828	29.54
711.011	30.14
711.195	29.91
711.378	29.88
711.562	29.96
711.745	29.71
711.928	29.93
712.112	29.74
712.295	30.11
712.478	30.25
712.662	30.85
712.845	31.25
713.028	30.97
713.212	30.95
713.395	30.87
713.578	30.74
713.761	30.19
713.945	29.67
714.128	29.93
714.311	29.51
714.494	29.44
714.677	29.02
714.86	28.85
715.043	30.11
715.227	29.94
715.41	30.04
715.593	31.25
715.776	31.71
715.959	32.17
716.142	32.25
716.325	31.77
716.508	32.36
716.691	31.87
716.874	31.71
717.057	30.82
717.239	30.99
717.422	30.52
717.605	30.09
717.788	30.13
717.971	30.07
718.154	29.94
718.337	31.29
718.519	30.28
718.702	30.63
718.885	30.97
719.068	31.62
719.25	32.01
719.433	32.34
719.616	31.6
719.798	31.6
719.981	32.08
720.164	31.62
720.346	30.15
720.529	30.41
720.712	29.64
720.894	28.85
721.077	27.84
721.259	27.43
721.442	27.1
721.624	27.28
721.807	27.28
721.989	26.31
722.172	26.7
722.354	26.33
722.537	26.41
722.719	27.49
722.901	27.24
723.084	26.92
723.266	26.89
723.448	26.67
723.631	26.36
723.813	24.86
723.995	25.51
724.178	24.83
724.36	25.21
724.542	24.54
724.724	24.14
724.907	24.55
725.089	25.01
725.271	24.34
725.453	24.98
725.635	24.7
725.817	25.6
725.999	25.02
726.181	25.98
726.364	27.69
726.546	28.93
726.728	29.12
726.91	29.63
727.092	28.57
727.274	28.96
727.456	29.76
727.638	30.85
727.819	30.86
728.001	31.16
728.183	30.84
728.365	29.43
728.547	28.93
728.729	29.73
728.911	29.41
729.093	30.25
729.274	30.58
729.456	29.97
729.638	29.96
729.82	30.1
730.001	30.18
730.183	29.69
730.365	29.92
730.546	29.02
730.728	27.82
730.91	26.96
731.091	26.61
731.273	26.41
731.455	26.94
731.636	25.61
731.818	26.07
731.999	26.32
732.181	26.99
732.362	27.53
732.544	28.51
732.725	28.87
732.907	30.12
733.088	29.96
733.27	29.95
733.451	29.58
733.633	31.29
733.814	31.47
733.995	31.04
734.177	31.39
734.358	29.7
734.539	29.79
734.721	29.55
734.902	28.73
735.083	29.92
735.264	28.89
735.446	28.75
735.627	27.18
735.808	26.33
735.989	27.15
736.17	25.83
736.351	26.8
736.533	26.52
736.714	27.76
736.895	28.24
737.076	27.43
737.257	28.42
737.438	27.99
737.619	27.72
737.8	28.17
737.981	27.56
738.162	27.95
738.343	27.54
738.524	26.35
738.705	25.19
738.886	24.37
739.067	25.23
739.247	25.75
739.428	25.68
739.609	26.22
739.79	27.22
739.971	27.17
740.151	26.96
740.332	27.68
740.513	29.63
740.694	29.85
740.874	30.14
741.055	29.53
741.236	29.37
741.417	28.71
741.597	29.46
741.778	28.28
741.958	28.59
742.139	29.25
742.32	29.81
742.5	29.98
742.681	30.53
742.861	30.57
743.042	30.92
743.222	30.65
743.403	31.75
743.583	31.86
743.764	32.31
743.944	31.91
744.124	31.57
744.305	29.83
744.485	29.65
744.666	29.75
744.846	30.26
745.026	29.89
745.207	29.74
745.387	28.57
745.567	28.91
745.747	27.82
745.928	27.66
746.108	28.74
746.288	30.54
746.468	30.18
746.648	29.27
746.829	28.7
747.009	27.93
747.189	27.23
747.369	28.41
747.549	27.76
747.729	28.41
747.909	28.26
748.089	27.31
748.269	25.33
748.449	23.97
748.629	24.44
748.809	23.55
748.989	24.62
749.169	25.22
749.349	24.13
749.529	24.72
749.709	25.13
749.889	26.05
750.068	26.5
750.248	26.32
750.428	26.79
750.608	25.14
750.788	26.9
750.967	27.35
751.147	26.94
751.327	28.06
751.507	26.95
751.686	27.3
751.866	26.97
752.046	25.56
752.225	26.54
752.405	26.88
752.585	28.13
752.764	27.85
752.944	27.05
753.123	27.76
753.303	28.21
753.482	28.48
753.662	27.57
753.841	26.55
754.021	27.7
754.2	27.86
754.38	28.14
754.559	28.44
754.739	27.43
754.918	27.08
755.097	25.03
755.277	22.92
755.456	23.27
755.635	22.33
755.815	23.49
755.994	24.81
756.173	25.05
756.352	24.99
756.532	23.9
756.711	24.96
756.89	25.85
757.069	26.22
757.248	26.35
757.427	26.08
757.607	26.7
757.786	26.78
757.965	25.57
758.144	25.3
758.323	25.14
758.502	25.79
758.681	25.87
758.86	24.61
759.039	24.46
759.218	26.75
759.397	26.84
759.576	27.07
759.755	25.89
759.934	25
760.113	24.65
760.291	26.05
760.47	26.82
760.649	26.09
760.828	28.15
761.007	29.89
761.186	27.59
761.364	27.73
761.543	27.69
761.722	29.9
761.901	30.97
762.079	30.35
762.258	29.62
762.437	29.05
762.615	30.11
762.794	29.29
762.972	29.41
763.151	29.68
763.33	30.38
763.508	31.08
763.687	30.46
763.865	30.3
764.044	30.74
764.222	30.35
764.401	30.15
764.579	29.47
764.758	29.42
764.936	29.29
765.114	29.74
765.293	28.76
765.471	28.14
765.65	27.83
765.828	28.65
766.006	28.21
766.184	27.64
766.363	28.12
766.541	29.36
766.719	27.77
766.898	26.72
767.076	26.75
767.254	25.54
767.432	24.38
767.61	22.63
767.788	20.21
767.967	20.35
768.145	19.99
768.323	19.86
768.501	18.54
768.679	18.35
768.857	18.81
769.035	18.69
769.213	19.75
769.391	20.35
769.569	23.97
769.747	25.98
769.925	25.27
770.103	25.77
770.281	25.91
770.459	25.5
770.636	26.16
770.814	27.27
770.992	27.44
771.17	27.94
771.348	27.56
771.525	22.27
771.703	20.51
771.881	23.6
772.059	23.8
772.236	23.74
772.414	22.7
772.592	25.29
772.769	24.37
772.947	25.15
773.125	24.93
773.302	23.27
773.48	27.45
773.657	29.23
773.835	29.52
774.013	29.29
774.19	28.21
774.368	27.25
774.545	26.35
774.723	26.33
774.9	25.74
775.077	22.24
775.255	25.08
775.432	23.36
775.61	21.88
775.787	15.43
775.964	14.53
776.142	13.84
776.319	13.64
776.496	12.55
776.674	12.25
776.851	11.31
777.028	15.75
777.205	14.8
777.382	15.32
777.56	13.94
777.737	17.08
777.914	18.79
778.091	21.74
778.268	23.68
778.445	21.72
778.622	20.28
778.8	20.67
778.977	20.44
779.154	21.47
779.331	21.84
779.508	21.77
779.685	21.08
779.862	19.19
780.038	14.47
780.215	13.5
780.392	15.41
780.569	17.51
780.746	15.88
780.923	10.77
781.1	7.15
781.277	6.29
781.453	7.63
781.63	7.58
781.807	9.43
781.984	14.43
782.16	13.02
782.337	14.29
782.514	12.09
782.691	16.46
782.867	19.98
783.044	22.83
783.221	22.55
783.397	22.09
783.574	23.56
783.75	22.66
783.927	20.87
784.103	23.2
784.28	20.13
784.456	24.18
784.633	18.43
784.809	17.69
784.986	18.01
785.162	16.96
785.339	17.9
785.515	16.27
785.692	13.59
785.868	12
786.044	12.24
786.221	14.31
786.397	11.12
786.573	15.74
786.749	15.05
786.926	12.92
787.102	15.88
787.278	14.27
787.454	18.89
787.631	20.98
787.807	22.9
787.983	21.21
788.159	23.79
788.335	25.09
788.511	23.66
788.687	27.73
788.863	24.5
789.039	22.77
789.216	21.77
789.392	18.12
789.568	18.67
789.744	16.68
789.919	14.44
790.095	11.89
790.271	9.46
790.447	7.55
790.623	4.25
790.799	7.61
790.975	9.65
791.151	8.84
791.327	9.31
791.502	5.26
791.678	4.31
791.854	6.75
792.03	5.62
792.205	6.59
792.381	6.87
792.557	4.9
792.733	3.82
792.908	1.21
793.084	-0.61
793.259	2.42
793.435	3.87
793.611	5.66
793.786	3.38
793.962	7.28
794.137	8.96
794.313	9
794.488	12.7
794.664	17.13
794.839	18.86
795.015	22.34
795.19	20.23
795.366	20.95
795.541	18.14
795.716	20.49
795.892	18.1
796.067	15.87
796.242	19.62
796.418	17.01
796.593	12.96
796.768	11.46
796.944	8.59
797.119	7.41
797.294	8.98
797.469	11.38
797.644	10.18
797.82	10.93
797.995	14.32
798.17	10.44
798.345	10.18
798.52	15.15
798.695	14.68
798.87	17.29
799.045	18.06
799.22	16.38
799.395	16.38
799.57	17.1
799.745	16.06
799.92	13.99
800.095	10.62
800.27	11.26
800.445	8.63
800.62	7.76
800.795	4.22
800.97	-0.29
801.145	2.03
801.319	-3.78
801.494	-2.71
801.669	-3.67
801.844	-2.2
802.018	0.72
802.193	0.87
802.368	0.3
802.543	-0.33
802.717	4.71
802.892	8.79
803.067	10.7
803.241	14.68
803.416	11.1
803.59	12.03
803.765	16.05
803.94	17.45
804.114	18.58
804.289	22.74
804.463	23.69
804.638	26.07
804.812	23.29
804.986	15.98
805.161	15.54
805.335	18.22
805.51	19.85
805.684	14.84
805.858	10.97
806.033	9.02
806.207	3.53
806.381	3.49
806.556	2.81
806.73	6.91
806.904	12.62
807.078	14.62
807.253	17.85
807.427	9.76
807.601	9.36
807.775	14.11
807.949	14.02
808.123	12.37
808.298	9.13
808.472	2.7
808.646	-0.6
808.82	-8.24
808.994	-4.6
809.168	-8.64
809.342	-1.48
809.516	1.53
809.69	4.18
809.864	5.83
810.038	11.81
810.212	13.91
810.385	19.24
810.559	18.89
810.733	23.84
810.907	20.07
811.081	18.84
811.255	16.78
811.428	9.01
811.602	1.99
811.776	-3.58
811.95	-8.94
812.123	-6.68
812.297	-11.82
812.471	-7.31
812.644	-2.54
812.818	0.08
812.992	-0.75
813.165	-3.85
813.339	3.28
813.512	-0.79
813.686	2.15
813.86	5.08
814.033	2.13
814.207	7.27
814.38	2.96
814.554	-7.64
814.727	-8.35
814.9	-5.14
815.074	-0.81
815.247	-0.45
815.421	5.82
815.594	5.08
815.767	5.22
815.941	6.96
816.114	2.76
816.287	2.87
816.46	3.24
816.634	-2.79
816.807	-6.54
816.98	-11.46
817.153	-8.43
817.327	-11.91
817.5	-10.22
817.673	-10.31
817.846	-13.33
818.019	-11.9
818.192	-12.81
818.365	-11.95
818.538	-13.76
818.711	-9.15
818.884	-4.26
819.057	-7.03
819.23	-6.44
819.403	-6
819.576	-2.84
819.749	4.67
819.922	7.22
820.095	8.9
820.268	14.58
820.441	16.25
820.614	19.2
820.786	19.46
820.959	22.47
821.132	27.29
821.305	27.47
821.477	27.85
821.65	27.53
821.823	28.21
821.996	29.48
822.168	29.8
822.341	31.3
822.514	31.43
822.686	31.31
822.859	29.64
823.031	29.96
823.204	30.25
823.376	29.96
823.549	30.51
823.722	30
823.894	29.67
824.067	28.72
824.239	28.42
824.411	29.27
824.584	29.82
824.756	30.37
824.929	28.75
825.101	28.73
825.273	28.88
825.446	28.18
825.618	28.31
825.79	28.45
825.963	29.08
826.135	28.47
826.307	26.08
826.479	24.51
826.652	24.56
826.824	25.29
826.996	25.33
827.168	24.61
827.34	24.31
827.512	23.02
827.684	21.6
827.856	20.82
828.029	20.56
828.201	20.76
828.373	21.43
828.545	20.96
828.717	19.71
828.889	20.28
829.061	18.41
829.232	18.88
829.404	21.38
829.576	22.49
829.748	22.02
829.92	21.67
830.092	23.56
830.264	24.24
830.436	27.01
830.607	28.47
830.779	25.97
830.951	27.23
831.123	26.22
831.294	16.66
831.466	12.35
831.638	12.52
831.809	10
831.981	5.19
832.153	1.91
832.324	-4.02
832.496	-7.86
832.667	-7.18
832.839	-3.25
833.011	-5.66
833.182	0.79
833.354	6.49
833.525	10.16
833.697	11.57
833.868	12.79
834.039	13.67
834.211	13.24
834.382	14.64
834.554	14.28
834.725	15.37
834.896	15.45
835.068	17.72
835.239	17.12
835.41	13.46
835.581	13.4
835.753	14.24
835.924	12.21
836.095	9.85
836.266	10.7
836.438	9.84
836.609	7.33
836.78	4.1
836.951	2.35
837.122	1.25
837.293	-2.21
837.464	-1.12
837.635	-6.9
837.806	-1.58
837.977	4.99
838.148	-3.39
838.319	-12.07
838.49	-18.91
838.661	-11.3
838.832	-12.18
839.003	-15.89
839.174	-14.17
839.345	-15.93
839.516	-8.13
839.687	-13.68
839.857	-16.97
840.028	-10.92
840.199	5.23
840.37	9.58
840.54	15.98
840.711	15.82
840.882	19.7
841.053	29.94
841.223	36.57
841.394	22.79
841.564	14.98
841.735	4.23
841.906	9.15
842.076	1.25
842.247	-4.35
842.417	-18.49
842.588	-23.08
842.758	-48.56
842.929	-43.89
843.099	-49.25
843.27	-61.17
843.44	-53.05
843.611	-40.82
843.781	-70.39
843.951	-82.12
844.122	-82.24
844.292	-68.94
844.462	-80.72
844.633	-66.22
844.803	-80.16
844.973	-123.98
845.144	-111.55
845.314	-112.68
845.484	-124.74
845.654	-60.45
845.824	-44.39
845.995	-33.61
846.165	-53.14
846.335	-30.25
846.505	-29.31
846.675	-46.49
846.845	-36.01
847.015	-32.59
847.185	-38.79
847.355	-25.72
847.525	-63.1
847.695	-79.94
847.865	-132.96
848.035	-158.47
848.205	-256.29
848.375	-203.48
848.545	-227.42
848.715	-421.77
848.884	-673.42
849.054	-288.71
849.224	-412.11
849.394	-247.76
849.564	-281.8
849.733	-262.66
849.903	-186.59
850.073	-188.69
850.243	-316.93
850.412	-122.14
850.582	-109.08
850.752	-57.26
850.921	-48.58
851.091	-75.81
851.26	-95
851.43	-134.43
851.599	-90.02
851.769	-53.85
851.939	-47.73
852.108	-66.86
852.278	-93.64
852.447	-73.74
852.616	-75.96
852.786	-137.17
852.955	-52.35
853.125	-99.17
853.294	-71.63
853.463	-125.37
853.633	-262.43
853.802	222.15
853.971	304.44
854.141	1722.38
854.31	-321.22
854.479	-115.06
854.648	-101.95
854.818	-158.63
854.987	-273.94
855.156	-198.21
855.325	-165.93
855.494	-151.13
855.663	-78.19
855.832	-55.78
856.001	-89.85
856.171	-88.03
856.34	-146.11
856.509	-133.57
856.678	-312.73
856.847	-158.83
857.016	-180.4
857.185	-127.14
857.353	-146.24
857.522	-133.43
857.691	-134.94
857.86	-141.04
858.029	-118.86
858.198	-102.36
858.367	-224.81
858.535	-149
858.704	-257.22
858.873	-244.6
859.042	-249.29
859.21	-340.64
859.379	-450.18
859.548	-1029.01
859.717	-936.88
859.885	-2349.47
860.054	1680.04
860.222	1649.25
860.391	-1622.85
860.56	-488.55
860.728	-485.51
860.897	-437.54
861.065	-366.47
861.234	-282.42
861.402	-295.79
861.571	-261.15
861.739	-356.83
861.908	-397.8
862.076	-276.14
862.244	-162.37
862.413	-369.78
862.581	-369.19
862.749	40863.33
862.918	1121.14
863.086	1267.7
863.254	-995.01
863.423	4303.79
863.591	-703.53
863.759	-358.04
863.927	-428.04
864.096	-855.53
864.264	-370.76
864.432	-1072.57
864.6	-422.31
864.768	-339.37
864.936	-454.9
865.104	-956.06
865.272	-968.45
865.44	2750.12
865.608	686.35
865.776	-7696.83
865.944	618.63
866.112	445.08
866.28	736.56
866.448	525.53
866.616	394.21
866.784	1133.96
866.952	-1119.58
867.12	-1042.1
867.288	-494.26
867.455	-298.74
867.623	-393.8
867.791	-316.81
867.959	-245.71
868.127	-160.63
868.294	-194.87
868.462	-300.88
868.63	-422.57
868.797	-2669.42
868.965	-688.28
869.133	-1129.34
869.3	4661.35
869.468	914.01
869.636	951.01
869.803	542.54
869.971	267.72
870.138	288.89
870.306	299.55
870.473	267.57
870.641	344.84
870.808	407.34
870.975	383.33
871.143	334.88
871.31	306.48
871.478	283.89
871.645	296.17
871.812	303.71
871.98	299.47
872.147	340.98
872.314	571.15
872.482	269.66
872.649	183.82
872.816	171.61
872.983	156.03
873.15	174.28
873.318	200.24
873.485	248.14
873.652	339.39
873.819	626.84
873.986	787.12
874.153	946.22
874.32	723.93
874.487	716.75
874.654	2056.56
874.821	-660.02
874.988	-3533.98
875.155	-798.82
875.322	-1518.66
875.489	-628.74
875.656	-1415.2
875.823	-2817.69
875.99	2772.06
876.157	-1394.05
876.324	-1488.29
876.49	-660.66
876.657	38697.67
876.824	706.95
876.991	831.07
877.157	1161.51
877.324	979.25
877.491	496.04
877.658	718.31
877.824	843.4
877.991	752.89
878.157	760.78
878.324	503.12
878.491	945.16
878.657	-240.66
878.824	-496.98
878.99	9160.19
879.157	625.54
879.323	-2697.08
879.49	-466.38
879.656	-1079.34
879.823	-411.91
879.989	-584.56
880.156	6130.53
880.322	-3707.41
880.488	-1581.51
880.655	-1602.59
880.821	-319.87
880.987	-239.97
881.154	-179.86
881.32	-234.04
881.486	-128.27
881.652	-143.77
881.819	-70.78
881.985	-49.69
882.151	-19.39
882.317	-12.37
882.483	-7.08
882.649	-1.55
882.816	-1.13
882.982	8.56
883.148	14.08
883.314	22.59
883.48	20.74
883.646	19
883.812	20.59
883.978	19.06
884.144	16.39
884.31	16.18
884.476	15.05
884.642	17.46
884.807	15.76
884.973	14.23
885.139	5.86
885.305	6.41
885.471	9.69
885.637	2.19
885.802	1.23
885.968	6.12
886.134	3.41
886.3	0.08
886.465	-10.27
886.631	-12.31
886.797	-15.81
886.962	-19.92
887.128	-22.91
887.293	-34.27
887.459	-22.27
887.625	-41.45
887.79	-80.72
887.956	-94.27
888.121	-74.11
888.287	-60.69
888.452	-95.21
888.618	-98.47
888.783	-73.5
