Data from 2937809_Reflection_1.txt Node
Date: Wed Jul 15 17:50:49 EDT 2015
User: robert
Spectrometer: USB4E03001
Autoset integration time: false
Trigger mode: 4
Integration Time (sec): 1.000000E-1
Scans to average: 10
Electric dark correction enabled: true
Nonlinearity correction enabled: false
Boxcar width: 5
Stray light correction enabled: false
XAxis mode: Wavelengths
Stop averaging: false
Number of Pixels in Spectrum: 3648
>>>>>Begin Spectral Data<<<<<
177.566	185.68
177.785	418.67
178.005	152.81
178.225	-247.67
178.445	552.09
178.665	668.93
178.885	1270.09
179.105	174.77
179.324	167.51
179.544	119.98
179.764	108.76
179.984	129.36
180.204	133.67
180.423	84.44
180.643	35.73
180.863	12.89
181.083	43.75
181.302	45.93
181.522	138.34
181.742	139.06
181.961	-16840
182.181	-192.67
182.401	-80.84
182.621	-415.85
182.84	-107.57
183.06	-84.37
183.279	-51.52
183.499	-84.32
183.719	-90.73
183.938	-98.67
184.158	-191.65
184.377	-180.15
184.597	-617.41
184.816	1163.79
185.036	665.68
185.256	134.16
185.475	126.53
185.695	130.86
185.914	116.58
186.134	88.15
186.353	92.89
186.572	84.77
186.792	77.51
187.011	43.47
187.231	71.6
187.45	84.98
187.67	129.85
187.889	227.09
188.108	76.3
188.328	82.84
188.547	107.05
188.766	46.78
188.986	57.69
189.205	64.58
189.424	87.18
189.644	78.14
189.863	67.68
190.082	82.55
190.302	68.97
190.521	61.98
190.74	34.51
190.959	19.19
191.178	153.38
191.398	613.69
191.617	198.34
191.836	162.41
192.055	109.59
192.274	97.13
192.494	57.57
192.713	44.6
192.932	135.96
193.151	165.47
193.37	142.62
193.589	145.02
193.808	96.4
194.027	101.99
194.246	141.54
194.465	227.91
194.685	316.49
194.904	334.38
195.123	332.93
195.342	543.17
195.561	385.49
195.78	-3370.18
195.999	1223.81
196.218	-581.86
196.436	-954.89
196.655	-485.1
196.874	-253.22
197.093	-452.85
197.312	-391.88
197.531	-397.99
197.75	167.42
197.969	167.83
198.188	149.69
198.407	146.91
198.625	127.79
198.844	115.77
199.063	118.54
199.282	125.53
199.501	104.18
199.719	112
199.938	115.53
200.157	126.84
200.376	128.78
200.594	119
200.813	106.23
201.032	75.37
201.251	70.61
201.469	90.8
201.688	90.26
201.907	-47.84
202.125	-112.64
202.344	-717.18
202.563	-411.81
202.781	-320.53
203	-690.09
203.218	-835.96
203.437	6481.62
203.656	236.1
203.874	267.88
204.093	271.22
204.311	190.91
204.53	148.96
204.748	114.12
204.967	86.58
205.185	101.44
205.404	97.04
205.622	97.34
205.841	43.24
206.059	102.36
206.278	88.89
206.496	-1066.67
206.715	95.11
206.933	144.28
207.151	890.6
207.37	13.66
207.588	152.5
207.806	28.64
208.025	71.9
208.243	271.15
208.461	278.86
208.68	239.1
208.898	439.52
209.116	971.87
209.335	-284.63
209.553	-477.69
209.771	-660.8
209.989	2157.05
210.208	-293.87
210.426	-302.05
210.644	6725.45
210.862	2129.46
211.081	435.37
211.299	249.93
211.517	-1027.93
211.735	16862.5
211.953	361.03
212.171	339.33
212.39	824.46
212.608	590.11
212.826	741.87
213.044	-104
213.262	-246.1
213.48	-4322.52
213.698	-1564.32
213.916	490.6
214.134	272.11
214.352	522.84
214.57	-5174.49
214.788	-2328.37
215.006	5415.46
215.224	1706.02
215.442	323.82
215.66	358.72
215.878	467.08
216.096	-524.41
216.314	-55.36
216.532	-8.04
216.75	16.15
216.968	-99.25
217.185	-35.19
217.403	-57.47
217.621	-52.42
217.839	-4.88
218.057	-15.06
218.275	-45.26
218.492	-224.82
218.71	585.38
218.928	402.89
219.146	385
219.363	416.78
219.581	264.44
219.799	638.71
220.017	2026.89
220.234	-2693.79
220.452	-4157.92
220.67	2277.36
220.887	-543.32
221.105	-273.22
221.323	-65.44
221.54	-92.54
221.758	-134.25
221.976	-1205.18
222.193	425.87
222.411	236.43
222.629	274.37
222.846	258.44
223.064	212.82
223.281	225.93
223.499	232.99
223.716	170.31
223.934	164.19
224.151	152.61
224.369	136.72
224.586	117.94
224.804	169.88
225.021	162.98
225.239	89.88
225.456	117.63
225.674	137.9
225.891	156.18
226.108	221.47
226.326	189.84
226.543	3232.24
226.76	-185.12
226.978	-46.7
227.195	-78.19
227.413	-67.38
227.63	-40.23
227.847	-30.68
228.064	-20.83
228.282	-3.28
228.499	1.48
228.716	-4.88
228.934	-0.19
229.151	-4.86
229.368	-10.94
229.585	-10.47
229.802	-9.19
230.02	-13.71
230.237	-12.15
230.454	-15
230.671	-26.31
230.888	-49.6
231.105	-38.08
231.323	-57.47
231.54	-46.06
231.757	-41.59
231.974	-47.67
232.191	-63.11
232.408	-51.71
232.625	-49.98
232.842	-49.74
233.059	-61.5
233.276	-33.72
233.493	-65.2
233.71	-38.87
233.927	-36.96
234.144	-7.84
234.361	-15.78
234.578	1.2
234.795	-10.27
235.012	-3.72
235.229	-17.68
235.446	-10.04
235.663	-10.21
235.879	4.33
236.096	-3.42
236.313	-18.84
236.53	-38.26
236.747	-24.81
236.964	-34.43
237.181	-33.49
237.397	-46.84
237.614	-36.08
237.831	-18.28
238.048	-32.74
238.264	-52.12
238.481	-50.97
238.698	-31.65
238.915	-24.5
239.131	-23.78
239.348	-14.51
239.565	-4.76
239.781	-2.8
239.998	-1.68
240.215	-4.42
240.431	6.9
240.648	7.69
240.865	12.23
241.081	14.32
241.298	13.2
241.514	13.29
241.731	8.78
241.947	7.3
242.164	6.89
242.38	8.97
242.597	8.52
242.814	6.63
243.03	6.73
243.246	8.63
243.463	10.48
243.679	12.56
243.896	12.15
244.112	13.81
244.329	13.14
244.545	14.57
244.762	14.13
244.978	10.74
245.194	13.44
245.411	14.03
245.627	11.13
245.843	10.72
246.06	11.68
246.276	13.6
246.492	12.69
246.709	12.35
246.925	12.59
247.141	13.25
247.357	13.59
247.574	14.69
247.79	15.32
248.006	16.73
248.222	17.12
248.439	16.86
248.655	14.16
248.871	14.98
249.087	14.93
249.303	16.46
249.519	16.47
249.736	15.7
249.952	13.29
250.168	10.99
250.384	8.28
250.6	5.41
250.816	4.86
251.032	10.15
251.248	9.41
251.464	10.31
251.68	4.92
251.896	6.08
252.112	11.11
252.328	7.07
252.544	7.41
252.76	9.05
252.976	11.68
253.192	8.42
253.408	5.68
253.624	7.04
253.84	8.41
254.056	12.83
254.272	10.82
254.487	10.68
254.703	15.36
254.919	12.73
255.135	9.34
255.351	6.22
255.567	9.71
255.782	14.41
255.998	11.36
256.214	9.43
256.43	6.02
256.646	4.31
256.861	-2.57
257.077	-5.28
257.293	-4.11
257.508	-3.44
257.724	-6.75
257.94	-8.26
258.155	-6.54
258.371	-7.06
258.587	-4.7
258.802	-3.88
259.018	-0.17
259.234	2.74
259.449	3.3
259.665	7.14
259.88	8.85
260.096	10.63
260.312	12.1
260.527	11.55
260.743	12.64
260.958	12.28
261.174	12.53
261.389	10.46
261.605	10.97
261.82	12.34
262.036	11.65
262.251	9.26
262.466	8.35
262.682	6.47
262.897	5.86
263.113	4.69
263.328	5.85
263.543	6.26
263.759	9.82
263.974	11.96
264.189	14.38
264.405	11.55
264.62	12.72
264.835	13.05
265.051	13.49
265.266	13.83
265.481	14.8
265.696	11.97
265.912	12.82
266.127	11.93
266.342	8.82
266.557	4.88
266.773	5.38
266.988	5.74
267.203	4.87
267.418	4.96
267.633	4.27
267.848	3.88
268.064	4.78
268.279	6.41
268.494	5.41
268.709	4.41
268.924	5.54
269.139	7.16
269.354	7.7
269.569	6.59
269.784	4.79
269.999	4.08
270.214	4.97
270.429	4.5
270.644	1.45
270.859	4.45
271.074	7.76
271.289	6.77
271.504	4.67
271.719	6.75
271.934	8.68
272.149	9.87
272.363	10.42
272.578	9.72
272.793	9.92
273.008	10.05
273.223	8.28
273.438	6.52
273.653	11.37
273.867	13.06
274.082	9.49
274.297	9.91
274.512	6.89
274.726	8.23
274.941	8.44
275.156	9.57
275.371	12.2
275.585	15.55
275.8	15.99
276.015	10.91
276.229	7.07
276.444	8.67
276.659	7.88
276.873	11.51
277.088	11.05
277.302	11.36
277.517	10.45
277.732	5.61
277.946	0.68
278.161	-1.24
278.375	-1.28
278.59	-0.54
278.804	-1.89
279.019	-4.14
279.233	-5.2
279.448	-5.26
279.662	0.2
279.877	2.08
280.091	5.85
280.306	7.72
280.52	10.59
280.735	9.57
280.949	9.6
281.163	10.81
281.378	10.78
281.592	9.63
281.806	10.05
282.021	6.46
282.235	4.33
282.449	4.23
282.664	2.68
282.878	4.76
283.092	7.28
283.307	8.35
283.521	8.21
283.735	10.69
283.949	11.29
284.164	10.96
284.378	10.66
284.592	12.54
284.806	13.61
285.02	13.4
285.234	10.63
285.449	10.08
285.663	8.93
285.877	9.14
286.091	7.63
286.305	8.75
286.519	8.28
286.733	8.91
286.947	5.76
287.161	4.69
287.375	7.18
287.589	7.11
287.803	5.66
288.017	6.81
288.231	6.12
288.445	7.02
288.659	5.62
288.873	4.2
289.087	2.25
289.301	6.72
289.515	8.25
289.729	8.96
289.943	9.72
290.157	10.83
290.371	11.21
290.584	11.4
290.798	13.69
291.012	15.89
291.226	18.36
291.44	19.24
291.654	16.87
291.867	15.62
292.081	14.24
292.295	16.57
292.509	17.17
292.722	16.43
292.936	14.74
293.15	13.93
293.364	11.82
293.577	8.75
293.791	10.29
294.005	11.06
294.218	13.39
294.432	13.85
294.645	11.25
294.859	12.54
295.073	14.04
295.286	16.31
295.5	13.81
295.713	15.36
295.927	15.99
296.14	17.07
296.354	17.25
296.568	16.16
296.781	16.35
296.994	17.01
297.208	15.26
297.421	15.17
297.635	12.97
297.848	12.64
298.062	12.86
298.275	14.32
298.489	13.35
298.702	13.92
298.915	15.12
299.129	12.77
299.342	10.73
299.555	10.96
299.769	10.11
299.982	12.61
300.195	12.36
300.409	11.14
300.622	9
300.835	7.73
301.048	4.77
301.262	2.15
301.475	4.44
301.688	4.51
301.901	4.41
302.115	4.07
302.328	2.05
302.541	4.17
302.754	0.21
302.967	3.74
303.18	4.1
303.393	7.15
303.607	7.78
303.82	9
304.033	9.25
304.246	11
304.459	10.19
304.672	12.73
304.885	13.4
305.098	17.38
305.311	13.33
305.524	11.82
305.737	10.34
305.95	10.83
306.163	9.7
306.376	10.54
306.589	8.93
306.802	11.02
307.015	10.39
307.228	7.44
307.44	9.49
307.653	11.31
307.866	13.67
308.079	13.6
308.292	13.76
308.505	12.28
308.718	10.07
308.93	9.97
309.143	8.65
309.356	9.6
309.569	10.13
309.781	8.92
309.994	7.43
310.207	7.64
310.42	9.07
310.632	9.49
310.845	10.67
311.058	11.58
311.27	9.83
311.483	9.1
311.696	8.11
311.908	8.02
312.121	6.57
312.333	6.92
312.546	7.09
312.759	4.22
312.971	1.31
313.184	-1.1
313.396	-2.94
313.609	-3.83
313.821	-1.29
314.034	-3.73
314.246	-3.8
314.459	-5.02
314.671	-5.94
314.884	-10.56
315.096	-6.35
315.309	-5.36
315.521	-1.74
315.733	0.16
315.946	4.02
316.158	0.81
316.371	0.65
316.583	-0
316.795	1.05
317.008	3.4
317.22	5.87
317.432	2.9
317.644	4.08
317.857	0.44
318.069	-3.36
318.281	-1.87
318.494	-0.5
318.706	1.83
318.918	2.1
319.13	4.94
319.342	4.01
319.555	5.56
319.767	8.73
319.979	9.63
320.191	11.03
320.403	14
320.615	13.99
320.827	13.32
321.039	10.19
321.252	12.3
321.464	8.32
321.676	8.86
321.888	6.38
322.1	4.26
322.312	3.31
322.524	3.3
322.736	2.54
322.948	1.72
323.16	2.17
323.372	4.34
323.584	2.65
323.796	4.36
324.007	4.59
324.219	5.71
324.431	6.64
324.643	6.73
324.855	7.15
325.067	8.25
325.279	7.6
325.491	8.39
325.702	7.36
325.914	7.76
326.126	6.51
326.338	8.38
326.55	8.03
326.761	6.91
326.973	6.68
327.185	4.49
327.396	2.3
327.608	1.45
327.82	0.1
328.032	0.4
328.243	0.87
328.455	-0.77
328.666	-3.72
328.878	-0.3
329.09	0.1
329.301	0.47
329.513	0.88
329.725	3.08
329.936	3.73
330.148	2.22
330.359	3.78
330.571	3.83
330.782	6.73
330.994	8.43
331.205	7.86
331.417	7.34
331.628	5.79
331.84	7.08
332.051	7.95
332.262	7.56
332.474	11.65
332.685	8.7
332.897	8.08
333.108	7.22
333.319	4.68
333.531	3.22
333.742	4.24
333.953	4.48
334.165	6.31
334.376	7.86
334.587	5.92
334.799	6.42
335.01	9.96
335.221	10.43
335.432	10.36
335.644	10.96
335.855	9.98
336.066	6.54
336.277	6.23
336.488	4.85
336.7	2.91
336.911	3.44
337.122	1.62
337.333	0.23
337.544	-0.36
337.755	0.78
337.966	1.37
338.177	2.64
338.388	4.58
338.599	6.02
338.811	7.75
339.022	8.26
339.233	8.68
339.444	9.33
339.655	10.08
339.866	10.79
340.076	9.12
340.287	8.48
340.498	7.35
340.709	8.39
340.92	9.57
341.131	7.6
341.342	5.74
341.553	6.71
341.764	6.31
341.975	5.76
342.185	4.54
342.396	5.5
342.607	7.05
342.818	7.22
343.029	7.76
343.239	8.61
343.45	7.79
343.661	10.3
343.872	10.36
344.082	10.5
344.293	11.44
344.504	12.35
344.714	12.81
344.925	12.64
345.136	13.88
345.346	14.46
345.557	13.68
345.768	14.52
345.978	14.32
346.189	13.58
346.399	13.98
346.61	13.03
346.821	13.92
347.031	13.85
347.242	12.38
347.452	10.21
347.663	8.11
347.873	4.93
348.084	3.45
348.294	2.13
348.504	3.17
348.715	3.33
348.925	3.7
349.136	3.47
349.346	4
349.557	3.83
349.767	4.61
349.977	5.83
350.188	7.36
350.398	9.26
350.608	8.54
350.819	10.68
351.029	8.33
351.239	9.83
351.449	7.6
351.66	4.62
351.87	4.47
352.08	4.9
352.29	3.73
352.501	3.11
352.711	4.31
352.921	7.78
353.131	6.06
353.341	7.42
353.552	6.98
353.762	7.29
353.972	8.86
354.182	9.36
354.392	9.41
354.602	11.68
354.812	14.85
355.022	12.13
355.232	8.23
355.442	8.47
355.652	8.61
355.862	8.58
356.072	9.56
356.282	10.27
356.492	11.14
356.702	10.92
356.912	9.48
357.122	8.28
357.332	9.98
357.542	11.1
357.752	11.11
357.962	12.41
358.171	11.38
358.381	10.58
358.591	10.11
358.801	9.05
359.011	9.17
359.221	10.1
359.43	8.65
359.64	7.86
359.85	7.64
360.06	7.15
360.269	6.32
360.479	6.53
360.689	6.6
360.899	6.81
361.108	7.05
361.318	7
361.528	5.92
361.737	6.8
361.947	6.86
362.156	6.72
362.366	6.79
362.576	6.69
362.785	7.27
362.995	7.57
363.204	7.34
363.414	7.13
363.623	7.21
363.833	7.67
364.042	7.28
364.252	7.98
364.461	8.08
364.671	7.93
364.88	7.46
365.09	6.46
365.299	6.15
365.509	6.6
365.718	6.01
365.927	6.35
366.137	6.37
366.346	7.24
366.555	6.14
366.765	4.38
366.974	4.23
367.183	3.18
367.393	3.93
367.602	4.05
367.811	4.3
368.021	5.52
368.23	4.13
368.439	4.11
368.648	3.23
368.857	3.5
369.067	5.59
369.276	5.02
369.485	6.05
369.694	5.86
369.903	5.19
370.112	3.46
370.321	2.12
370.531	3.56
370.74	3.27
370.949	2.77
371.158	2.59
371.367	2.73
371.576	3.19
371.785	4.03
371.994	3.41
372.203	3.68
372.412	3.51
372.621	5.17
372.83	4.95
373.039	4.94
373.248	5.98
373.457	6.2
373.666	5.64
373.874	5.86
374.083	5.11
374.292	5.42
374.501	5.49
374.71	6.66
374.919	6.25
375.128	5.85
375.336	5.72
375.545	4.42
375.754	4.26
375.963	4.45
376.171	4.87
376.38	5.41
376.589	6.5
376.798	7.01
377.006	6.37
377.215	6.52
377.424	7.31
377.632	6.81
377.841	6.82
378.05	6.22
378.258	6.38
378.467	5.96
378.675	5.08
378.884	4.46
379.093	3.92
379.301	4.43
379.51	4.11
379.718	3.39
379.927	4.62
380.135	5.3
380.344	5.54
380.552	4.98
380.761	3.99
380.969	4.23
381.177	4.09
381.386	4.71
381.594	4.74
381.803	4.28
382.011	4.49
382.219	3.28
382.428	2.91
382.636	3.66
382.845	3.62
383.053	3.61
383.261	2.95
383.469	2.36
383.678	2.38
383.886	2.73
384.094	2.92
384.302	2.65
384.511	3.04
384.719	3.47
384.927	3.01
385.135	3.11
385.343	3.79
385.552	4.82
385.76	4.99
385.968	4.57
386.176	4.04
386.384	4.78
386.592	5.04
386.8	5.38
387.008	5.26
387.216	5.61
387.424	5.54
387.633	5.46
387.841	4.79
388.049	4.88
388.257	4.79
388.465	4.75
388.672	4.03
388.88	4.02
389.088	3.63
389.296	3.65
389.504	3.52
389.712	3.5
389.92	3.58
390.128	4.19
390.336	3.9
390.544	3.91
390.751	3.89
390.959	3.75
391.167	3.74
391.375	3.55
391.583	3.95
391.79	3.67
391.998	3.55
392.206	3.6
392.414	3.29
392.621	3.54
392.829	3.7
393.037	3.62
393.244	3.54
393.452	3.26
393.66	3.58
393.867	3.32
394.075	3.5
394.283	3.56
394.49	3.22
394.698	3.36
394.905	3.29
395.113	3.75
395.32	3.66
395.528	3.52
395.735	3.92
395.943	3.57
396.15	3.2
396.358	2.62
396.565	3.08
396.773	3.32
396.98	3.02
397.188	3.04
397.395	2.29
397.602	2.44
397.81	2.93
398.017	2.8
398.225	3.08
398.432	3.18
398.639	3.84
398.847	3.33
399.054	3.23
399.261	3.49
399.468	3.34
399.676	3.32
399.883	3.61
400.09	3.64
400.297	3.65
400.505	3.46
400.712	3.43
400.919	3.59
401.126	3.62
401.333	3.7
401.54	3.61
401.748	3.54
401.955	3.49
402.162	3.54
402.369	3.4
402.576	3.29
402.783	3.35
402.99	3.26
403.197	3.07
403.404	3.52
403.611	3.65
403.818	3.38
404.025	3.54
404.232	3.55
404.439	3.35
404.646	3.18
404.853	3.47
405.06	4.07
405.267	4.25
405.474	4.21
405.681	3.98
405.887	3.97
406.094	4.1
406.301	3.89
406.508	4.22
406.715	4.24
406.922	4.31
407.128	4.01
407.335	3.45
407.542	3.1
407.749	3.13
407.955	3.12
408.162	3.28
408.369	3.73
408.575	3.82
408.782	3.79
408.989	3.53
409.195	3.59
409.402	3.58
409.609	3.41
409.815	3.89
410.022	3.99
410.228	4.21
410.435	3.65
410.642	3.59
410.848	3.79
411.055	3.88
411.261	4.16
411.468	4.27
411.674	4.34
411.881	4.35
412.087	4.49
412.294	4.04
412.5	3.79
412.706	3.98
412.913	3.48
413.119	3.33
413.326	2.86
413.532	3
413.738	3.05
413.945	2.88
414.151	2.75
414.357	2.2
414.564	2.26
414.77	2.36
414.976	2.48
415.182	2.95
415.389	2.96
415.595	3.32
415.801	3.14
416.007	2.94
416.214	2.86
416.42	3.28
416.626	3.21
416.832	3.33
417.038	3.3
417.244	3.41
417.45	3.35
417.657	3.35
417.863	3.54
418.069	3.7
418.275	3.99
418.481	4.39
418.687	4.14
418.893	4.32
419.099	4.45
419.305	4.35
419.511	4.18
419.717	4.11
419.923	4.13
420.129	3.97
420.335	3.78
420.541	3.76
420.746	3.48
420.952	3.62
421.158	3.65
421.364	3.63
421.57	3.64
421.776	3.68
421.982	3.74
422.187	3.93
422.393	3.77
422.599	3.97
422.805	3.81
423.01	3.88
423.216	3.83
423.422	3.8
423.628	3.68
423.833	3.73
424.039	3.74
424.245	3.8
424.45	3.7
424.656	3.73
424.862	3.6
425.067	3.76
425.273	3.64
425.478	3.79
425.684	4.02
425.889	4.1
426.095	4.11
426.301	3.95
426.506	3.99
426.712	3.89
426.917	4.04
427.123	3.74
427.328	3.59
427.533	3.61
427.739	3.37
427.944	3.16
428.15	3.35
428.355	3.43
428.561	3.49
428.766	3.02
428.971	3.13
429.177	3.11
429.382	3.49
429.587	3.64
429.793	3.63
429.998	3.51
430.203	3.57
430.408	3.48
430.614	3.66
430.819	3.7
431.024	4.13
431.229	3.94
431.434	3.69
431.64	3.77
431.845	3.54
432.05	3.95
432.255	3.98
432.46	3.87
432.665	3.86
432.87	3.76
433.076	3.74
433.281	3.59
433.486	3.73
433.691	4.01
433.896	3.84
434.101	3.9
434.306	3.66
434.511	3.61
434.716	3.65
434.921	3.38
435.126	3.27
435.331	3.43
435.535	3.66
435.74	3.55
435.945	3.5
436.15	3.58
436.355	3.62
436.56	3.43
436.765	3.68
436.97	3.71
437.174	3.9
437.379	3.96
437.584	3.89
437.789	3.59
437.993	3.64
438.198	3.54
438.403	3.55
438.608	3.4
438.812	3.56
439.017	3.48
439.222	3.5
439.426	3.46
439.631	3.52
439.836	3.71
440.04	3.7
440.245	3.89
440.45	3.95
440.654	4.02
440.859	4.1
441.063	4.15
441.268	4.23
441.472	4.09
441.677	4.39
441.881	4.27
442.086	4.2
442.29	4.24
442.495	4.11
442.699	3.9
442.904	3.94
443.108	4.1
443.312	4.01
443.517	3.85
443.721	3.99
443.925	3.81
444.13	3.85
444.334	3.86
444.538	3.76
444.743	3.8
444.947	4.05
445.151	3.84
445.356	3.77
445.56	3.76
445.764	3.68
445.968	3.53
446.173	3.64
446.377	3.8
446.581	3.72
446.785	3.86
446.989	3.87
447.193	3.78
447.398	3.85
447.602	3.83
447.806	3.86
448.01	3.95
448.214	4.06
448.418	3.88
448.622	3.64
448.826	3.61
449.03	3.63
449.234	3.35
449.438	3.35
449.642	3.32
449.846	3.24
450.05	3.14
450.254	3.28
450.458	3.09
450.662	2.98
450.866	2.86
451.069	3.04
451.273	2.87
451.477	3.05
451.681	3.21
451.885	3.12
452.089	3.21
452.292	3.25
452.496	3.31
452.7	3.5
452.904	3.76
453.107	3.83
453.311	3.56
453.515	3.77
453.719	3.8
453.922	3.53
454.126	3.6
454.33	3.46
454.533	3.51
454.737	3.53
454.94	3.5
455.144	3.32
455.348	3.33
455.551	3.45
455.755	3.39
455.958	3.58
456.162	3.69
456.365	3.68
456.569	3.67
456.772	3.52
456.976	3.2
457.179	3.13
457.383	3.03
457.586	3.24
457.79	3.36
457.993	3.26
458.196	2.97
458.4	2.88
458.603	2.89
458.807	2.98
459.01	3.18
459.213	3.18
459.417	3.21
459.62	3.38
459.823	3.3
460.026	3.15
460.23	3.25
460.433	3.32
460.636	3.47
460.839	3.44
461.042	3.38
461.246	3.34
461.449	3.37
461.652	3.4
461.855	3.08
462.058	3.08
462.261	3.2
462.464	3.04
462.668	3.21
462.871	3.17
463.074	3.31
463.277	3.28
463.48	3.2
463.683	3.15
463.886	3.23
464.089	3.41
464.292	3.35
464.495	3.31
464.698	3.45
464.901	3.07
465.104	3.16
465.306	3
465.509	3.22
465.712	3.3
465.915	3.27
466.118	3.08
466.321	3.05
466.524	3.13
466.726	3.1
466.929	2.98
467.132	3.05
467.335	2.89
467.538	2.92
467.74	2.81
467.943	2.78
468.146	2.85
468.348	2.86
468.551	2.88
468.754	2.97
468.956	2.96
469.159	2.88
469.362	2.89
469.564	2.99
469.767	3.04
469.969	3.05
470.172	2.8
470.375	2.81
470.577	2.82
470.78	2.77
470.982	2.58
471.185	2.64
471.387	2.75
471.59	2.71
471.792	2.61
471.995	2.47
472.197	2.33
472.399	2.41
472.602	2.46
472.804	2.51
473.007	2.58
473.209	2.57
473.411	2.43
473.614	2.34
473.816	2.4
474.018	2.37
474.22	2.56
474.423	2.67
474.625	2.89
474.827	2.88
475.03	2.85
475.232	2.86
475.434	2.94
475.636	2.91
475.838	3.01
476.04	3.11
476.243	3.26
476.445	3.37
476.647	3.36
476.849	3.15
477.051	3.21
477.253	3.23
477.455	3.24
477.657	3.15
477.859	3.15
478.061	3.13
478.263	3.15
478.465	3.06
478.667	2.77
478.869	2.93
479.071	2.93
479.273	2.88
479.475	2.93
479.677	3.06
479.879	3.07
480.081	3.31
480.283	3.38
480.485	3.43
480.686	3.43
480.888	3.54
481.09	3.55
481.292	3.68
481.494	3.61
481.695	3.67
481.897	3.56
482.099	3.6
482.301	3.56
482.502	3.53
482.704	3.53
482.906	3.54
483.107	3.6
483.309	3.56
483.511	3.56
483.712	3.62
483.914	3.61
484.115	3.63
484.317	3.62
484.519	3.6
484.72	3.6
484.922	3.52
485.123	3.5
485.325	3.5
485.526	3.48
485.728	3.46
485.929	3.39
486.131	3.34
486.332	3.34
486.534	3.39
486.735	3.42
486.936	3.46
487.138	3.52
487.339	3.48
487.541	3.42
487.742	3.44
487.943	3.4
488.144	3.36
488.346	3.4
488.547	3.37
488.748	3.3
488.95	3.25
489.151	3.17
489.352	3.2
489.553	3.33
489.755	3.31
489.956	3.29
490.157	3.3
490.358	3.47
490.559	3.39
490.76	3.38
490.961	3.48
491.163	3.53
491.364	3.61
491.565	3.63
491.766	3.57
491.967	3.53
492.168	3.57
492.369	3.54
492.57	3.46
492.771	3.52
492.972	3.39
493.173	3.31
493.374	3.28
493.575	3.25
493.776	3.11
493.976	3.03
494.177	3.17
494.378	3.18
494.579	3.14
494.78	3.34
494.981	3.31
495.182	3.54
495.382	3.5
495.583	3.46
495.784	3.35
495.985	3.25
496.185	3.35
496.386	3.23
496.587	3.1
496.788	3.2
496.988	2.97
497.189	2.85
497.39	2.83
497.59	2.89
497.791	2.84
497.992	2.89
498.192	3.03
498.393	3
498.593	2.93
498.794	2.96
498.994	2.97
499.195	3.13
499.395	3.13
499.596	3.03
499.796	2.84
499.997	2.91
500.197	2.78
500.398	2.75
500.598	2.54
500.799	2.67
500.999	2.58
501.199	2.7
501.4	2.49
501.6	2.6
501.801	2.73
502.001	2.72
502.201	2.78
502.402	2.93
502.602	2.84
502.802	3.16
503.002	3.13
503.203	3.28
503.403	3.23
503.603	3.44
503.803	3.58
504.003	3.72
504.204	3.81
504.404	3.54
504.604	3.54
504.804	3.63
505.004	3.62
505.204	3.68
505.404	3.68
505.604	3.51
505.804	3.3
506.005	3.29
506.205	3.32
506.405	3.49
506.605	3.63
506.805	3.76
507.005	3.82
507.204	3.71
507.404	3.71
507.604	3.78
507.804	3.93
508.004	3.99
508.204	3.86
508.404	3.84
508.604	3.75
508.804	3.81
509.003	3.7
509.203	3.7
509.403	3.75
509.603	3.85
509.803	3.77
510.002	3.75
510.202	3.94
510.402	4
510.602	3.9
510.801	4
511.001	4.03
511.201	4.16
511.4	4.25
511.6	4.26
511.8	4.23
511.999	4.23
512.199	4.21
512.398	4.25
512.598	4.42
512.797	4.42
512.997	4.28
513.197	4.22
513.396	4.13
513.596	3.91
513.795	3.87
513.994	3.83
514.194	3.81
514.393	3.83
514.593	3.71
514.792	3.57
514.992	3.57
515.191	3.89
515.39	3.87
515.59	3.92
515.789	4.1
515.988	4.29
516.188	4.29
516.387	4.33
516.586	4.4
516.786	4.32
516.985	4.26
517.184	4.2
517.383	4.06
517.582	3.99
517.782	4.03
517.981	4.03
518.18	3.93
518.379	3.86
518.578	3.82
518.777	3.94
518.976	4.09
519.176	4.21
519.375	4.31
519.574	4.29
519.773	4.42
519.972	4.41
520.171	4.48
520.37	4.6
520.569	4.68
520.768	4.83
520.967	4.87
521.166	4.77
521.365	4.72
521.564	4.65
521.762	4.71
521.961	4.65
522.16	4.67
522.359	4.64
522.558	4.53
522.757	4.55
522.956	4.39
523.154	4.22
523.353	4.18
523.552	4.11
523.751	4.1
523.949	4.21
524.148	4.36
524.347	4.37
524.546	4.34
524.744	4.46
524.943	4.43
525.142	4.51
525.34	4.64
525.539	4.65
525.737	4.69
525.936	4.75
526.135	4.62
526.333	4.67
526.532	4.71
526.73	4.8
526.929	4.87
527.127	4.95
527.326	4.98
527.524	4.96
527.723	5.04
527.921	5.17
528.12	5.19
528.318	5.3
528.516	5.33
528.715	5.41
528.913	5.46
529.112	5.44
529.31	5.51
529.508	5.55
529.707	5.59
529.905	5.62
530.103	5.54
530.301	5.58
530.5	5.55
530.698	5.53
530.896	5.4
531.094	5.35
531.293	5.28
531.491	5.24
531.689	5.17
531.887	5.1
532.085	5.13
532.283	5.23
532.481	5.36
532.68	5.36
532.878	5.48
533.076	5.61
533.274	5.66
533.472	5.7
533.67	5.71
533.868	5.83
534.066	5.95
534.264	5.93
534.462	5.93
534.66	5.8
534.858	5.96
535.056	5.98
535.253	5.98
535.451	6.04
535.649	6.09
535.847	6.18
536.045	6.24
536.243	6.3
536.441	6.36
536.638	6.43
536.836	6.55
537.034	6.51
537.232	6.47
537.43	6.51
537.627	6.31
537.825	6.4
538.023	6.35
538.22	6.43
538.418	6.27
538.616	6.41
538.813	6.33
539.011	6.34
539.209	6.37
539.406	6.43
539.604	6.5
539.801	6.69
539.999	6.8
540.196	6.98
540.394	6.88
540.591	7.11
540.789	7.09
540.986	7.2
541.184	7.14
541.381	7.18
541.579	7.21
541.776	7.15
541.974	7.21
542.171	7.23
542.368	7.16
542.566	7.2
542.763	7.08
542.96	7.02
543.158	7.08
543.355	7.14
543.552	7.09
543.75	7.06
543.947	7.11
544.144	7.07
544.341	6.98
544.539	7.13
544.736	7.16
544.933	7.33
545.13	7.45
545.327	7.44
545.524	7.63
545.722	7.7
545.919	7.84
546.116	7.86
546.313	8.09
546.51	8.31
546.707	8.2
546.904	8.34
547.101	8.27
547.298	8.23
547.495	8.28
547.692	8.2
547.889	8.33
548.086	8.3
548.283	8.31
548.48	8.2
548.677	8.08
548.874	8.39
549.07	8.27
549.267	8.33
549.464	8.53
549.661	8.56
549.858	8.6
550.055	8.5
550.251	8.75
550.448	8.86
550.645	8.86
550.842	9.18
551.038	8.95
551.235	9.12
551.432	9.21
551.628	9.21
551.825	9.21
552.022	9.32
552.218	9.6
552.415	9.37
552.612	9.42
552.808	9.71
553.005	9.71
553.201	9.81
553.398	9.95
553.594	10.2
553.791	10.19
553.987	10.47
554.184	10.51
554.38	10.39
554.577	10.7
554.773	10.86
554.97	10.64
555.166	10.49
555.362	10.46
555.559	10.43
555.755	10.49
555.952	10.62
556.148	10.73
556.344	10.74
556.541	10.96
556.737	10.9
556.933	11.02
557.129	11.3
557.326	11.48
557.522	11.55
557.718	11.59
557.914	11.44
558.11	11.5
558.307	11.37
558.503	11.58
558.699	11.68
558.895	11.84
559.091	11.76
559.287	11.66
559.483	11.94
559.679	12.17
559.876	12.24
560.072	12.29
560.268	12.45
560.464	12.56
560.66	12.56
560.856	12.67
561.052	12.64
561.247	13
561.443	13.25
561.639	13.21
561.835	13.27
562.031	13.46
562.227	13.74
562.423	13.76
562.619	13.79
562.815	13.92
563.01	13.87
563.206	14.23
563.402	14.08
563.598	13.95
563.793	13.8
563.989	13.92
564.185	13.89
564.381	13.83
564.576	13.92
564.772	13.81
564.968	13.99
565.163	14.05
565.359	14.14
565.555	14.31
565.75	14.46
565.946	14.96
566.141	14.98
566.337	15.16
566.532	15.2
566.728	15.4
566.923	15.47
567.119	15.4
567.314	15.39
567.51	15.16
567.705	15.1
567.901	15.27
568.096	14.94
568.292	14.88
568.487	14.87
568.682	14.92
568.878	14.89
569.073	15.29
569.268	15.41
569.464	15.53
569.659	15.73
569.854	16.04
570.05	16.03
570.245	16.43
570.44	16.73
570.635	16.77
570.831	16.99
571.026	17.01
571.221	16.92
571.416	17
571.611	17.09
571.806	17.12
572.002	17.05
572.197	17.06
572.392	17.02
572.587	17.01
572.782	17.13
572.977	17.02
573.172	17.01
573.367	17.12
573.562	17.31
573.757	17.39
573.952	17.52
574.147	17.68
574.342	17.86
574.537	17.78
574.732	17.85
574.927	17.93
575.121	17.95
575.316	18.07
575.511	18.07
575.706	18
575.901	18.14
576.096	18.05
576.29	17.89
576.485	17.66
576.68	17.72
576.875	17.57
577.069	17.56
577.264	18.01
577.459	18.19
577.654	18.19
577.848	18.26
578.043	18.14
578.238	18.45
578.432	18.6
578.627	19.01
578.821	18.84
579.016	19.11
579.21	19.21
579.405	19
579.6	18.87
579.794	18.96
579.989	18.83
580.183	18.76
580.378	18.61
580.572	18.89
580.766	19.05
580.961	19.46
581.155	19.6
581.35	19.6
581.544	19.42
581.738	19.78
581.933	19.86
582.127	20.32
582.321	20.62
582.516	20.22
582.71	20.15
582.904	19.81
583.099	19.76
583.293	19.8
583.487	19.85
583.681	20.16
583.875	20.03
584.07	20.16
584.264	19.97
584.458	20.06
584.652	20.59
584.846	20.43
585.04	20.6
585.234	20.55
585.428	20.41
585.623	20.45
585.817	20.4
586.011	20.48
586.205	20.55
586.399	20.43
586.593	20.57
586.787	20.9
586.981	21.12
587.174	21.11
587.368	21.11
587.562	21.46
587.756	21.62
587.95	21.4
588.144	21.06
588.338	21.08
588.532	21
588.725	20.98
588.919	20.68
589.113	20.76
589.307	20.91
589.501	21.15
589.694	21.02
589.888	20.69
590.082	20.68
590.275	20.84
590.469	20.75
590.663	20.9
590.856	20.96
591.05	21.02
591.244	20.92
591.437	20.84
591.631	20.69
591.824	20.51
592.018	20.67
592.212	20.88
592.405	21.04
592.599	21.24
592.792	21.36
592.986	21.59
593.179	21.84
593.372	21.98
593.566	21.82
593.759	21.83
593.953	22.11
594.146	22.49
594.339	22.59
594.533	22.71
594.726	22.71
594.92	22.62
595.113	22.58
595.306	22.46
595.499	22.39
595.693	22.71
595.886	23.02
596.079	22.83
596.272	22.65
596.466	22.66
596.659	22.67
596.852	22.62
597.045	22.73
597.238	22.65
597.431	22.92
597.624	22.89
597.818	23.12
598.011	22.95
598.204	23
598.397	22.93
598.59	22.85
598.783	22.8
598.976	22.83
599.169	22.98
599.362	22.83
599.555	22.65
599.748	22.8
599.941	22.53
600.134	22.63
600.326	22.84
600.519	22.9
600.712	23.25
600.905	23.28
601.098	23.12
601.291	22.8
601.483	22.88
601.676	23.11
601.869	23.11
602.062	23.16
602.255	23.28
602.447	23.39
602.64	23.16
602.833	23.08
603.025	23.25
603.218	23.65
603.411	23.85
603.603	24.21
603.796	23.88
603.989	23.81
604.181	23.82
604.374	23.93
604.566	23.79
604.759	24.21
604.951	24.17
605.144	24.02
605.336	24.05
605.529	24.14
605.721	24.2
605.914	24.22
606.106	24.65
606.299	24.82
606.491	24.68
606.683	24.93
606.876	24.74
607.068	24.8
607.26	25.05
607.453	24.75
607.645	24.77
607.837	24.53
608.03	24.95
608.222	24.75
608.414	24.72
608.606	24.64
608.799	24.46
608.991	24.66
609.183	24.79
609.375	24.67
609.567	24.72
609.759	24.86
609.952	25.01
610.144	24.87
610.336	24.79
610.528	24.6
610.72	24.76
610.912	24.82
611.104	24.72
611.296	24.52
611.488	24.28
611.68	24.25
611.872	23.94
612.064	23.69
612.256	23.86
612.448	23.95
612.64	24.19
612.832	24.18
613.023	24.06
613.215	23.91
613.407	24.17
613.599	24.79
613.791	24.76
613.983	24.99
614.174	25.22
614.366	24.93
614.558	24.69
614.75	24.4
614.941	24.39
615.133	24.65
615.325	24.85
615.516	24.54
615.708	24.53
615.9	24.68
616.091	24.55
616.283	24.48
616.475	24.6
616.666	24.72
616.858	25.07
617.049	25.05
617.241	24.99
617.432	25.11
617.624	25.35
617.815	25.01
618.007	25.09
618.198	24.85
618.39	24.61
618.581	24.92
618.773	24.79
618.964	24.7
619.155	24.66
619.347	24.54
619.538	24.62
619.729	24.33
619.921	24.4
620.112	24.49
620.303	24.99
620.494	25.07
620.686	24.33
620.877	24.38
621.068	24.24
621.259	24.36
621.451	24.35
621.642	24.14
621.833	24.4
622.024	24.81
622.215	24.54
622.406	24.31
622.597	24.5
622.788	24.91
622.98	25.1
623.171	25.42
623.362	25.35
623.553	25.38
623.744	25.45
623.935	25.51
624.126	25
624.317	25.24
624.508	25.38
624.698	25.58
624.889	25.45
625.08	25.19
625.271	24.81
625.462	25.15
625.653	25.16
625.844	25.18
626.034	25.38
626.225	25.54
626.416	25.51
626.607	25.66
626.798	25.51
626.988	26.19
627.179	26.47
627.37	26.78
627.56	26.63
627.751	26.91
627.942	26.74
628.132	26.67
628.323	26.84
628.514	27.06
628.704	26.96
628.895	27.16
629.085	26.44
629.276	26.37
629.466	26.6
629.657	26.79
629.847	26.79
630.038	27.32
630.228	27.24
630.419	26.94
630.609	26.79
630.8	27.03
630.99	26.92
631.181	26.86
631.371	26.84
631.561	26.51
631.752	26.16
631.942	26.25
632.132	26.13
632.323	26.62
632.513	26.85
632.703	26.97
632.893	26.65
633.084	26.93
633.274	27.68
633.464	27.61
633.654	27.79
633.844	27.64
634.034	27.57
634.225	27.58
634.415	26.91
634.605	26.84
634.795	27.17
634.985	27.62
635.175	27.45
635.365	26.65
635.555	26.7
635.745	26.82
635.935	26.95
636.125	26.37
636.315	26.28
636.505	26.71
636.695	26.89
636.885	26.48
637.075	26.18
637.265	26.01
637.455	26.9
637.644	27.06
637.834	27.03
638.024	27.42
638.214	27.94
638.404	27.97
638.593	27.92
638.783	27.99
638.973	28.27
639.163	28.47
639.352	28.74
639.542	27.86
639.732	27.78
639.921	27.51
640.111	27.42
640.301	27.41
640.49	27.21
640.68	27.52
640.87	27.21
641.059	26.76
641.249	26.67
641.438	26.59
641.628	26.6
641.817	27.27
642.007	27.32
642.196	27.23
642.386	27.42
642.575	27.57
642.764	27.33
642.954	27.74
643.143	28.3
643.333	28.3
643.522	28.13
643.711	28.66
643.901	28.53
644.09	28.37
644.279	28.34
644.469	27.87
644.658	27.54
644.847	27.54
645.036	27.43
645.226	26.96
645.415	26.89
645.604	26.98
645.793	26.62
645.982	26.21
646.171	25.95
646.361	26.12
646.55	26.89
646.739	27.33
646.928	27.28
647.117	26.98
647.306	27.22
647.495	27.71
647.684	27.76
647.873	27.96
648.062	27.98
648.251	28.44
648.44	28.38
648.629	27.71
648.818	27.64
649.007	27.83
649.196	28.23
649.384	28.07
649.573	27.41
649.762	27.34
649.951	27.72
650.14	28
650.328	28.03
650.517	28.32
650.706	28.75
650.895	29
651.083	28.84
651.272	28.61
651.461	28.6
651.65	28.64
651.838	28.99
652.027	28.68
652.216	28.54
652.404	28.25
652.593	28.13
652.781	28.47
652.97	28.51
653.158	28.61
653.347	28.84
653.535	28.69
653.724	28.85
653.912	28.84
654.101	29.08
654.289	28.69
654.478	29.32
654.666	29.06
654.855	28.76
655.043	28.93
655.231	28.85
655.42	28.61
655.608	29.11
655.796	28.78
655.985	28.78
656.173	28.64
656.361	28.86
656.55	28.29
656.738	28.58
656.926	28.24
657.114	27.78
657.302	28.57
657.491	28.6
657.679	28.4
657.867	28.91
658.055	29.01
658.243	29.19
658.431	29.33
658.619	29.33
658.807	29.38
658.996	29.61
659.184	29.55
659.372	29.51
659.56	29.6
659.748	29.7
659.936	29.7
660.124	29.47
660.311	29.74
660.499	30
660.687	30.35
660.875	30.36
661.063	30.67
661.251	31.1
661.439	30.81
661.627	30.8
661.814	30.55
662.002	30.45
662.19	30.41
662.378	30.06
662.565	29.57
662.753	29.33
662.941	29.04
663.129	28.57
663.316	28.21
663.504	27.87
663.692	27.89
663.879	27.95
664.067	28.03
664.254	28.18
664.442	28.22
664.63	28.63
664.817	29.1
665.005	29.4
665.192	29.23
665.38	29.52
665.567	29.28
665.755	29.55
665.942	29.55
666.13	29.14
666.317	29.13
666.504	29.33
666.692	28.98
666.879	28.33
667.067	28.27
667.254	28.13
667.441	28.07
667.629	28.11
667.816	27.79
668.003	27.94
668.19	27.74
668.378	28.01
668.565	27.74
668.752	27.87
668.939	28.2
669.127	27.9
669.314	28.44
669.501	28.47
669.688	28.5
669.875	28.53
670.062	28.5
670.249	28.8
670.436	28.23
670.623	28.65
670.81	28.21
670.997	28.48
671.184	28.85
671.371	28.77
671.558	28.62
671.745	29.18
671.932	29.24
672.119	28.81
672.306	28.96
672.493	29.53
672.68	28.78
672.867	29.18
673.054	28.06
673.24	27.66
673.427	27.66
673.614	27.7
673.801	27.33
673.988	27.36
674.174	27.82
674.361	27.72
674.548	27.78
674.734	28.29
674.921	27.67
675.108	28.72
675.294	29.07
675.481	28.85
675.668	29.49
675.854	29.33
676.041	29.42
676.227	29.6
676.414	29.95
676.601	29.44
676.787	28.96
676.974	29.93
677.16	29.89
677.347	29.68
677.533	30.15
677.719	29.68
677.906	30.14
678.092	29.98
678.279	29.66
678.465	29.22
678.651	29.31
678.838	29.73
679.024	29.76
679.21	29.65
679.397	29.68
679.583	30.04
679.769	30.04
679.955	30.11
680.142	30.25
680.328	30.31
680.514	30.73
680.7	30.73
680.886	30.94
681.073	30.88
681.259	31
681.445	31.12
681.631	30.83
681.817	30.66
682.003	30.46
682.189	30.82
682.375	31.23
682.561	31.05
682.747	30.83
682.933	29.99
683.119	29.66
683.305	29.1
683.491	29.44
683.677	28.97
683.863	29.43
684.049	29.43
684.235	28.92
684.42	28.64
684.606	28.81
684.792	29.45
684.978	29.91
685.164	30.3
685.349	30.9
685.535	30.93
685.721	31.04
685.907	30.61
686.092	30.86
686.278	31.12
686.464	30.73
686.649	31
686.835	30.61
687.021	30.88
687.206	30.76
687.392	30.66
687.577	30.54
687.763	30.43
687.948	30.35
688.134	30.27
688.319	30.28
688.505	30.73
688.69	30.81
688.876	30.64
689.061	30.43
689.247	30.76
689.432	30.98
689.618	31.21
689.803	32.3
689.988	32.03
690.174	31.62
690.359	31.66
690.544	32.3
690.73	32.09
690.915	32.09
691.1	32.29
691.285	32.34
691.471	32.04
691.656	32.1
691.841	31.31
692.026	31.74
692.211	32.44
692.396	32.42
692.582	31.38
692.767	32.01
692.952	32.15
693.137	32.15
693.322	31.39
693.507	31.5
693.692	31.01
693.877	30.85
694.062	30.72
694.247	29.77
694.432	29.46
694.617	30.3
694.802	29.58
694.987	29.52
695.172	29.48
695.357	29.72
695.541	30.31
695.726	30.37
695.911	30.2
696.096	30.4
696.281	31.3
696.466	31.56
696.65	31.08
696.835	31.37
697.02	31.58
697.204	31.34
697.389	31.72
697.574	30.95
697.759	30.94
697.943	31.37
698.128	31.3
698.312	31.74
698.497	31.33
698.682	31.41
698.866	31.28
699.051	31.72
699.235	32.27
699.42	32.45
699.604	32.76
699.789	32.45
699.973	32.59
700.158	31.99
700.342	31.66
700.527	31.76
700.711	31.22
700.895	30.9
701.08	30.59
701.264	29.71
701.448	29.35
701.633	29.4
701.817	30.56
702.001	30.28
702.186	31.65
702.37	31.2
702.554	31.36
702.738	31.9
702.923	31.56
703.107	30.89
703.291	31.48
703.475	31.34
703.659	31.13
703.843	29.85
704.027	29.24
704.212	29.1
704.396	29.62
704.58	29.33
704.764	29.24
704.948	29.38
705.132	29.81
705.316	29.44
705.5	29.82
705.684	29.86
705.868	29.31
706.052	30.11
706.235	29.37
706.419	29.11
706.603	30.53
706.787	30.89
706.971	30.71
707.155	30.65
707.339	30.98
707.522	30.51
707.706	31.14
707.89	32.54
708.074	31.14
708.257	30.97
708.441	31.08
708.625	30.47
708.808	30.44
708.992	30.72
709.176	31.54
709.359	31.54
709.543	30.79
709.727	30.1
709.91	29.41
710.094	30.66
710.277	31.89
710.461	31.72
710.644	31.94
710.828	31.62
711.011	31.54
711.195	30.68
711.378	30.43
711.562	31.16
711.745	31.2
711.928	31.09
712.112	30.58
712.295	30.43
712.478	31.36
712.662	31.09
712.845	31.47
713.028	31.39
713.212	30.87
713.395	31.5
713.578	31.54
713.761	30.84
713.945	30.56
714.128	31.26
714.311	30.5
714.494	29.5
714.677	28.86
714.86	29
715.043	29.54
715.227	29.82
715.41	29.54
715.593	29.09
715.776	30
715.959	31.04
716.142	30.37
716.325	29.59
716.508	29.51
716.691	30.04
716.874	29.81
717.057	29.76
717.239	30.04
717.422	29.65
717.605	29.43
717.788	28.36
717.971	27.37
718.154	27.81
718.337	29.18
718.519	27.77
718.702	27.64
718.885	27.54
719.068	28.44
719.25	28.2
719.433	28.22
719.616	29.21
719.798	30.51
719.981	30.61
720.164	30.18
720.346	29.61
720.529	31.19
720.712	31.41
720.894	31.9
721.077	31.49
721.259	30.75
721.442	30.52
721.624	29.86
721.807	30.55
721.989	30.64
722.172	31.22
722.354	31.85
722.537	32.07
722.719	32.09
722.901	31.52
723.084	30.39
723.266	31.39
723.448	32.02
723.631	33
723.813	32.75
723.995	32.89
724.178	32.28
724.36	32.79
724.542	33.4
724.724	33.18
724.907	33.57
725.089	33.99
725.271	33.43
725.453	32.87
725.635	32.39
725.817	31.32
725.999	32.48
726.181	32.27
726.364	31.3
726.546	30.73
726.728	30.93
726.91	30.43
727.092	30.38
727.274	30.96
727.456	31.17
727.638	29.97
727.819	30.83
728.001	29.86
728.183	29.98
728.365	30.6
728.547	30.11
728.729	30.13
728.911	30.87
729.093	31.63
729.274	31.56
729.456	31.67
729.638	31.4
729.82	31.12
730.001	31.58
730.183	32.28
730.365	32.88
730.546	32.98
730.728	33.08
730.91	32.68
731.091	32.11
731.273	32.1
731.455	32.32
731.636	33.43
731.818	33.69
731.999	33.67
732.181	33.47
732.362	31.83
732.544	31.78
732.725	31.65
732.907	31.13
733.088	31.27
733.27	31.53
733.451	31.52
733.633	31.17
733.814	30.67
733.995	29.12
734.177	28.18
734.358	29.37
734.539	29.42
734.721	29.5
734.902	29.76
735.083	29.45
735.264	28.73
735.446	28.69
735.627	28.63
735.808	28.69
735.989	30.07
736.17	30.03
736.351	28.93
736.533	28.49
736.714	27.79
736.895	29
737.076	28.92
737.257	29.58
737.438	29.23
737.619	29.54
737.8	28.37
737.981	27.48
738.162	28.04
738.343	27.87
738.524	28.9
738.705	27.55
738.886	26
739.067	25.06
739.247	24.15
739.428	23.29
739.609	22.67
739.79	23.13
739.971	23.5
740.151	24.01
740.332	24.55
740.513	23.6
740.694	25.4
740.874	25.39
741.055	27.89
741.236	29.33
741.417	30.66
741.597	31.5
741.778	31.91
741.958	32.36
742.139	31.09
742.32	30.26
742.5	30.72
742.681	30.95
742.861	32.34
743.042	30.64
743.222	29.33
743.403	29
743.583	28.44
743.764	28.93
743.944	28.72
744.124	30.26
744.305	31.79
744.485	31.55
744.666	31.5
744.846	30.27
745.026	30.59
745.207	32.04
745.387	32.23
745.567	32.33
745.747	31.1
745.928	30.66
746.108	31.01
746.288	29.86
746.468	29.04
746.648	28.53
746.829	27.62
747.009	27.84
747.189	27.78
747.369	28.87
747.549	29.05
747.729	28.45
747.909	29.27
748.089	28.2
748.269	29.05
748.449	30.05
748.629	30.47
748.809	32.08
748.989	31.84
749.169	31.38
749.349	28.78
749.529	30.17
749.709	29.78
749.889	30.31
750.068	31.13
750.248	31.35
750.428	31.45
750.608	31.99
750.788	32.03
750.967	32.32
751.147	32.17
751.327	33.45
751.507	31.82
751.686	31.55
751.866	31.1
752.046	29.5
752.225	29.73
752.405	29.25
752.585	29.2
752.764	30.24
752.944	29.58
753.123	29.42
753.303	29.32
753.482	30.2
753.662	33.21
753.841	31.29
754.021	31.98
754.2	31.46
754.38	30.76
754.559	29.85
754.739	28.45
754.918	29.67
755.097	29.76
755.277	30.55
755.456	29.18
755.635	28.11
755.815	30.65
755.994	29.52
756.173	28.48
756.352	29.41
756.532	28.55
756.711	29.76
756.89	29.88
757.069	29.39
757.248	27.8
757.427	28.4
757.607	27.49
757.786	26.29
757.965	27.24
758.144	28.19
758.323	28.8
758.502	29.38
758.681	27.26
758.86	24.39
759.039	24.93
759.218	27.89
759.397	27.28
759.576	28.3
759.755	27.69
759.934	28.68
760.113	28.81
760.291	26.91
760.47	27.13
760.649	28.6
760.828	30.92
761.007	30.5
761.186	29.46
761.364	30.25
761.543	29.9
761.722	30.32
761.901	30.14
762.079	30.61
762.258	31.67
762.437	32.49
762.615	33.1
762.794	32.55
762.972	32.87
763.151	32.34
763.33	33
763.508	33.78
763.687	33.56
763.865	33.71
764.044	33.16
764.222	34.03
764.401	33.91
764.579	33.16
764.758	32.51
764.936	31.7
765.114	31.71
765.293	32.09
765.471	31.2
765.65	32.42
765.828	32.77
766.006	32.7
766.184	31.69
766.363	31.45
766.541	31.44
766.719	33.82
766.898	35.58
767.076	35.39
767.254	34.34
767.432	34.4
767.61	33.9
767.788	32.7
767.967	32.19
768.145	31.58
768.323	29.74
768.501	29.32
768.679	27.57
768.857	25.99
769.035	24.25
769.213	24.89
769.391	24.84
769.569	24.09
769.747	24.7
769.925	24.4
770.103	24.29
770.281	25.58
770.459	26.11
770.636	26.5
770.814	27.41
770.992	30.56
771.17	28.97
771.348	27.87
771.525	28.12
771.703	26.31
771.881	27.7
772.059	30.8
772.236	30.59
772.414	29.07
772.592	26.96
772.769	26.97
772.947	23.13
773.125	23.84
773.302	23.28
773.48	22.9
773.657	23.66
773.835	21.9
774.013	19.72
774.19	20.69
774.368	21.03
774.545	19.76
774.723	18.67
774.9	21.46
775.077	21.35
775.255	23.24
775.432	25.88
775.61	25.11
775.787	26.85
775.964	27.19
776.142	25.38
776.319	24.96
776.496	26.99
776.674	26.2
776.851	27.2
777.028	28.96
777.205	29.76
777.382	26.99
777.56	29.77
777.737	28.94
777.914	27.22
778.091	29.89
778.268	32.12
778.445	33.77
778.622	32.59
778.8	31.56
778.977	28.86
779.154	27.87
779.331	24.4
779.508	23.3
779.685	23.17
779.862	22.85
780.038	18.68
780.215	15.7
780.392	12.47
780.569	14.28
780.746	12.86
780.923	14.55
781.1	12.22
781.277	11.89
781.453	9.21
781.63	12.71
781.807	13.03
781.984	16.75
782.16	15.16
782.337	20.86
782.514	23.13
782.691	24.95
782.867	23.07
783.044	24.38
783.221	28.93
783.397	30.41
783.574	28.21
783.75	29.57
783.927	29.14
784.103	31.85
784.28	29.31
784.456	28.62
784.633	24.05
784.809	29.12
784.986	27.85
785.162	27.68
785.339	26.33
785.515	27.13
785.692	27.98
785.868	25.64
786.044	22.65
786.221	21.99
786.397	21.4
786.573	24.33
786.749	21.6
786.926	20.63
787.102	23.09
787.278	24.8
787.454	20.97
787.631	19.76
787.807	18.62
787.983	20.84
788.159	22.36
788.335	23.02
788.511	25.75
788.687	26.17
788.863	31.37
789.039	27.42
789.216	27.26
789.392	29.31
789.568	27.21
789.744	30.67
789.919	32.14
790.095	29.55
790.271	30.28
790.447	30.94
790.623	31.88
790.799	28.33
790.975	30.74
791.151	29.46
791.327	28.91
791.502	30.22
791.678	26.83
791.854	24.23
792.03	25.67
792.205	22.99
792.381	18.44
792.557	15.22
792.733	12.93
792.908	16.4
793.084	14.75
793.259	13.2
793.435	15.15
793.611	15.82
793.786	18.72
793.962	16.84
794.137	15.92
794.313	18.25
794.488	15.7
794.664	18.47
794.839	10.47
795.015	13.63
795.19	14.87
795.366	11.77
795.541	12.8
795.716	8.23
795.892	8.76
796.067	8
796.242	8.58
796.418	11.84
796.593	9.38
796.768	14.87
796.944	12.06
797.119	14.63
797.294	14.05
797.469	15.68
797.644	14.06
797.82	15.14
797.995	22.2
798.17	21.32
798.345	17.9
798.52	20.27
798.695	17.98
798.87	20.87
799.045	15.16
799.22	13.11
799.395	11.98
799.57	16.56
799.745	14.21
799.92	8.13
800.095	5.55
800.27	6.83
800.445	8.83
800.62	7.41
800.795	3.47
800.97	6.67
801.145	10.76
801.319	13.36
801.494	10.44
801.669	11.61
801.844	11.87
802.018	14.53
802.193	16.97
802.368	14.56
802.543	14.51
802.717	14.72
802.892	18.64
803.067	20.14
803.241	16.95
803.416	23.3
803.59	25.37
803.765	27.19
803.94	26.98
804.114	26.71
804.289	24.59
804.463	27.72
804.638	29.24
804.812	26.75
804.986	26.38
805.161	27.09
805.335	22.54
805.51	18.53
805.684	17.68
805.858	20.22
806.033	21.42
806.207	22.56
806.381	18.1
806.556	20.47
806.73	25.32
806.904	26.06
807.078	27.71
807.253	26.91
807.427	30.2
807.601	29.71
807.775	29.21
807.949	27.09
808.123	33.44
808.298	37.58
808.472	37.55
808.646	33.28
808.82	30.78
808.994	29.43
809.168	28.47
809.342	29.42
809.516	30.24
809.69	28.63
809.864	31.22
810.038	26.36
810.212	26.31
810.385	20.93
810.559	21.36
810.733	22.85
810.907	21.77
811.081	25.65
811.255	20.95
811.428	21.15
811.602	17.84
811.776	15.47
811.95	16.62
812.123	8.63
812.297	13.52
812.471	11.98
812.644	11.71
812.818	15.86
812.992	14.42
813.165	12.1
813.339	10.95
813.512	20.43
813.686	23.07
813.86	28.43
814.033	35.61
814.207	33.28
814.38	35.53
814.554	37.18
814.727	38.35
814.9	40
815.074	42.94
815.247	44.71
815.421	34.75
815.594	31.16
815.767	16.2
815.941	17.93
816.114	16.96
816.287	11.65
816.46	8.13
816.634	5
816.807	12.06
816.98	9.74
817.153	12.71
817.327	16.39
817.5	20.06
817.673	21.6
817.846	18.53
818.019	26.43
818.192	29.93
818.365	38.44
818.538	39.63
818.711	35.59
818.884	35.74
819.057	37.3
819.23	34.01
819.403	28.05
819.576	36.6
819.749	36.35
819.922	37.37
820.095	40.93
820.268	32.14
820.441	31.04
820.614	33.95
820.786	36.53
820.959	34.51
821.132	37.12
821.305	37.47
821.477	36.09
821.65	37.32
821.823	36.33
821.996	34.18
822.168	35.66
822.341	35.54
822.514	34.66
822.686	34.28
822.859	35.35
823.031	34.75
823.204	35.1
823.376	35.11
823.549	34.68
823.722	33.71
823.894	34.16
824.067	34.06
824.239	34.28
824.411	34.18
824.584	33.88
824.756	32.81
824.929	32.96
825.101	33.24
825.273	32.24
825.446	31.8
825.618	32.86
825.79	32.69
825.963	32.15
826.135	32.31
826.307	32.07
826.479	31.94
826.652	32.27
826.824	32.73
826.996	32.12
827.168	33.23
827.34	32.12
827.512	32.18
827.684	31.82
827.856	30.74
828.029	30.63
828.201	29.32
828.373	30.23
828.545	29.44
828.717	26.77
828.889	25.51
829.061	22.37
829.232	21.81
829.404	20.15
829.576	20.69
829.748	22.83
829.92	22.77
830.092	24.09
830.264	22.71
830.436	20.96
830.607	23.33
830.779	24.04
830.951	24.88
831.123	26.46
831.294	25.32
831.466	21.95
831.638	20.51
831.809	14.12
831.981	7.46
832.153	6.71
832.324	7.59
832.496	12.2
832.667	11.71
832.839	13.69
833.011	14.84
833.182	16.47
833.354	19.02
833.525	22.39
833.697	21.99
833.868	27.69
834.039	26.79
834.211	31.31
834.382	28.2
834.554	30.75
834.725	32
834.896	33.53
835.068	36.32
835.239	32.19
835.41	28.24
835.581	29.9
835.753	28.7
835.924	29.71
836.095	25.52
836.266	26.86
836.438	18.64
836.609	17.11
836.78	17.7
836.951	15.16
837.122	19.22
837.293	15.12
837.464	13.63
837.635	11.62
837.806	8.58
837.977	4.61
838.148	-1.17
838.319	6.05
838.49	-0.74
838.661	-2.66
838.832	1.22
839.003	-5.98
839.174	8.18
839.345	12.58
839.516	10.8
839.687	14.61
839.857	14.54
840.028	20.19
840.199	26
840.37	34.74
840.54	33.99
840.711	26.44
840.882	28.79
841.053	22.59
841.223	18.18
841.394	18.94
841.564	18.19
841.735	20.31
841.906	21.73
842.076	18.87
842.247	12.84
842.417	6.22
842.588	6.9
842.758	9.68
842.929	16.07
843.099	12.73
843.27	10.91
843.44	-2.41
843.611	-6.61
843.781	-36.31
843.951	-55.49
844.122	-49.3
844.292	-68.44
844.462	-59.65
844.633	-65.51
844.803	-86.7
844.973	-54.72
845.144	-63.34
845.314	-50.43
845.484	-18.54
845.654	-12.84
845.824	-21.27
845.995	-8.2
846.165	6.54
846.335	-5.55
846.505	20.74
846.675	18.03
846.845	-0.4
847.015	6.39
847.185	-4.26
847.355	-37.22
847.525	-12.71
847.695	-4.48
847.865	-23.59
848.035	-19.56
848.205	-25.89
848.375	-18.3
848.545	-11.51
848.715	-18.13
848.884	-14.13
849.054	-18.13
849.224	-2.33
849.394	-4.66
849.564	10.78
849.733	18.5
849.903	33.34
850.073	51.99
850.243	49.71
850.412	49.84
850.582	50.11
850.752	51.53
850.921	68.13
851.091	62.73
851.26	60.02
851.43	48.29
851.599	28.71
851.769	6.04
851.939	-10.92
852.108	-23.59
852.278	-27.38
852.447	-43.67
852.616	-60.39
852.786	-81.55
852.955	-80.6
853.125	-65.09
853.294	-53.56
853.463	-28.3
853.633	-5.22
853.802	1.74
853.971	-16.02
854.141	-34.02
854.31	-15.38
854.479	6.58
854.648	5.62
854.818	26.63
854.987	27.24
855.156	2.28
855.325	11.11
855.494	-122.02
855.663	-395
855.832	-15.93
856.001	8.5
856.171	2.04
856.34	-0.03
856.509	-45.24
856.678	-331.84
856.847	-327.31
857.016	-156.21
857.185	-90.51
857.353	-54.29
857.522	-64.35
857.691	-160.26
857.86	-291.39
858.029	-473.92
858.198	-243.78
858.367	-307.18
858.535	-700.41
858.704	-706.29
858.873	1343.89
859.042	735.68
859.21	364.47
859.379	-492.57
859.548	1809.09
859.717	-76
859.885	-0.76
860.054	-7.44
860.222	-34.52
860.391	-91.38
860.56	-42.17
860.728	-68.84
860.897	-81.61
861.065	-40.82
861.234	-61.77
861.402	-51.55
861.571	-70.89
861.739	-156.58
861.908	-123.22
862.076	-44.62
862.244	7.26
862.413	19.91
862.581	39.03
862.749	8.61
862.918	2.45
863.086	6.81
863.254	-14.34
863.423	-12.73
863.591	-31.87
863.759	-84.51
863.927	-63.16
864.096	-102.8
864.264	-230.41
864.432	-134.33
864.6	-62.98
864.768	-62.81
864.936	-220.88
865.104	356.71
865.272	191.63
865.44	-367.41
865.608	-95.94
865.776	-236.7
865.944	-226.08
866.112	-197.52
866.28	-287.36
866.448	-359.76
866.616	-709.89
866.784	-225.67
866.952	-48.45
867.12	-32.76
867.288	-43.3
867.455	-85.01
867.623	-44.15
867.791	-35.18
867.959	5.8
868.127	42.19
868.294	41.59
868.462	-47.27
868.63	-408
868.797	-1093.04
868.965	-417.4
869.133	-1316.56
869.3	-108.02
869.468	-22.57
869.636	-70.17
869.803	-44.83
869.971	-100.96
870.138	-63.44
870.306	2.68
870.473	13.5
870.641	5.67
870.808	-24.65
870.975	-11.29
871.143	-15.37
871.31	-32.03
871.478	-5.47
871.645	-30.97
871.812	-20.47
871.98	-16.5
872.147	-23.94
872.314	-8.41
872.482	2.82
872.649	21.15
872.816	3.94
872.983	17.86
873.15	5.31
873.318	1.06
873.485	18.69
873.652	24.93
873.819	28
873.986	24.58
874.153	20.76
874.32	7.67
874.487	-40.19
874.654	-8.3
874.821	-62.44
874.988	-78.93
875.155	-47.63
875.322	-79.77
875.489	-105.08
875.656	-495.54
875.823	-806.33
875.99	969.81
876.157	772.1
876.324	-2248.04
876.49	-1276.67
876.657	677.07
876.824	904.05
876.991	-314.24
877.157	-93.73
877.324	-48.88
877.491	-8.12
877.658	-42.51
877.824	-22.9
877.991	-9.67
878.157	-31.28
878.324	-50.54
878.491	-96.89
878.657	-58.21
878.824	-111.96
878.99	-79.79
879.157	-79.85
879.323	-123.43
879.49	-201.59
879.656	-415.27
879.823	-390.71
879.989	-481.54
880.156	-350.35
880.322	-175.25
880.488	-135.52
880.655	-165.82
880.821	-190.87
880.987	-157.4
881.154	-85.13
881.32	-16.96
881.486	6.8
881.652	10.81
881.819	21.08
881.985	26.67
882.151	30.22
882.317	26.61
882.483	30.44
882.649	33.71
882.816	33.42
882.982	34.52
883.148	31.58
883.314	26.62
883.48	29.21
883.646	28.5
883.812	28.72
883.978	28.52
884.144	31.26
884.31	32.32
884.476	32.26
884.642	32.96
884.807	31.29
884.973	30.82
885.139	30.17
885.305	30.14
885.471	29.89
885.637	23.57
885.802	24.45
885.968	25.6
886.134	25.03
886.3	28.72
886.465	28.33
886.631	27.76
886.797	29.66
886.962	35.36
887.128	33.08
887.293	37.04
887.459	47.17
887.625	34.36
887.79	19.6
887.956	17.02
888.121	6.5
888.287	7.33
888.452	15.85
888.618	5.06
888.783	-21.66
