Data from 2937860_Reflection_3.txt Node
Date: Wed Jul 15 15:27:54 EDT 2015
User: robert
Spectrometer: USB4E03001
Autoset integration time: false
Trigger mode: 4
Integration Time (sec): 1.000000E-1
Scans to average: 10
Electric dark correction enabled: true
Nonlinearity correction enabled: false
Boxcar width: 5
Stray light correction enabled: false
XAxis mode: Wavelengths
Stop averaging: false
Number of Pixels in Spectrum: 3648
>>>>>Begin Spectral Data<<<<<
177.566	112.07
177.785	78
178.005	92.16
178.225	86.12
178.445	-14.42
178.665	-36.31
178.885	1155.56
179.105	-168.83
179.324	-119.78
179.544	305.08
179.764	145.64
179.984	143.25
180.204	102.47
180.423	130.13
180.643	108.87
180.863	109.94
181.083	141.62
181.302	139.58
181.522	119.75
181.742	118.35
181.961	140.28
182.181	169.25
182.401	188.04
182.621	165.72
182.84	171.85
183.06	166.64
183.279	142.5
183.499	133.12
183.719	179.04
183.938	244.44
184.158	199.67
184.377	144.52
184.597	112.73
184.816	89.03
185.036	85.34
185.256	71.52
185.475	79.6
185.695	57
185.914	-10.86
186.134	53.83
186.353	63.99
186.572	65.39
186.792	105.43
187.011	104.96
187.231	109.27
187.45	108.4
187.67	82.81
187.889	68.27
188.108	88.63
188.328	95.07
188.547	41.5
188.766	49.61
188.986	44.55
189.205	47.26
189.424	14.03
189.644	-98.16
189.863	-266.47
190.082	-479.97
190.302	1293.95
190.521	-111.36
190.74	-132.54
190.959	-155.53
191.178	-141.79
191.398	-99.41
191.617	-78.28
191.836	-31.51
192.055	40.94
192.274	72.42
192.494	74.08
192.713	89.19
192.932	116.23
193.151	168.53
193.37	249.27
193.589	7126.36
193.808	1604.31
194.027	1334.82
194.246	386.54
194.465	209.68
194.685	175.68
194.904	99.55
195.123	67.73
195.342	57.73
195.561	49.61
195.78	22.74
195.999	10.43
196.218	-8.35
196.436	-5.79
196.655	1.45
196.874	-12.36
197.093	11.59
197.312	-6.5
197.531	-5.35
197.75	12.36
197.969	32.19
198.188	12.89
198.407	31.76
198.625	16.19
198.844	-47.17
199.063	-93.23
199.282	-82.4
199.501	-67.28
199.719	-88.03
199.938	-67.62
200.157	-25.79
200.376	4.7
200.594	19.13
200.813	-14.49
201.032	43.2
201.251	71.72
201.469	121.86
201.688	125.43
201.907	137.36
202.125	80.07
202.344	96.13
202.563	162.64
202.781	120.55
203	104.76
203.218	147.37
203.437	650
203.656	690.46
203.874	-432.68
204.093	-334.31
204.311	-45.67
204.53	-57.97
204.748	3.75
204.967	-24.2
205.185	19.61
205.404	20.27
205.622	35.25
205.841	18.59
206.059	20.39
206.278	59.58
206.496	61.29
206.715	64.3
206.933	60.8
207.151	71.63
207.37	71.89
207.588	69.97
207.806	72.31
208.025	66.47
208.243	46.28
208.461	67.59
208.68	68.64
208.898	77.48
209.116	82.08
209.335	88.98
209.553	94.89
209.771	107.71
209.989	117.19
210.208	133.47
210.426	137.53
210.644	177.08
210.862	149.83
211.081	199.06
211.299	138.97
211.517	93.15
211.735	79.64
211.953	64.81
212.171	60.26
212.39	55.15
212.608	39.54
212.826	46.66
213.044	47.84
213.262	16.57
213.48	-0.84
213.698	-9.67
213.916	-30.77
214.134	-2.09
214.352	15.82
214.57	49.61
214.788	55.72
215.006	67.94
215.224	57.86
215.442	69.28
215.66	97.63
215.878	92.49
216.096	93.52
216.314	109.74
216.532	58.62
216.75	48.13
216.968	21.43
217.185	27.09
217.403	15.24
217.621	18.72
217.839	-43.19
218.057	-14.77
218.275	10.43
218.492	13.93
218.71	-5.24
218.928	-26.47
219.146	22.94
219.363	17.57
219.581	15.28
219.799	2.57
220.017	12.42
220.234	24.81
220.452	11.14
220.67	7.43
220.887	5.94
221.105	17.45
221.323	20.46
221.54	25.06
221.758	12.03
221.976	-1.3
222.193	13.99
222.411	16.57
222.629	14.82
222.846	16.62
223.064	15.5
223.281	9.54
223.499	4.03
223.716	15.64
223.934	13.57
224.151	22.18
224.369	24.94
224.586	25.25
224.804	18.72
225.021	37.5
225.239	43.71
225.456	48.46
225.674	58.4
225.891	51.41
226.108	46.97
226.326	38.17
226.543	37.22
226.76	36.69
226.978	27.06
227.195	27.63
227.413	19.62
227.63	14.19
227.847	12.02
228.064	9.75
228.282	9.86
228.499	6.17
228.716	8.13
228.934	9.14
229.151	10.12
229.368	10.67
229.585	12.13
229.802	10.03
230.02	10.29
230.237	8.72
230.454	5.64
230.671	4.01
230.888	7.99
231.105	8.47
231.323	2.64
231.54	3.21
231.757	-0.36
231.974	-9.69
232.191	-7.77
232.408	-9.51
232.625	-6.13
232.842	-1.91
233.059	2.29
233.276	-2.11
233.493	-0.74
233.71	2.09
233.927	-4.32
234.144	-0.44
234.361	2.1
234.578	1.68
234.795	1.77
235.012	1.74
235.229	-1.63
235.446	-5.4
235.663	-1.19
235.879	0.68
236.096	2.04
236.313	4.06
236.53	4.58
236.747	4.4
236.964	4.91
237.181	7.2
237.397	7.61
237.614	14.78
237.831	15.7
238.048	14
238.264	12.64
238.481	11.65
238.698	20.5
238.915	19.8
239.131	21.89
239.348	21.04
239.565	21.54
239.781	22.84
239.998	19.64
240.215	17.35
240.431	17.1
240.648	14.18
240.865	17.14
241.081	11.76
241.298	13.22
241.514	13.29
241.731	13.89
241.947	11.64
242.164	9.91
242.38	7.41
242.597	8.55
242.814	7.44
243.03	7.84
243.246	6.75
243.463	8.73
243.679	7.42
243.896	7.67
244.112	7.02
244.329	8.85
244.545	9.86
244.762	12.27
244.978	10.12
245.194	10.34
245.411	11.69
245.627	9.41
245.843	8
246.06	7.79
246.276	7.27
246.492	7.74
246.709	6.6
246.925	6.59
247.141	6.3
247.357	6.68
247.574	7.13
247.79	6.1
248.006	6.97
248.222	6.28
248.439	5.64
248.655	6
248.871	5.37
249.087	5.17
249.303	4.93
249.519	5.24
249.736	5.17
249.952	4.31
250.168	5.46
250.384	4.52
250.6	4.57
250.816	6.33
251.032	7.43
251.248	7.51
251.464	7.67
251.68	4.97
251.896	3.4
252.112	3.63
252.328	4.93
252.544	5.08
252.76	6.99
252.976	6.87
253.192	5.12
253.408	3.39
253.624	2.18
253.84	3.59
254.056	5.15
254.272	5.83
254.487	6.1
254.703	3.22
254.919	0.6
255.135	0.45
255.351	-0.44
255.567	1.09
255.782	3.04
255.998	5.4
256.214	5.96
256.43	9.44
256.646	10.17
256.861	10.48
257.077	8.95
257.293	11.51
257.508	9.6
257.724	10.3
257.94	10.77
258.155	8.32
258.371	7.72
258.587	7.27
258.802	5.91
259.018	4.7
259.234	4.17
259.449	4.86
259.665	4.12
259.88	3.81
260.096	4.22
260.312	4.58
260.527	4.92
260.743	4.65
260.958	3.82
261.174	3.55
261.389	4.01
261.605	3.6
261.82	2.64
262.036	1.45
262.251	2.36
262.466	1.74
262.682	2.24
262.897	1.42
263.113	2.53
263.328	3.25
263.543	4.26
263.759	3.19
263.974	3.73
264.189	5.04
264.405	6.97
264.62	5.44
264.835	5.99
265.051	2.19
265.266	2.51
265.481	2.11
265.696	3.28
265.912	1.18
266.127	3.65
266.342	4.1
266.557	4.55
266.773	4.73
266.988	4.83
267.203	4.81
267.418	5.13
267.633	5.47
267.848	5.31
268.064	4.25
268.279	4.61
268.494	4.31
268.709	4.61
268.924	5.47
269.139	6.14
269.354	6.19
269.569	4.81
269.784	4.28
269.999	4.1
270.214	4.36
270.429	4.25
270.644	4.06
270.859	2.85
271.074	3.34
271.289	2.43
271.504	1.77
271.719	1.74
271.934	2.12
272.149	3.55
272.363	2.56
272.578	1.31
272.793	0.49
273.008	1.04
273.223	1.69
273.438	0.88
273.653	2.86
273.867	2.79
274.082	3.07
274.297	2.91
274.512	2.52
274.726	3.51
274.941	2.99
275.156	5.4
275.371	6.67
275.585	6.86
275.8	6.58
276.015	4.4
276.229	5.55
276.444	4.56
276.659	5.24
276.873	4.8
277.088	5.06
277.302	4.52
277.517	2.92
277.732	2.24
277.946	1.51
278.161	2.45
278.375	3.46
278.59	3.25
278.804	2.91
279.019	2.74
279.233	4.12
279.448	4.36
279.662	5.14
279.877	5.49
280.091	5.65
280.306	6.2
280.52	5.17
280.735	3.53
280.949	3.17
281.163	5.07
281.378	5.28
281.592	4.22
281.806	3.01
282.021	4.42
282.235	4.61
282.449	4.57
282.664	3.85
282.878	4.23
283.092	4.67
283.307	4.9
283.521	4.83
283.735	4.96
283.949	5.42
284.164	6.4
284.378	5.66
284.592	5.28
284.806	4.16
285.02	5.4
285.234	5.03
285.449	6.04
285.663	4.98
285.877	5.35
286.091	6.33
286.305	6.51
286.519	6.55
286.733	7.14
286.947	7.13
287.161	8.33
287.375	7.59
287.589	7.51
287.803	7.22
288.017	9.04
288.231	8.01
288.445	6.32
288.659	6.32
288.873	5.59
289.087	4.71
289.301	6.31
289.515	5.46
289.729	4.85
289.943	5.37
290.157	6.76
290.371	5.78
290.584	6.31
290.798	6.73
291.012	6.37
291.226	6.29
291.44	6.6
291.654	6.17
291.867	7.07
292.081	7.58
292.295	7.75
292.509	6.09
292.722	5.74
292.936	6
293.15	7.23
293.364	7.95
293.577	7.5
293.791	7.87
294.005	7.36
294.218	5.59
294.432	6.49
294.645	8.01
294.859	6.98
295.073	7
295.286	7.47
295.5	6.25
295.713	5.61
295.927	6.92
296.14	7.46
296.354	6.75
296.568	7.62
296.781	7.59
296.994	7.21
297.208	8.62
297.421	8.85
297.635	8.89
297.848	9.35
298.062	8.93
298.275	7.83
298.489	7.91
298.702	9.85
298.915	9.26
299.129	9.05
299.342	8.67
299.555	8.94
299.769	9.35
299.982	9.59
300.195	9.52
300.409	11.01
300.622	11.5
300.835	11.35
301.048	9.63
301.262	9.18
301.475	9.87
301.688	10.16
301.901	8.96
302.115	8.58
302.328	7.73
302.541	7.14
302.754	6.14
302.967	7.2
303.18	6.85
303.393	7.49
303.607	8.31
303.82	8.51
304.033	9.03
304.246	8.85
304.459	8.38
304.672	9.49
304.885	10.59
305.098	10.58
305.311	10.05
305.524	10.05
305.737	10.86
305.95	9.81
306.163	9.58
306.376	9.58
306.589	9.6
306.802	10.38
307.015	8.92
307.228	8.13
307.44	7.67
307.653	7.61
307.866	7.97
308.079	6.82
308.292	8.69
308.505	8.09
308.718	8.46
308.93	10.22
309.143	10.18
309.356	10.62
309.569	11.61
309.781	11.52
309.994	12.78
310.207	12.79
310.42	13.17
310.632	13.31
310.845	14.3
311.058	13.57
311.27	12.55
311.483	13.05
311.696	13.13
311.908	11.76
312.121	11.68
312.333	11.64
312.546	11.08
312.759	10.52
312.971	9.51
313.184	9.07
313.396	8.4
313.609	8.68
313.821	9.44
314.034	10.09
314.246	11.15
314.459	12.83
314.671	11.97
314.884	14.53
315.096	14.4
315.309	14.99
315.521	13.81
315.733	13.91
315.946	15.35
316.158	14.99
316.371	14.82
316.583	15.75
316.795	14.29
317.008	14.94
317.22	13.57
317.432	13.12
317.644	13.51
317.857	15.14
318.069	15.94
318.281	15.06
318.494	15.23
318.706	16.23
318.918	15.25
319.13	16.61
319.342	14.43
319.555	15.01
319.767	15.49
319.979	15.7
320.191	16.55
320.403	15.6
320.615	15.18
320.827	13.91
321.039	12.35
321.252	12.61
321.464	13.65
321.676	16.98
321.888	16.78
322.1	16.89
322.312	16.49
322.524	15.05
322.736	16.56
322.948	16.72
323.16	17.3
323.372	18.99
323.584	19.03
323.796	18.57
324.007	16.86
324.219	17.48
324.431	19.19
324.643	19.53
324.855	19.98
325.067	19.93
325.279	20.41
325.491	19.87
325.702	19.99
325.914	21.19
326.126	21.43
326.338	22.76
326.55	20.9
326.761	19.86
326.973	19.95
327.185	20.63
327.396	20.64
327.608	21.11
327.82	22.1
328.032	21.85
328.243	22.51
328.455	22.15
328.666	22.02
328.878	23.35
329.09	24.59
329.301	24.83
329.513	24.89
329.725	26.03
329.936	26.12
330.148	26.84
330.359	26.31
330.571	26.25
330.782	28.57
330.994	29.54
331.205	31.15
331.417	31.28
331.628	32.63
331.84	33.16
332.051	34.04
332.262	34.85
332.474	36.23
332.685	36.52
332.897	37.66
333.108	37.78
333.319	38.2
333.531	39.57
333.742	39.95
333.953	38.93
334.165	40.2
334.376	40.88
334.587	40.92
334.799	40.76
335.01	42.48
335.221	41.72
335.432	42.04
335.644	42.71
335.855	41.46
336.066	42.33
336.277	43.28
336.488	42.04
336.7	41.24
336.911	41.52
337.122	41.78
337.333	40.6
337.544	40.65
337.755	40.78
337.966	40.96
338.177	41.81
338.388	42.39
338.599	43.59
338.811	45.29
339.022	45.82
339.233	46.25
339.444	46.38
339.655	47.28
339.866	48.72
340.076	48.56
340.287	48.67
340.498	47.32
340.709	46.24
340.92	46.27
341.131	46.76
341.342	46.6
341.553	45.97
341.764	44.88
341.975	44.59
342.185	44.43
342.396	44.17
342.607	43.74
342.818	45.09
343.029	45.88
343.239	45.72
343.45	44.65
343.661	44.82
343.872	45.99
344.082	46.29
344.293	46.7
344.504	46.74
344.714	47.56
344.925	48.91
345.136	49.39
345.346	48.74
345.557	48.88
345.768	49.32
345.978	49.92
346.189	49.37
346.399	50.93
346.61	50.99
346.821	51.31
347.031	51.2
347.242	50.39
347.452	49.73
347.663	50.1
347.873	50.41
348.084	50.14
348.294	49.83
348.504	50.88
348.715	49.87
348.925	50.39
349.136	50.13
349.346	49.3
349.557	49.37
349.767	48.71
349.977	48.42
350.188	48.52
350.398	48.34
350.608	47.46
350.819	46.96
351.029	46.49
351.239	46.39
351.449	45.69
351.66	46.92
351.87	46.7
352.08	47.25
352.29	47.83
352.501	46.65
352.711	47.63
352.921	48.64
353.131	47.98
353.341	48.58
353.552	48.59
353.762	48.06
353.972	47.77
354.182	47.58
354.392	49.13
354.602	48.77
354.812	49.07
355.022	48.45
355.232	48.15
355.442	49.01
355.652	48.65
355.862	48.34
356.072	48.84
356.282	48.53
356.492	48.59
356.702	46.94
356.912	47.42
357.122	48.28
357.332	48.04
357.542	48.56
357.752	47.44
357.962	48.05
358.171	48.67
358.381	48.48
358.591	48.8
358.801	48.44
359.011	49.82
359.221	49.26
359.43	49.09
359.64	49.24
359.85	48.99
360.06	48.96
360.269	48.51
360.479	47.4
360.689	47.41
360.899	47.63
361.108	47.92
361.318	47.17
361.528	47.34
361.737	46.93
361.947	46.82
362.156	47.13
362.366	47.11
362.576	47.18
362.785	47.37
362.995	47.34
363.204	47.06
363.414	47.32
363.623	47.1
363.833	46.98
364.042	46.86
364.252	47
364.461	46.27
364.671	46.13
364.88	46.7
365.09	47.28
365.299	47.52
365.509	46.83
365.718	46.5
365.927	46.67
366.137	46.98
366.346	47.62
366.555	48.13
366.765	48.24
366.974	48.39
367.183	47.41
367.393	46.48
367.602	46.3
367.811	46.54
368.021	46.98
368.23	46.97
368.439	46.76
368.648	45.44
368.857	44.77
369.067	44.56
369.276	45.78
369.485	45.32
369.694	44.54
369.903	44.31
370.112	43.95
370.321	43.75
370.531	43.91
370.74	43.36
370.949	43.72
371.158	43.47
371.367	43.55
371.576	42.29
371.785	42.41
371.994	42.85
372.203	42.47
372.412	42.38
372.621	42.01
372.83	41.53
373.039	41.3
373.248	41.32
373.457	40.82
373.666	40.38
373.874	40.5
374.083	40.66
374.292	40.94
374.501	40.9
374.71	40.61
374.919	40.77
375.128	40.97
375.336	41.02
375.545	41.31
375.754	41.12
375.963	41.31
376.171	41.33
376.38	41.49
376.589	41.44
376.798	41.21
377.006	41.44
377.215	41
377.424	40.53
377.632	40.17
377.841	39.83
378.05	40.1
378.258	39.67
378.467	39.71
378.675	39.25
378.884	39.45
379.093	39.76
379.301	39.5
379.51	39.6
379.718	39.97
379.927	40.2
380.135	40.29
380.344	40
380.552	40.05
380.761	39.26
380.969	39.4
381.177	38.19
381.386	37.5
381.594	37
381.803	36.76
382.011	36.49
382.219	36.13
382.428	35.54
382.636	35.17
382.845	35.36
383.053	35.66
383.261	35.79
383.469	36.11
383.678	36.91
383.886	37.3
384.094	37.26
384.302	36.97
384.511	36.9
384.719	36.87
384.927	37.65
385.135	37.54
385.343	37.17
385.552	36.58
385.76	36.81
385.968	35.82
386.176	35.52
386.384	35.15
386.592	35.11
386.8	35.51
387.008	35.41
387.216	34.91
387.424	34.65
387.633	34.75
387.841	34.81
388.049	34.82
388.257	35.14
388.465	34.6
388.672	34.39
388.88	34.14
389.088	33.33
389.296	33.27
389.504	32.8
389.712	32.69
389.92	32.38
390.128	32.23
390.336	32.21
390.544	32.33
390.751	32.46
390.959	32.62
391.167	33.21
391.375	33.25
391.583	33.11
391.79	33.36
391.998	33.33
392.206	33.38
392.414	33.24
392.621	32.88
392.829	32.62
393.037	32.99
393.244	32.84
393.452	32.17
393.66	32.41
393.867	32.13
394.075	32.13
394.283	32.21
394.49	32.25
394.698	32.53
394.905	32.57
395.113	32.48
395.32	32.4
395.528	32.18
395.735	32.28
395.943	32.47
396.15	32.94
396.358	32.72
396.565	32.4
396.773	32.41
396.98	32.52
397.188	32.29
397.395	32.46
397.602	32.44
397.81	32.24
398.017	32.43
398.225	32
398.432	31.97
398.639	32.2
398.847	32.36
399.054	32.38
399.261	31.99
399.468	32.3
399.676	32.33
399.883	32.4
400.09	32.61
400.297	32.7
400.505	32.69
400.712	32.45
400.919	32.42
401.126	32.76
401.333	32.81
401.54	32.84
401.748	32.65
401.955	32.63
402.162	32.77
402.369	32.75
402.576	32.57
402.783	32.82
402.99	32.88
403.197	32.99
403.404	32.83
403.611	32.63
403.818	32.57
404.025	32.59
404.232	32.51
404.439	32.17
404.646	32.19
404.853	32.22
405.06	32.29
405.267	32.37
405.474	32.07
405.681	32.15
405.887	32.24
406.094	32.08
406.301	32.05
406.508	32.18
406.715	32.28
406.922	32.66
407.128	32.6
407.335	32.37
407.542	32.29
407.749	32.42
407.955	32.37
408.162	32.28
408.369	32.64
408.575	32.69
408.782	32.57
408.989	32.39
409.195	31.98
409.402	32.17
409.609	32.23
409.815	32.51
410.022	32.28
410.228	31.94
410.435	31.74
410.642	31.63
410.848	31.79
411.055	31.75
411.261	31.83
411.468	31.89
411.674	31.58
411.881	31.42
412.087	31.22
412.294	31.22
412.5	31.32
412.706	31.82
412.913	31.94
413.119	31.77
413.326	31.85
413.532	31.85
413.738	31.76
413.945	31.99
414.151	31.97
414.357	32.04
414.564	31.97
414.77	31.82
414.976	31.41
415.182	31.14
415.389	30.92
415.595	30.84
415.801	30.74
416.007	31.01
416.214	30.7
416.42	30.79
416.626	30.37
416.832	30.42
417.038	30.6
417.244	30.37
417.45	30.5
417.657	30.47
417.863	30.39
418.069	30.47
418.275	30.16
418.481	30.13
418.687	30.05
418.893	30.3
419.099	30.25
419.305	30.2
419.511	30.31
419.717	30.3
419.923	30.16
420.129	30.05
420.335	30.18
420.541	30.16
420.746	30.01
420.952	29.94
421.158	29.76
421.364	29.76
421.57	29.46
421.776	29.51
421.982	29.3
422.187	29.36
422.393	29.32
422.599	29.07
422.805	29.07
423.01	29.17
423.216	29.3
423.422	29.23
423.628	29.24
423.833	29.29
424.039	29.2
424.245	29.21
424.45	29.23
424.656	29.28
424.862	29.32
425.067	29.59
425.273	29.58
425.478	29.62
425.684	29.76
425.889	29.83
426.095	29.87
426.301	29.85
426.506	29.89
426.712	29.96
426.917	30.06
427.123	29.89
427.328	29.65
427.533	29.78
427.739	29.51
427.944	29.38
428.15	29.3
428.355	29.47
428.561	29.46
428.766	29.43
428.971	29.44
429.177	29.37
429.382	29.35
429.587	29
429.793	28.75
429.998	28.55
430.203	28.55
430.408	28.43
430.614	28.3
430.819	28.45
431.024	28.33
431.229	28.15
431.434	28.26
431.64	28.4
431.845	28.51
432.05	28.5
432.255	28.69
432.46	28.83
432.665	28.67
432.87	28.55
433.076	28.36
433.281	28.45
433.486	28.54
433.691	28.55
433.896	28.68
434.101	28.8
434.306	28.86
434.511	28.8
434.716	28.71
434.921	28.89
435.126	28.95
435.331	28.94
435.535	28.91
435.74	28.96
435.945	28.83
436.15	28.77
436.355	28.62
436.56	28.63
436.765	28.68
436.97	28.61
437.174	28.66
437.379	28.78
437.584	28.89
437.789	28.99
437.993	28.92
438.198	28.73
438.403	28.36
438.608	28.43
438.812	28.31
439.017	28.21
439.222	28.3
439.426	28.2
439.631	28.15
439.836	28.28
440.04	28.3
440.245	28.35
440.45	28.38
440.654	28.62
440.859	28.7
441.063	28.74
441.268	28.95
441.472	28.97
441.677	29.05
441.881	29.02
442.086	28.86
442.29	28.95
442.495	28.89
442.699	28.99
442.904	28.88
443.108	28.75
443.312	28.99
443.517	28.93
443.721	28.94
443.925	28.91
444.13	28.84
444.334	28.95
444.538	28.77
444.743	28.87
444.947	28.71
445.151	28.66
445.356	28.53
445.56	28.28
445.764	28.22
445.968	28.15
446.173	28.11
446.377	28.15
446.581	28.1
446.785	28.17
446.989	28.12
447.193	28.31
447.398	28.54
447.602	28.74
447.806	28.71
448.01	28.68
448.214	28.77
448.418	28.69
448.622	28.65
448.826	28.66
449.03	28.49
449.234	28.54
449.438	28.43
449.642	28.14
449.846	28.14
450.05	28.24
450.254	28.22
450.458	28.08
450.662	28.1
450.866	28.16
451.069	28.16
451.273	28.12
451.477	28.15
451.681	28.09
451.885	28.03
452.089	27.64
452.292	27.54
452.496	27.62
452.7	27.54
452.904	27.55
453.107	27.68
453.311	27.5
453.515	27.68
453.719	27.56
453.922	27.73
454.126	27.94
454.33	28.08
454.533	28.17
454.737	28.06
454.94	28.2
455.144	28.35
455.348	28.25
455.551	28.32
455.755	28.1
455.958	27.88
456.162	27.64
456.365	27.63
456.569	27.76
456.772	27.75
456.976	27.8
457.179	27.72
457.383	27.73
457.586	27.75
457.79	27.85
457.993	28.11
458.196	28.24
458.4	28.35
458.603	28.24
458.807	28.17
459.01	28.12
459.213	28.13
459.417	28.1
459.62	28.19
459.823	28.16
460.026	28.11
460.23	28.1
460.433	28.22
460.636	28.31
460.839	28.35
461.042	28.51
461.246	28.59
461.449	28.79
461.652	28.78
461.855	28.71
462.058	28.77
462.261	28.89
462.464	28.97
462.668	28.82
462.871	28.74
463.074	28.96
463.277	28.68
463.48	28.72
463.683	28.53
463.886	28.49
464.089	28.6
464.292	28.57
464.495	28.57
464.698	28.69
464.901	28.74
465.104	28.62
465.306	28.36
465.509	28.52
465.712	28.6
465.915	28.67
466.118	29.11
466.321	28.93
466.524	29
466.726	28.88
466.929	28.7
467.132	28.84
467.335	29.09
467.538	29.13
467.74	29.05
467.943	29
468.146	28.96
468.348	28.83
468.551	29
468.754	28.95
468.956	29.01
469.159	29.18
469.362	29.15
469.564	29.08
469.767	29.2
469.969	29.42
470.172	29.38
470.375	29.34
470.577	29.2
470.78	29.36
470.982	29.42
471.185	29.46
471.387	29.34
471.59	29.34
471.792	29.11
471.995	29.27
472.197	29.18
472.399	29.35
472.602	29.5
472.804	29.75
473.007	29.3
473.209	29.38
473.411	29.6
473.614	29.66
473.816	29.72
474.018	30.03
474.22	30.06
474.423	30.01
474.625	30.06
474.827	30.13
475.03	29.93
475.232	30.19
475.434	30.07
475.636	30.06
475.838	29.99
476.04	29.96
476.243	29.87
476.445	29.8
476.647	29.78
476.849	29.69
477.051	29.67
477.253	29.72
477.455	29.67
477.657	29.8
477.859	29.58
478.061	29.63
478.263	29.46
478.465	29.43
478.667	29.37
478.869	29.53
479.071	29.48
479.273	29.33
479.475	29.41
479.677	29.58
479.879	29.39
480.081	29.58
480.283	29.46
480.485	29.53
480.686	29.6
480.888	29.58
481.09	29.51
481.292	29.49
481.494	29.39
481.695	29.29
481.897	29.15
482.099	29.21
482.301	29.15
482.502	29.24
482.704	29.15
482.906	29.08
483.107	28.98
483.309	29.06
483.511	29
483.712	28.99
483.914	28.98
484.115	28.97
484.317	28.91
484.519	28.91
484.72	28.87
484.922	28.94
485.123	28.89
485.325	28.9
485.526	28.84
485.728	28.89
485.929	28.9
486.131	28.97
486.332	28.92
486.534	29.03
486.735	29.05
486.936	29.07
487.138	29
487.339	29.04
487.541	29.19
487.742	29.14
487.943	29.07
488.144	29.07
488.346	29
488.547	29.04
488.748	29
488.95	28.98
489.151	28.97
489.352	28.96
489.553	29.01
489.755	28.95
489.956	28.99
490.157	29.19
490.358	29.28
490.559	29.31
490.76	29.38
490.961	29.46
491.163	29.48
491.364	29.51
491.565	29.55
491.766	29.59
491.967	29.52
492.168	29.54
492.369	29.48
492.57	29.53
492.771	29.56
492.972	29.61
493.173	29.56
493.374	29.53
493.575	29.41
493.776	29.42
493.976	29.39
494.177	29.48
494.378	29.55
494.579	29.57
494.78	29.53
494.981	29.59
495.182	29.58
495.382	29.71
495.583	29.71
495.784	30.16
495.985	30.17
496.185	30.2
496.386	30.18
496.587	30.17
496.788	30.2
496.988	30.1
497.189	30.14
497.39	30.15
497.59	30.2
497.791	30.25
497.992	30.12
498.192	30.27
498.393	30.21
498.593	30.22
498.794	30.28
498.994	30.52
499.195	30.74
499.395	30.66
499.596	30.84
499.796	30.74
499.997	30.73
500.197	30.83
500.398	30.75
500.598	30.88
500.799	30.98
500.999	31.16
501.199	30.97
501.4	31.08
501.6	31.37
501.801	31.23
502.001	31.43
502.201	31.83
502.402	31.89
502.602	32.11
502.802	32.32
503.002	32.52
503.203	32.4
503.403	32.55
503.603	32.66
503.803	32.65
504.003	32.71
504.204	32.81
504.404	32.53
504.604	32.41
504.804	32.48
505.004	32.61
505.204	32.62
505.404	32.67
505.604	32.74
505.804	32.67
506.005	32.74
506.205	32.94
506.405	33.07
506.605	33.58
506.805	33.71
507.005	33.83
507.204	33.85
507.404	34.01
507.604	34.22
507.804	34.23
508.004	34.37
508.204	34.38
508.404	34.5
508.604	34.4
508.804	34.35
509.003	34.54
509.203	34.5
509.403	34.58
509.603	34.52
509.803	34.54
510.002	34.54
510.202	34.5
510.402	34.57
510.602	34.55
510.801	34.7
511.001	34.69
511.201	34.73
511.4	34.95
511.6	35.04
511.8	35.1
511.999	35.35
512.199	35.56
512.398	35.72
512.598	35.94
512.797	36.14
512.997	36.14
513.197	36.26
513.396	36.36
513.596	36.26
513.795	36.37
513.994	36.55
514.194	36.5
514.393	36.63
514.593	36.74
514.792	36.73
514.992	36.92
515.191	37.1
515.39	37.25
515.59	37.31
515.789	37.41
515.988	37.52
516.188	37.66
516.387	37.7
516.586	37.68
516.786	37.75
516.985	37.87
517.184	37.81
517.383	37.88
517.582	37.89
517.782	38.08
517.981	38.28
518.18	38.19
518.379	38.24
518.578	38.39
518.777	38.63
518.976	38.59
519.176	38.57
519.375	38.6
519.574	38.79
519.773	38.9
519.972	38.93
520.171	38.91
520.37	39.1
520.569	39.17
520.768	39.17
520.967	39.1
521.166	39.26
521.365	39.42
521.564	39.46
521.762	39.49
521.961	39.66
522.16	39.82
522.359	39.95
522.558	40.01
522.757	40.14
522.956	40.26
523.154	40.29
523.353	40.55
523.552	40.76
523.751	40.81
523.949	40.8
524.148	40.66
524.347	40.68
524.546	40.7
524.744	40.69
524.943	40.7
525.142	40.66
525.34	40.91
525.539	40.82
525.737	40.77
525.936	40.96
526.135	40.99
526.333	41.03
526.532	40.99
526.73	41.07
526.929	41.23
527.127	41.28
527.326	41.34
527.524	41.28
527.723	41.34
527.921	41.39
528.12	41.45
528.318	41.44
528.516	41.54
528.715	41.62
528.913	41.63
529.112	41.54
529.31	41.61
529.508	41.6
529.707	41.71
529.905	41.79
530.103	41.83
530.301	41.82
530.5	41.93
530.698	41.92
530.896	41.94
531.094	42.02
531.293	42.19
531.491	42.15
531.689	42.32
531.887	42.21
532.085	42.11
532.283	42.21
532.481	42.18
532.68	42.23
532.878	42.19
533.076	42.17
533.274	42.13
533.472	42.12
533.67	42.13
533.868	42.06
534.066	42.16
534.264	42.18
534.462	42.03
534.66	42.04
534.858	42
535.056	42.07
535.253	42.15
535.451	42.27
535.649	42.3
535.847	42.36
536.045	42.44
536.243	42.45
536.441	42.61
536.638	42.71
536.836	42.8
537.034	42.9
537.232	42.93
537.43	42.87
537.627	42.8
537.825	42.84
538.023	42.84
538.22	42.93
538.418	42.87
538.616	42.8
538.813	42.73
539.011	42.65
539.209	42.43
539.406	42.45
539.604	42.55
539.801	42.52
539.999	42.48
540.196	42.64
540.394	42.61
540.591	42.55
540.789	42.54
540.986	42.69
541.184	42.79
541.381	42.92
541.579	42.93
541.776	42.98
541.974	42.96
542.171	42.94
542.368	42.9
542.566	42.93
542.763	43.09
542.96	43.13
543.158	43.01
543.355	42.87
543.552	42.83
543.75	42.69
543.947	42.65
544.144	42.83
544.341	42.89
544.539	42.94
544.736	42.9
544.933	42.85
545.13	43
545.327	43.14
545.524	43.26
545.722	43.24
545.919	43.46
546.116	43.45
546.313	43.51
546.51	43.5
546.707	43.36
546.904	43.39
547.101	43.26
547.298	43.17
547.495	43.17
547.692	43.2
547.889	43.26
548.086	43.15
548.283	43.06
548.48	42.96
548.677	43.02
548.874	43.06
549.07	42.88
549.267	43.02
549.464	43.05
549.661	43.05
549.858	43.24
550.055	43.12
550.251	43.26
550.448	43.44
550.645	43.16
550.842	43.3
551.038	43.54
551.235	43.69
551.432	43.51
551.628	43.31
551.825	43.42
552.022	43.21
552.218	43.27
552.415	43.31
552.612	43.27
552.808	43.59
553.005	43.46
553.201	43.19
553.398	43.31
553.594	43.55
553.791	43.69
553.987	43.63
554.184	43.84
554.38	43.82
554.577	43.76
554.773	43.55
554.97	43.33
555.166	43.22
555.362	43.25
555.559	43.18
555.755	43
555.952	43.17
556.148	43.08
556.344	42.85
556.541	42.72
556.737	42.72
556.933	42.86
557.129	42.96
557.326	43.16
557.522	43.24
557.718	43.1
557.914	43.06
558.11	42.82
558.307	42.95
558.503	43.07
558.699	43.46
558.895	43.49
559.091	43.65
559.287	43.73
559.483	43.71
559.679	43.69
559.876	43.85
560.072	44
560.268	44.24
560.464	44.35
560.66	44.33
560.856	44.4
561.052	44.58
561.247	44.44
561.443	44.18
561.639	44.39
561.835	44.27
562.031	44.28
562.227	44.39
562.423	44.44
562.619	44.6
562.815	44.69
563.01	44.49
563.206	44.5
563.402	44.63
563.598	44.91
563.793	44.65
563.989	44.84
564.185	44.81
564.381	44.73
564.576	44.46
564.772	44.17
564.968	44.04
565.163	44.15
565.359	43.96
565.555	43.92
565.75	43.91
565.946	43.93
566.141	43.99
566.337	44
566.532	44.11
566.728	44.31
566.923	44.24
567.119	44.17
567.314	43.99
567.51	43.84
567.705	43.87
567.901	43.85
568.096	43.77
568.292	43.62
568.487	43.42
568.682	43.31
568.878	43.21
569.073	43.38
569.268	43.44
569.464	43.54
569.659	43.75
569.854	43.85
570.05	43.75
570.245	43.9
570.44	44.09
570.635	44.26
570.831	44.09
571.026	44.15
571.221	44.08
571.416	44.06
571.611	44.17
571.806	44.18
572.002	44.28
572.197	44.31
572.392	44.29
572.587	44.44
572.782	44.56
572.977	44.57
573.172	44.5
573.367	44.53
573.562	44.52
573.757	44.42
573.952	44.36
574.147	44.37
574.342	44.48
574.537	44.57
574.732	44.4
574.927	44.42
575.121	44.69
575.316	44.59
575.511	44.59
575.706	44.93
575.901	44.92
576.096	45.09
576.29	44.85
576.485	44.87
576.68	44.87
576.875	44.85
577.069	44.93
577.264	45.02
577.459	45.44
577.654	45.43
577.848	45.27
578.043	45.4
578.238	45.45
578.432	45.68
578.627	45.77
578.821	45.83
579.016	46.1
579.21	46.19
579.405	45.83
579.6	45.54
579.794	45.71
579.989	45.61
580.183	45.37
580.378	45.11
580.572	44.91
580.766	44.99
580.961	44.85
581.155	44.59
581.35	44.55
581.544	44.56
581.738	44.69
581.933	44.42
582.127	44.39
582.321	44.6
582.516	44.85
582.71	44.88
582.904	44.7
583.099	44.91
583.293	44.74
583.487	44.54
583.681	44.71
583.875	44.72
584.07	44.68
584.264	44.81
584.458	45.03
584.652	45.04
584.846	45.03
585.04	45.02
585.234	45.02
585.428	45.16
585.623	45.05
585.817	44.95
586.011	44.81
586.205	44.94
586.399	44.98
586.593	44.86
586.787	45.01
586.981	45.15
587.174	45.45
587.368	45.49
587.562	45.65
587.756	46.01
587.95	46.1
588.144	46.13
588.338	46.22
588.532	46.32
588.725	46.19
588.919	46.08
589.113	46.06
589.307	45.97
589.501	45.81
589.694	45.88
589.888	45.94
590.082	45.97
590.275	46.19
590.469	46.17
590.663	46.04
590.856	46.03
591.05	46.35
591.244	46.61
591.437	46.42
591.631	46.76
591.824	46.92
592.018	46.41
592.212	46.48
592.405	46.22
592.599	46.41
592.792	46.3
592.986	46.42
593.179	46.27
593.372	46.11
593.566	46.18
593.759	45.95
593.953	46.03
594.146	46.49
594.339	46.54
594.533	46.45
594.726	46.14
594.92	46.06
595.113	46.33
595.306	46.28
595.499	46.44
595.693	46.5
595.886	46.61
596.079	46.36
596.272	46.27
596.466	46.24
596.659	46.49
596.852	46.66
597.045	46.67
597.238	46.6
597.431	46.32
597.624	46.28
597.818	46.37
598.011	46.35
598.204	46.21
598.397	46.18
598.59	46.3
598.783	46.38
598.976	46.47
599.169	46.65
599.362	46.6
599.555	46.84
599.748	46.65
599.941	46.45
600.134	46.5
600.326	46.66
600.519	46.76
600.712	46.5
600.905	46.48
601.098	46.42
601.291	46.67
601.483	46.71
601.676	46.86
601.869	47.05
602.062	47.3
602.255	46.98
602.447	47.11
602.64	47.12
602.833	47.44
603.025	47.52
603.218	47.48
603.411	47.37
603.603	47.3
603.796	47.26
603.989	47.21
604.181	47.2
604.374	47.47
604.566	47.47
604.759	47.47
604.951	47.16
605.144	47.11
605.336	47.2
605.529	47.33
605.721	47.52
605.914	47.38
606.106	47.52
606.299	47.61
606.491	47.79
606.683	47.67
606.876	47.67
607.068	47.84
607.26	47.84
607.453	47.82
607.645	48
607.837	48.11
608.03	48.47
608.222	48.34
608.414	48.27
608.606	48.14
608.799	48.24
608.991	48.04
609.183	48.38
609.375	48.26
609.567	48.52
609.759	48.22
609.952	48.07
610.144	47.75
610.336	47.61
610.528	47.44
610.72	47.38
610.912	47.34
611.104	47.52
611.296	47.13
611.488	47.3
611.68	46.86
611.872	46.89
612.064	46.58
612.256	46.77
612.448	46.99
612.64	47.17
612.832	47.29
613.023	47.53
613.215	47.46
613.407	47.75
613.599	47.66
613.791	47.92
613.983	47.74
614.174	48
614.366	48.29
614.558	48.2
614.75	48.18
614.941	48.08
615.133	47.77
615.325	47.72
615.516	47.61
615.708	47.55
615.9	47.74
616.091	48.32
616.283	48.53
616.475	48.25
616.666	48.45
616.858	48.44
617.049	48.43
617.241	48.75
617.432	48.97
617.624	48.9
617.815	49.04
618.007	48.83
618.198	48.55
618.39	48.47
618.581	48.62
618.773	48.55
618.964	48.9
619.155	48.56
619.347	48.53
619.538	48.44
619.729	48.73
619.921	48.53
620.112	48.63
620.303	48.67
620.494	48.65
620.686	48.46
620.877	48.68
621.068	48.56
621.259	48.84
621.451	48.84
621.642	49.26
621.833	49.01
622.024	49.3
622.215	49.34
622.406	49.53
622.597	49.81
622.788	49.96
622.98	49.64
623.171	49.66
623.362	49.76
623.553	49.4
623.744	48.91
623.935	48.88
624.126	49.01
624.317	48.89
624.508	48.73
624.698	48.26
624.889	48.05
625.08	47.87
625.271	47.77
625.462	47.72
625.653	47.78
625.844	47.94
626.034	47.66
626.225	47.59
626.416	47.54
626.607	47.56
626.798	47.72
626.988	47.72
627.179	48.08
627.37	48.04
627.56	48.03
627.751	48.26
627.942	48.15
628.132	48.21
628.323	48.08
628.514	48.42
628.704	48.29
628.895	48.43
629.085	48.66
629.276	48.61
629.466	48.82
629.657	48.68
629.847	48.54
630.038	48.66
630.228	48.88
630.419	49.04
630.609	48.45
630.8	48.48
630.99	48.14
631.181	48.17
631.371	48.1
631.561	47.98
631.752	48.25
631.942	48.33
632.132	48.25
632.323	48.57
632.513	48.5
632.703	48.5
632.893	48.53
633.084	48.77
633.274	48.87
633.464	48.8
633.654	48.53
633.844	48.31
634.034	48.2
634.225	48.37
634.415	48.08
634.605	48.22
634.795	48.54
634.985	48.42
635.175	48.43
635.365	48.11
635.555	47.95
635.745	48
635.935	48.13
636.125	48.09
636.315	48.22
636.505	48.27
636.695	48.1
636.885	47.95
637.075	48.14
637.265	47.93
637.455	48.06
637.644	48.17
637.834	48.39
638.024	48.34
638.214	48.76
638.404	48.56
638.593	48.4
638.783	48.49
638.973	48.72
639.163	48.22
639.352	48.49
639.542	48.25
639.732	48.11
639.921	47.92
640.111	47.99
640.301	47.69
640.49	47.67
640.68	47.93
640.87	47.92
641.059	47.66
641.249	48.25
641.438	48.4
641.628	48.64
641.817	48.68
642.007	48.66
642.196	48.73
642.386	48.63
642.575	48.48
642.764	48.47
642.954	48.08
643.143	48.47
643.333	48.19
643.522	48.13
643.711	48.09
643.901	48.62
644.09	48.84
644.279	49
644.469	48.87
644.658	48.8
644.847	49
645.036	49.25
645.226	48.92
645.415	48.63
645.604	48.17
645.793	48.05
645.982	47.59
646.171	47.52
646.361	47.24
646.55	47.45
646.739	47.66
646.928	47.04
647.117	46.9
647.306	47.18
647.495	47.75
647.684	47.76
647.873	47.9
648.062	47.84
648.251	48.1
648.44	48.48
648.629	48.76
648.818	48.78
649.007	49.22
649.196	49.13
649.384	48.75
649.573	48.7
649.762	48.99
649.951	48.79
650.14	48.85
650.328	48.55
650.517	48.72
650.706	48.99
650.895	49.13
651.083	48.91
651.272	49.5
651.461	49.69
651.65	49.42
651.838	49.11
652.027	49.42
652.216	49.65
652.404	49.97
652.593	49.72
652.781	49.3
652.97	48.91
653.158	49.35
653.347	48.9
653.535	48.72
653.724	49.05
653.912	49.49
654.101	49.41
654.289	49.27
654.478	48.83
654.666	49.02
654.855	48.75
655.043	49.04
655.231	48.81
655.42	48.73
655.608	49.02
655.796	48.76
655.985	48.34
656.173	48.4
656.361	48.7
656.55	48.88
656.738	48.3
656.926	48.14
657.114	48.31
657.302	48.42
657.491	48.6
657.679	48.18
657.867	48.38
658.055	48.7
658.243	48.62
658.431	48.32
658.619	48.5
658.807	48.55
658.996	48.95
659.184	48.79
659.372	48.75
659.56	48.81
659.748	49.2
659.936	48.97
660.124	48.88
660.311	49.02
660.499	49.02
660.687	48.54
660.875	48.53
661.063	48.49
661.251	48.55
661.439	48.6
661.627	48.72
661.814	48.58
662.002	48.61
662.19	48.76
662.378	48.53
662.565	48.83
662.753	49.48
662.941	49.33
663.129	49.12
663.316	48.89
663.504	48.66
663.692	48.4
663.879	48.04
664.067	48.11
664.254	48.06
664.442	48.13
664.63	47.89
664.817	48.01
665.005	48.1
665.192	47.94
665.38	48.16
665.567	48.07
665.755	48.38
665.942	49.12
666.13	49.54
666.317	48.82
666.504	48.74
666.692	48.48
666.879	48.11
667.067	48.6
667.254	48.77
667.441	48.48
667.629	48.32
667.816	48.15
668.003	47.95
668.19	47.68
668.378	48.34
668.565	48.13
668.752	48.24
668.939	48.38
669.127	47.98
669.314	47.89
669.501	47.79
669.688	48.12
669.875	47.78
670.062	48.26
670.249	47.8
670.436	47.41
670.623	47.76
670.81	47.66
670.997	47.72
671.184	47.82
671.371	48.35
671.558	48.77
671.745	48.53
671.932	48.65
672.119	48.17
672.306	48.76
672.493	49.3
672.68	48.91
672.867	48.99
673.054	48.55
673.24	48.71
673.427	48.47
673.614	48.41
673.801	48.57
673.988	48.53
674.174	48.12
674.361	47.77
674.548	47.81
674.734	48.27
674.921	48.52
675.108	48.46
675.294	48.33
675.481	48.18
675.668	48.88
675.854	49.02
676.041	48.96
676.227	49.34
676.414	49.16
676.601	48.7
676.787	48.81
676.974	48.63
677.16	48.76
677.347	48.99
677.533	49
677.719	48.82
677.906	48.73
678.092	48.71
678.279	48.82
678.465	49.03
678.651	49.09
678.838	49.09
679.024	49.03
679.21	49.33
679.397	48.97
679.583	49.04
679.769	48.52
679.955	48.37
680.142	48.84
680.328	48.85
680.514	48.64
680.7	48.54
680.886	48.58
681.073	48.59
681.259	48.5
681.445	48.78
681.631	48.65
681.817	48.53
682.003	48.6
682.189	48.27
682.375	47.79
682.561	48.09
682.747	48.32
682.933	48.17
683.119	48.25
683.305	48.4
683.491	48.55
683.677	48.62
683.863	48.83
684.049	49.12
684.235	48.54
684.42	49.03
684.606	48.65
684.792	48.61
684.978	47.81
685.164	47.92
685.349	47.46
685.535	46.94
685.721	46.68
685.907	46.55
686.092	45.84
686.278	46.1
686.464	46.1
686.649	46.06
686.835	46.02
687.021	46.81
687.206	46.7
687.392	46.24
687.577	45.94
687.763	46.46
687.948	46.1
688.134	46.24
688.319	46.2
688.505	45.9
688.69	46.38
688.876	46.31
689.061	46.16
689.247	46.61
689.432	46.94
689.618	47.21
689.803	46.68
689.988	47.64
690.174	47.18
690.359	47.61
690.544	47.55
690.73	47.7
690.915	47.64
691.1	48.06
691.285	47.84
691.471	48.24
691.656	48.98
691.841	49.04
692.026	48.46
692.211	49.05
692.396	49.35
692.582	48.99
692.767	48.5
692.952	48.61
693.137	48.31
693.322	47.74
693.507	47.43
693.692	47
693.877	47.3
694.062	47.55
694.247	47.55
694.432	47
694.617	47.33
694.802	47.39
694.987	47.3
695.172	47.47
695.357	47.97
695.541	48.34
695.726	48.3
695.911	47.42
696.096	46.94
696.281	47.36
696.466	47.81
696.65	48.05
696.835	48.56
697.02	48.61
697.204	48.37
697.389	47.98
697.574	47.58
697.759	47.04
697.943	48.01
698.128	48.07
698.312	47.77
698.497	47.75
698.682	48.25
698.866	48
699.051	48.13
699.235	48.19
699.42	48.38
699.604	48.64
699.789	49.24
699.973	48.26
700.158	48.37
700.342	48.44
700.527	48.11
700.711	47.21
700.895	47.09
701.08	46.97
701.264	46.81
701.448	46.73
701.633	46.61
701.817	46.46
702.001	47.68
702.186	47.89
702.37	47.96
702.554	48.48
702.738	49.08
702.923	49.03
703.107	48.55
703.291	48.75
703.475	48.77
703.659	48.59
703.843	47.98
704.027	48.15
704.212	48.04
704.396	48.11
704.58	48.06
704.764	48.17
704.948	48.03
705.132	48.28
705.316	48.08
705.5	48.31
705.684	48.63
705.868	49.38
706.052	48.49
706.235	47.71
706.419	47.79
706.603	47.61
706.787	47.57
706.971	47.12
707.155	47.47
707.339	46.82
707.522	47.17
707.706	46.71
707.89	46.48
708.074	46.38
708.257	47.58
708.441	47.1
708.625	47.09
708.808	46.42
708.992	47.28
709.176	47.73
709.359	48.11
709.543	47.84
709.727	47.68
709.91	47.71
710.094	48.73
710.277	48.3
710.461	48.36
710.644	48.05
710.828	48.14
711.011	48.05
711.195	47.85
711.378	48.07
711.562	48.15
711.745	48.77
711.928	48.88
712.112	47.7
712.295	47.93
712.478	48.47
712.662	48.68
712.845	48.66
713.028	48.6
713.212	48.49
713.395	48.49
713.578	47.38
713.761	47.46
713.945	47.17
714.128	47.86
714.311	47.51
714.494	47.09
714.677	47.01
714.86	46.8
715.043	46.44
715.227	46.14
715.41	45.94
715.593	45.94
715.776	45.2
715.959	44.85
716.142	44.65
716.325	43.9
716.508	43.52
716.691	43.26
716.874	43.49
717.057	43.94
717.239	43.78
717.422	43.84
717.605	45.12
717.788	46.1
717.971	46.77
718.154	46.87
718.337	47
718.519	47.48
718.702	47.99
718.885	47.21
719.068	46.87
719.25	47.68
719.433	47.3
719.616	46.78
719.798	45.53
719.981	45.7
720.164	46.02
720.346	46.78
720.529	47.07
720.712	47.1
720.894	47.8
721.077	48
721.259	47.02
721.442	47.74
721.624	47.94
721.807	47.98
721.989	48.56
722.172	48.42
722.354	48.63
722.537	48.12
722.719	47.86
722.901	47.98
723.084	47.66
723.266	48.83
723.448	49.61
723.631	49.34
723.813	50.14
723.995	49.32
724.178	48.79
724.36	48.5
724.542	48.3
724.724	48.44
724.907	47.55
725.089	47.18
725.271	46.59
725.453	45.22
725.635	44.41
725.817	44.05
725.999	43.5
726.181	43.73
726.364	42.75
726.546	43.35
726.728	42.83
726.91	43.94
727.092	44.87
727.274	45
727.456	44.54
727.638	45.76
727.819	46.49
728.001	45.94
728.183	45.48
728.365	46.5
728.547	46.58
728.729	47.81
728.911	47.09
729.093	46.4
729.274	46.76
729.456	47.82
729.638	47.32
729.82	46.31
730.001	47.14
730.183	47.77
730.365	48.19
730.546	47.22
730.728	45.6
730.91	46.48
731.091	47.48
731.273	46.7
731.455	46.35
731.636	46
731.818	46.37
731.999	46.1
732.181	45.73
732.362	45.65
732.544	46.27
732.725	46.35
732.907	45.84
733.088	45.2
733.27	45.47
733.451	45.31
733.633	44.44
733.814	43.23
733.995	42.86
734.177	42.98
734.358	42.95
734.539	42.89
734.721	42.91
734.902	43.31
735.083	43.53
735.264	43.18
735.446	43.03
735.627	43.31
735.808	44.79
735.989	44.93
736.17	44.82
736.351	43.98
736.533	43.92
736.714	44.86
736.895	45.15
737.076	44.46
737.257	44.82
737.438	45.27
737.619	45.87
737.8	45.72
737.981	45
738.162	44.25
738.343	44.29
738.524	44.62
738.705	43.41
738.886	43.89
739.067	45.27
739.247	44.4
739.428	44.57
739.609	44.48
739.79	44.69
739.971	45.83
740.151	47.04
740.332	46.52
740.513	46.08
740.694	45.81
740.874	43.97
741.055	42.88
741.236	43.26
741.417	43.39
741.597	43.31
741.778	42.09
741.958	41.75
742.139	42
742.32	42.74
742.5	43.01
742.681	43.83
742.861	44.94
743.042	44.6
743.222	43.36
743.403	42.73
743.583	42.47
743.764	43.98
743.944	43.62
744.124	43.13
744.305	42.67
744.485	42.23
744.666	43.13
744.846	42.91
745.026	43.75
745.207	44.41
745.387	44.47
745.567	45.38
745.747	44.45
745.928	45.29
746.108	44.97
746.288	46.37
746.468	47.82
746.648	47.5
746.829	46.64
747.009	45.63
747.189	46.28
747.369	46.19
747.549	46.07
747.729	45.89
747.909	46.44
748.089	46.65
748.269	46.41
748.449	46.27
748.629	46.03
748.809	46.16
748.989	46.19
749.169	45.6
749.349	45.65
749.529	44.97
749.709	46.36
749.889	45.37
750.068	45.15
750.248	45.14
750.428	44.03
750.608	44.97
750.788	45.7
750.967	46.32
751.147	47.48
751.327	46.66
751.507	47.61
751.686	45.82
751.866	46.02
752.046	46.18
752.225	45.56
752.405	45.99
752.585	44.82
752.764	43.69
752.944	43.66
753.123	43.4
753.303	44.69
753.482	43.89
753.662	45.24
753.841	44.77
754.021	43.53
754.2	43.51
754.38	43.2
754.559	43.5
754.739	43.72
754.918	43.39
755.097	43.3
755.277	43.37
755.456	44.78
755.635	43.4
755.815	44.76
755.994	46.27
756.173	47.51
756.352	48.48
756.532	48.38
756.711	49.06
756.89	49.64
757.069	50.57
757.248	50.33
757.427	49.94
757.607	50.19
757.786	48.82
757.965	48.65
758.144	47.57
758.323	47.06
758.502	47.32
758.681	47.29
758.86	45.49
759.039	44.12
759.218	43.53
759.397	42.18
759.576	43.07
759.755	43.58
759.934	42.99
760.113	43.57
760.291	43.56
760.47	42.83
760.649	43.15
760.828	44.68
761.007	44.15
761.186	44.32
761.364	46.23
761.543	45.7
761.722	45.55
761.901	45.48
762.079	43.83
762.258	43.27
762.437	44.03
762.615	42.95
762.794	41.9
762.972	40.89
763.151	40.66
763.33	39.38
763.508	39.8
763.687	40.03
763.865	40.29
764.044	40.75
764.222	41.18
764.401	40.69
764.579	42.02
764.758	43.1
764.936	44.89
765.114	46.02
765.293	46.52
765.471	46.11
765.65	46.06
765.828	46.16
766.006	47.53
766.184	48.02
766.363	47.99
766.541	47.47
766.719	47.66
766.898	47.99
767.076	47.23
767.254	47.83
767.432	48.06
767.61	48.46
767.788	48.1
767.967	47.23
768.145	45.44
768.323	46.21
768.501	45.89
768.679	46.3
768.857	45.1
769.035	44.21
769.213	43.51
769.391	43
769.569	42.27
769.747	44.42
769.925	43.28
770.103	44.51
770.281	44.02
770.459	44.13
770.636	44.33
770.814	44.19
770.992	44.94
771.17	45.12
771.348	45.63
771.525	46.83
771.703	43.49
771.881	45.29
772.059	45.91
772.236	47.31
772.414	47.92
772.592	47.54
772.769	49.51
772.947	49.18
773.125	49.64
773.302	49.04
773.48	49.13
773.657	49.03
773.835	47.03
774.013	46.41
774.19	43.15
774.368	43.37
774.545	42.84
774.723	40.75
774.9	42.58
775.077	42.51
775.255	43.93
775.432	41.72
775.61	43.58
775.787	43.77
775.964	43.32
776.142	44.25
776.319	44.81
776.496	45.09
776.674	45.31
776.851	42.78
777.028	41.51
777.205	40.37
777.382	42.22
777.56	40.44
777.737	43.24
777.914	43.75
778.091	45.92
778.268	42.61
778.445	41.04
778.622	40.56
778.8	40.58
778.977	40.67
779.154	42.29
779.331	42.4
779.508	43.58
779.685	40.75
779.862	40.83
780.038	40.46
780.215	42.14
780.392	42.88
780.569	42.59
780.746	42.3
780.923	42.26
781.1	39.24
781.277	37.7
781.453	36.31
781.63	37.28
781.807	36.58
781.984	34.4
782.16	34.13
782.337	32.58
782.514	33.88
782.691	36.86
782.867	39.08
783.044	39.94
783.221	39.58
783.397	42.22
783.574	42.46
783.75	41.4
783.927	43.31
784.103	43.48
784.28	43.86
784.456	43.42
784.633	40.72
784.809	40.39
784.986	41.54
785.162	43.27
785.339	42.22
785.515	43.04
785.692	44.7
785.868	43.87
786.044	43.14
786.221	43.55
786.397	43.75
786.573	45.97
786.749	46.08
786.926	45.06
787.102	43.63
787.278	45.02
787.454	45.17
787.631	44.24
787.807	44.58
787.983	45.2
788.159	46.38
788.335	46.76
788.511	45.76
788.687	46.26
788.863	48.96
789.039	51.33
789.216	49.75
789.392	50.14
789.568	50.77
789.744	51.09
789.919	52.15
790.095	49.65
790.271	48
790.447	48.95
790.623	47.59
790.799	46.33
790.975	47.45
791.151	47.26
791.327	48.21
791.502	49.45
791.678	51.61
791.854	49.66
792.03	50.42
792.205	51.36
792.381	49.01
792.557	47.12
792.733	48.29
792.908	46.7
793.084	47.44
793.259	44.8
793.435	42.96
793.611	38.51
793.786	38.88
793.962	39.54
794.137	41.82
794.313	42.62
794.488	45.31
794.664	42.56
794.839	41.55
795.015	41.18
795.19	43.71
795.366	43.65
795.541	44.72
795.716	45.11
795.892	45.4
796.067	46.5
796.242	46.14
796.418	44.84
796.593	44.79
796.768	44.36
796.944	45.63
797.119	43.64
797.294	41.55
797.469	43.25
797.644	45.22
797.82	47.17
797.995	45.35
798.17	46.02
798.345	48.21
798.52	48.51
798.695	46.72
798.87	46.06
799.045	47.09
799.22	49.54
799.395	47.91
799.57	48.14
799.745	45.55
799.92	44.51
800.095	45.23
800.27	42.86
800.445	44.32
800.62	45.93
800.795	44.93
800.97	41.92
801.145	40.25
801.319	40.54
801.494	38.66
801.669	39.92
801.844	41.58
802.018	43.81
802.193	46.18
802.368	43.07
802.543	46.67
802.717	45.63
802.892	45.75
803.067	48.73
803.241	49.8
803.416	48.72
803.59	46.38
803.765	42.05
803.94	39.38
804.114	38.95
804.289	40.9
804.463	38.98
804.638	39.23
804.812	42.64
804.986	42.63
805.161	44.78
805.335	43.34
805.51	45.68
805.684	48.84
805.858	47.28
806.033	47.04
806.207	46.15
806.381	44.05
806.556	44.97
806.73	42.46
806.904	40.74
807.078	36.75
807.253	40.19
807.427	37.74
807.601	35.63
807.775	35.95
807.949	31.9
808.123	33.59
808.298	35.59
808.472	34.81
808.646	33.14
808.82	33.54
808.994	33.88
809.168	29.8
809.342	29.79
809.516	30.72
809.69	32.12
809.864	36.99
810.038	36.3
810.212	37.13
810.385	36.85
810.559	39.13
810.733	37.67
810.907	40.19
811.081	40.55
811.255	40.15
811.428	41.89
811.602	39.1
811.776	38.75
811.95	37.77
812.123	35.51
812.297	37.11
812.471	37.86
812.644	38.71
812.818	39.65
812.992	44.75
813.165	47.95
813.339	44.97
813.512	48.22
813.686	50.31
813.86	49.58
814.033	50.02
814.207	48.81
814.38	46.23
814.554	44.11
814.727	41.87
814.9	39.16
815.074	41.82
815.247	43.49
815.421	37.66
815.594	35.63
815.767	34.62
815.941	37.14
816.114	39.15
816.287	38.65
816.46	39.53
816.634	38.29
816.807	35.42
816.98	32.47
817.153	31.18
817.327	33.34
817.5	28.27
817.673	26.4
817.846	28.58
818.019	28.65
818.192	31.94
818.365	33.67
818.538	35.82
818.711	37.47
818.884	38.25
819.057	40.68
819.23	43.14
819.403	46.77
819.576	47.69
819.749	44.46
819.922	41.26
820.095	39.9
820.268	39.68
820.441	39.69
820.614	40.99
820.786	39.34
820.959	39.38
821.132	39.49
821.305	38.7
821.477	39.16
821.65	40.21
821.823	42.04
821.996	41.54
822.168	41.33
822.341	41.75
822.514	41.75
822.686	41.55
822.859	41.38
823.031	41.73
823.204	42.3
823.376	42.98
823.549	42.64
823.722	42.05
823.894	42.73
824.067	42.88
824.239	42.93
824.411	42.66
824.584	43.52
824.756	43.64
824.929	43.05
825.101	42.89
825.273	42.48
825.446	42.59
825.618	42.96
825.79	42.99
825.963	42.66
826.135	42.34
826.307	41.58
826.479	41.07
826.652	40.62
826.824	41.47
826.996	41.47
827.168	41.39
827.34	41.46
827.512	40.73
827.684	39.91
827.856	40.2
828.029	39.16
828.201	39.32
828.373	38.3
828.545	37.81
828.717	36.07
828.889	32.99
829.061	33.3
829.232	33.61
829.404	32.75
829.576	33.24
829.748	33.83
829.92	34.64
830.092	37.27
830.264	40.52
830.436	40.22
830.607	42.73
830.779	47.38
830.951	44.38
831.123	43.11
831.294	45.5
831.466	45.28
831.638	44.95
831.809	41.73
831.981	38.9
832.153	36.75
832.324	37.1
832.496	34.73
832.667	35.02
832.839	40.33
833.011	43.42
833.182	41.38
833.354	42.62
833.525	44.98
833.697	46.5
833.868	46.29
834.039	47.57
834.211	47.88
834.382	48.81
834.554	46.3
834.725	44.51
834.896	39.29
835.068	39.52
835.239	40.23
835.41	40.06
835.581	40.78
835.753	40.51
835.924	39.5
836.095	39.54
836.266	38.48
836.438	38.97
836.609	41.05
836.78	46.36
836.951	47.66
837.122	47.14
837.293	45.97
837.464	47.59
837.635	47.96
837.806	44.3
837.977	46.27
838.148	48.72
838.319	49.62
838.49	48.44
838.661	46.62
838.832	44.84
839.003	42.94
839.174	42.54
839.345	39.01
839.516	38.65
839.687	42.48
839.857	40.05
840.028	35.82
840.199	36.31
840.37	39.74
840.54	41.59
840.711	48.07
840.882	52.32
841.053	52.57
841.223	56.08
841.394	55.22
841.564	55.52
841.735	56.49
841.906	61.97
842.076	64.26
842.247	63.69
842.417	67.4
842.588	60.32
842.758	59.64
842.929	59.09
843.099	53.6
843.27	54.45
843.44	57.58
843.611	56.33
843.781	48.12
843.951	48.03
844.122	46.16
844.292	42.71
844.462	47.8
844.633	46.89
844.803	47.3
844.973	51.76
845.144	53.54
845.314	60.52
845.484	64.69
845.654	65.86
845.824	63.85
845.995	55.75
846.165	56.07
846.335	53.06
846.505	50.79
846.675	48.66
846.845	44.67
847.015	42.44
847.185	27.32
847.355	20.7
847.525	15.4
847.695	20.19
847.865	29.7
848.035	25.67
848.205	34.37
848.375	35.73
848.545	38.4
848.715	38.59
848.884	30.92
849.054	39.28
849.224	45.88
849.394	57.37
849.564	47.15
849.733	38.49
849.903	44.41
850.073	38.28
850.243	36.3
850.412	42.77
850.582	35.59
850.752	39.14
850.921	37.3
851.091	43.48
851.26	46.62
851.43	60.95
851.599	76.13
851.769	71.44
851.939	68.68
852.108	72.06
852.278	73.63
852.447	77.24
852.616	81.14
852.786	81.06
852.955	70.16
853.125	61.58
853.294	54.45
853.463	43.01
853.633	49.46
853.802	53.26
853.971	47.5
854.141	33.32
854.31	38.28
854.479	40.74
854.648	37.02
854.818	30.37
854.987	33.6
855.156	32.34
855.325	36.93
855.494	30.76
855.663	31.08
855.832	29.95
856.001	33.08
856.171	30.26
856.34	31.67
856.509	40.71
856.678	48.9
856.847	56.11
857.016	73.2
857.185	60.94
857.353	61.49
857.522	65.22
857.691	61.48
857.86	70.93
858.029	80.79
858.198	68
858.367	61.84
858.535	53.91
858.704	45.21
858.873	35.92
859.042	41.81
859.21	41.68
859.379	34.49
859.548	32.92
859.717	28.04
859.885	23.64
860.054	36.4
860.222	37.87
860.391	43.53
860.56	53.65
860.728	61.81
860.897	66.03
861.065	61.13
861.234	90.87
861.402	100.42
861.571	111.76
861.739	104.55
861.908	90.8
862.076	75.02
862.244	75.91
862.413	79.03
862.581	67.99
862.749	74.5
862.918	75.53
863.086	74.56
863.254	73.34
863.423	57.41
863.591	66.73
863.759	67.17
863.927	76.91
864.096	65.98
864.264	63.7
864.432	66.64
864.6	51.91
864.768	37.17
864.936	32.84
865.104	32.15
865.272	50.76
865.44	29.13
865.608	39.04
865.776	36.21
865.944	43.1
866.112	48
866.28	43.46
866.448	53.1
866.616	52.3
866.784	58.91
866.952	62.5
867.12	48.67
867.288	50.62
867.455	56.13
867.623	58.61
867.791	74.13
867.959	67.19
868.127	66.83
868.294	74.37
868.462	88.87
868.63	87.92
868.797	83.9
868.965	79.59
869.133	74.88
869.3	56.59
869.468	45.7
869.636	36.1
869.803	29.73
869.971	33.66
870.138	16.4
870.306	3.88
870.473	-28.41
870.641	-33.12
870.808	5.3
870.975	34.49
871.143	39.61
871.31	55.17
871.478	49.67
871.645	55.02
871.812	62.84
871.98	64.15
872.147	68.27
872.314	59.3
872.482	48.02
872.649	38.14
872.816	24.21
872.983	39.65
873.15	29.51
873.318	36.24
873.485	33.9
873.652	32.65
873.819	41.27
873.986	43.95
874.153	51.79
874.32	56.98
874.487	58.67
874.654	73.93
874.821	54.89
874.988	55.92
875.155	43.78
875.322	57.63
875.489	47.59
875.656	49.8
875.823	48.76
875.99	48.93
876.157	51
876.324	46.19
876.49	44.37
876.657	44.72
876.824	44.07
876.991	51.5
877.157	44.65
877.324	39.34
877.491	42.48
877.658	40.11
877.824	36.51
877.991	25.42
878.157	39.27
878.324	36.06
878.491	36.64
878.657	26.36
878.824	11.31
878.99	10.21
879.157	19.44
879.323	11.51
879.49	20.85
879.656	12.2
879.823	26.64
879.989	32.94
880.156	36.19
880.322	20.4
880.488	28.97
880.655	33.49
880.821	35.22
880.987	35.64
881.154	37.83
881.32	41.1
881.486	47.4
881.652	42.7
881.819	37.53
881.985	36.79
882.151	40.4
882.317	44.68
882.483	43.15
882.649	43.39
882.816	43.67
882.982	43.63
883.148	41.96
883.314	41.58
883.48	40.75
883.646	40.74
883.812	40.25
883.978	41.48
884.144	39.05
884.31	41.13
884.476	39.83
884.642	38.77
884.807	35.69
884.973	34.39
885.139	33.03
885.305	35.21
885.471	33.41
885.637	35.2
885.802	34.24
885.968	37.27
886.134	35.71
886.3	35.11
886.465	36.77
886.631	38.4
886.797	38.99
886.962	42.06
887.128	43.91
887.293	47.42
887.459	53.55
887.625	53
887.79	49.89
887.956	43.9
888.121	47.38
888.287	46.68
888.452	54.69
888.618	61.95
888.783	67.59
