Data from 2937885_Reflection_4.txt Node
Date: Wed Jul 15 14:35:07 EDT 2015
User: robert
Spectrometer: USB4E03001
Autoset integration time: false
Trigger mode: 4
Integration Time (sec): 1.000000E-1
Scans to average: 10
Electric dark correction enabled: true
Nonlinearity correction enabled: false
Boxcar width: 5
Stray light correction enabled: false
XAxis mode: Wavelengths
Stop averaging: false
Number of Pixels in Spectrum: 3648
>>>>>Begin Spectral Data<<<<<
177.566	-378.48
177.785	1467.42
178.005	76.65
178.225	84.03
178.445	80.14
178.665	307.3
178.885	-1264.38
179.105	59.09
179.324	30.57
179.544	134.23
179.764	38.54
179.984	44.66
180.204	70.76
180.423	62.87
180.643	75.01
180.863	49.42
181.083	112.4
181.302	94.92
181.522	81.95
181.742	84.73
181.961	79.94
182.181	105.57
182.401	297.42
182.621	235.43
182.84	7.4
183.06	70.1
183.279	122.67
183.499	105.02
183.719	186.63
183.938	193.09
184.158	95.83
184.377	78.07
184.597	97
184.816	95.08
185.036	81.34
185.256	106.24
185.475	124.19
185.695	129.83
185.914	126.53
186.134	101.46
186.353	98.78
186.572	106.52
186.792	175.53
187.011	1101.24
187.231	-392.45
187.45	-46.72
187.67	-126.14
187.889	127.39
188.108	116.62
188.328	274.37
188.547	668.06
188.766	119.23
188.986	181.55
189.205	159.38
189.424	74.32
189.644	102.88
189.863	82.39
190.082	77.14
190.302	72.67
190.521	59.44
190.74	70.71
190.959	76.8
191.178	71.04
191.398	70.01
191.617	62.61
191.836	85.22
192.055	86.24
192.274	81.07
192.494	117.34
192.713	124.5
192.932	101.33
193.151	94.32
193.37	108.07
193.589	209.37
193.808	373.38
194.027	-98.14
194.246	-68.44
194.465	-4.55
194.685	-23.33
194.904	-13.19
195.123	-7.97
195.342	9.74
195.561	11.66
195.78	25.04
195.999	-9.3
196.218	-28.99
196.436	-92.16
196.655	-273.68
196.874	6945.21
197.093	-206.58
197.312	-372.32
197.531	-354.47
197.75	-383.47
197.969	-325
198.188	-595.24
198.407	-687.04
198.625	-702.73
198.844	1410.07
199.063	-486.29
199.282	882.54
199.501	157.58
199.719	77.89
199.938	92.99
200.157	22.21
200.376	-5.7
200.594	20.66
200.813	604.65
201.032	-31.96
201.251	362.44
201.469	-32
201.688	226.54
201.907	16.48
202.125	-60.51
202.344	-161.79
202.563	-107.84
202.781	10.12
203	-1683.04
203.218	118.58
203.437	271.14
203.656	194.43
203.874	204.22
204.093	114.62
204.311	82.26
204.53	72.28
204.748	69.12
204.967	60.04
205.185	86.03
205.404	122.73
205.622	91.7
205.841	93.27
206.059	79.17
206.278	77.81
206.496	79.31
206.715	85.99
206.933	75.42
207.151	74.1
207.37	105.99
207.588	85.61
207.806	97.77
208.025	122.41
208.243	99.79
208.461	115.52
208.68	160.81
208.898	223.89
209.116	237.37
209.335	864.65
209.553	202.04
209.771	162.25
209.989	174.85
210.208	153.5
210.426	120.15
210.644	95.93
210.862	96.83
211.081	91.21
211.299	77.05
211.517	95.22
211.735	84.39
211.953	105.35
212.171	115.12
212.39	190.92
212.608	126.09
212.826	159.94
213.044	166.66
213.262	93.31
213.48	94.16
213.698	68.11
213.916	48.35
214.134	55.37
214.352	53.61
214.57	37.06
214.788	28.44
215.006	-1.54
215.224	1.33
215.442	17.7
215.66	26.59
215.878	47.55
216.096	70.57
216.314	50.79
216.532	48.31
216.75	64.39
216.968	107.28
217.185	147.25
217.403	132.81
217.621	157.49
217.839	202.2
218.057	302.78
218.275	327.26
218.492	152.28
218.71	163.25
218.928	157.61
219.146	166
219.363	125.25
219.581	102.54
219.799	113.87
220.017	136.19
220.234	112.81
220.452	82.4
220.67	89.03
220.887	83.75
221.105	56.16
221.323	64.3
221.54	25.05
221.758	57.7
221.976	65.3
222.193	77.48
222.411	55.81
222.629	66.53
222.846	79.17
223.064	77.31
223.281	63.18
223.499	70.75
223.716	60.88
223.934	61.24
224.151	54.51
224.369	61.4
224.586	54.96
224.804	62.17
225.021	61.39
225.239	61.58
225.456	57
225.674	65.76
225.891	57.49
226.108	47.52
226.326	37.06
226.543	47.92
226.76	43.25
226.978	46.66
227.195	39.44
227.413	30.59
227.63	31.68
227.847	30.44
228.064	32.73
228.282	28.63
228.499	31.56
228.716	30.19
228.934	29.4
229.151	27.46
229.368	24.89
229.585	22.62
229.802	23.43
230.02	20.19
230.237	16.47
230.454	12.92
230.671	14.4
230.888	13.78
231.105	12.32
231.323	12.22
231.54	10.65
231.757	14.15
231.974	19.55
232.191	27.69
232.408	33.15
232.625	36.14
232.842	43.63
233.059	42.25
233.276	41.32
233.493	43.49
233.71	32.6
233.927	33.79
234.144	30.94
234.361	34.64
234.578	26.7
234.795	24.76
235.012	29.46
235.229	29.18
235.446	33.33
235.663	33.68
235.879	34.38
236.096	39.69
236.313	38.58
236.53	38.78
236.747	34.8
236.964	32.03
237.181	35.65
237.397	28.86
237.614	23.5
237.831	20.13
238.048	24.39
238.264	28.07
238.481	30.62
238.698	30.41
238.915	33.31
239.131	28.79
239.348	30.09
239.565	30.45
239.781	30.37
239.998	30.55
240.215	27.87
240.431	24.86
240.648	23.6
240.865	19.68
241.081	21.28
241.298	16.98
241.514	16.37
241.731	16.78
241.947	13.69
242.164	13.84
242.38	14.68
242.597	14.26
242.814	13.01
243.03	11.33
243.246	10.91
243.463	10.95
243.679	12.38
243.896	12.56
244.112	14.5
244.329	15.08
244.545	15.07
244.762	12.17
244.978	13
245.194	14
245.411	11.63
245.627	12.27
245.843	9.39
246.06	8.52
246.276	9.02
246.492	6.64
246.709	7.8
246.925	7.69
247.141	9.04
247.357	9.04
247.574	9.07
247.79	11.06
248.006	10.74
248.222	11.51
248.439	12.11
248.655	12.49
248.871	12.68
249.087	11.89
249.303	12.77
249.519	13.51
249.736	15.55
249.952	16.95
250.168	18.39
250.384	20.55
250.6	21.55
250.816	21.18
251.032	21.15
251.248	23.81
251.464	21.88
251.68	20.55
251.896	19
252.112	17.76
252.328	16.28
252.544	14.99
252.76	14.6
252.976	13.86
253.192	13.85
253.408	13.09
253.624	13.39
253.84	13.51
254.056	14.19
254.272	13.96
254.487	14.63
254.703	10.6
254.919	10.66
255.135	11.53
255.351	11.75
255.567	11.59
255.782	11.52
255.998	8.7
256.214	12.85
256.43	10.86
256.646	7.95
256.861	4.22
257.077	6.75
257.293	8.4
257.508	8.9
257.724	7.97
257.94	9.13
258.155	10.12
258.371	11.45
258.587	12.58
258.802	12.31
259.018	13.33
259.234	14.26
259.449	14.57
259.665	12.56
259.88	11.38
260.096	12.73
260.312	12.51
260.527	11.78
260.743	10.92
260.958	9.27
261.174	9.44
261.389	9.2
261.605	8.69
261.82	8.37
262.036	8.73
262.251	9.88
262.466	7.17
262.682	7.28
262.897	7.55
263.113	8.19
263.328	11.28
263.543	13.01
263.759	13.35
263.974	12.86
264.189	11.4
264.405	11.99
264.62	13.33
264.835	14.38
265.051	14.31
265.266	16.11
265.481	14.53
265.696	11.93
265.912	11.72
266.127	10.19
266.342	8.58
266.557	10.08
266.773	9.99
266.988	10.13
267.203	10.29
267.418	9.89
267.633	8.87
267.848	9.91
268.064	11.61
268.279	11.38
268.494	14.39
268.709	16.09
268.924	16.18
269.139	16.54
269.354	13.96
269.569	13.66
269.784	12.22
269.999	12.86
270.214	13.47
270.429	11.47
270.644	10.14
270.859	7.27
271.074	6.72
271.289	6.01
271.504	6.24
271.719	6.49
271.934	6.5
272.149	7.24
272.363	6.83
272.578	6.1
272.793	5.77
273.008	8.01
273.223	8.92
273.438	9.74
273.653	9.94
273.867	11.19
274.082	12.13
274.297	11.11
274.512	11.77
274.726	10.97
274.941	10.8
275.156	12.34
275.371	10.06
275.585	8.82
275.8	7.66
276.015	7.79
276.229	5.33
276.444	3.19
276.659	3.52
276.873	1.15
277.088	2.5
277.302	2.91
277.517	3.11
277.732	2.73
277.946	2.3
278.161	2.95
278.375	3.19
278.59	1.83
278.804	2.96
279.019	4.43
279.233	7
279.448	6.73
279.662	5.76
279.877	3.02
280.091	3.89
280.306	5.44
280.52	4.96
280.735	3.89
280.949	5.63
281.163	7.08
281.378	7.83
281.592	6.5
281.806	6.25
282.021	7.41
282.235	10.61
282.449	9.32
282.664	8.9
282.878	9.9
283.092	11.13
283.307	11.63
283.521	11.53
283.735	10.88
283.949	11.4
284.164	12.35
284.378	11.72
284.592	10.87
284.806	11.97
285.02	12.79
285.234	11
285.449	11.9
285.663	10.25
285.877	10.87
286.091	11.09
286.305	12.19
286.519	11.49
286.733	12.52
286.947	13.13
287.161	14.08
287.375	13.97
287.589	14.84
287.803	13.64
288.017	15.54
288.231	14.87
288.445	14.33
288.659	14.11
288.873	14.22
289.087	14.44
289.301	13.37
289.515	12.15
289.729	11.25
289.943	10.51
290.157	10.81
290.371	11.49
290.584	9.97
290.798	9.07
291.012	7.16
291.226	6.44
291.44	4.66
291.654	5.67
291.867	5.86
292.081	6.16
292.295	6.3
292.509	6.18
292.722	6.34
292.936	8.28
293.15	11.11
293.364	13.05
293.577	14.49
293.791	15.18
294.005	13.32
294.218	13.83
294.432	14.02
294.645	16.25
294.859	14.69
295.073	15.09
295.286	14.91
295.5	13.66
295.713	13.95
295.927	13.34
296.14	14.09
296.354	14.94
296.568	14.55
296.781	15.44
296.994	14.51
297.208	15.57
297.421	14.88
297.635	13.76
297.848	13.33
298.062	11.96
298.275	12.01
298.489	11.64
298.702	12.13
298.915	11.94
299.129	12.25
299.342	11.79
299.555	11.6
299.769	10.8
299.982	11.76
300.195	12.03
300.409	13.58
300.622	15.24
300.835	14.56
301.048	14.92
301.262	15.91
301.475	13.49
301.688	14.95
301.901	16
302.115	17.9
302.328	17.99
302.541	18.16
302.754	18.72
302.967	17.3
303.18	18.36
303.393	18.14
303.607	18.73
303.82	18.96
304.033	18.01
304.246	15.99
304.459	13.24
304.672	14.26
304.885	14.49
305.098	13.51
305.311	15.71
305.524	15.7
305.737	15.06
305.95	14.7
306.163	16.25
306.376	17.38
306.589	18.78
306.802	20.04
307.015	18.55
307.228	19
307.44	20.09
307.653	19.16
307.866	18.43
308.079	18.32
308.292	16.38
308.505	17.45
308.718	17.56
308.93	17.34
309.143	16.23
309.356	16.83
309.569	17.15
309.781	17.7
309.994	17.5
310.207	20.37
310.42	20.66
310.632	21.71
310.845	21.39
311.058	21.46
311.27	21.96
311.483	23.95
311.696	24.45
311.908	24.94
312.121	23.49
312.333	22.87
312.546	21.33
312.759	22.13
312.971	22.02
313.184	21.89
313.396	21.92
313.609	22.25
313.821	21.65
314.034	22.14
314.246	21.18
314.459	23.52
314.671	22.25
314.884	22.07
315.096	20.9
315.309	21.04
315.521	21.4
315.733	21.31
315.946	20.93
316.158	20.9
316.371	19.73
316.583	20.07
316.795	18.09
317.008	19.32
317.22	22.25
317.432	23.45
317.644	23.91
317.857	22.85
318.069	23.49
318.281	21.98
318.494	22.5
318.706	23.68
318.918	22.04
319.13	21.71
319.342	22.49
319.555	17.56
319.767	16.03
319.979	15.78
320.191	17.03
320.403	15.47
320.615	16.6
320.827	15.83
321.039	16.27
321.252	19.33
321.464	21.56
321.676	20.65
321.888	23.03
322.1	25.06
322.312	25.64
322.524	28.36
322.736	29.67
322.948	29.79
323.16	31.2
323.372	31.88
323.584	32.16
323.796	30.61
324.007	31.56
324.219	31.14
324.431	30.46
324.643	31.53
324.855	30.64
325.067	29.43
325.279	29.77
325.491	29.08
325.702	27.32
325.914	27.48
326.126	29.23
326.338	28.35
326.55	29.12
326.761	29.37
326.973	28.64
327.185	28.33
327.396	30.19
327.608	30.69
327.82	30.56
328.032	32.48
328.243	31.26
328.455	31.19
328.666	33.22
328.878	32.98
329.09	33.2
329.301	35.23
329.513	35.29
329.725	34.18
329.936	35.26
330.148	37.1
330.359	38.28
330.571	40.45
330.782	41.14
330.994	40.6
331.205	42.17
331.417	44.26
331.628	44.38
331.84	44.1
332.051	46.89
332.262	47.45
332.474	46.71
332.685	45.19
332.897	45.41
333.108	44.06
333.319	44.56
333.531	44.14
333.742	44.43
333.953	44.38
334.165	44.83
334.376	46.31
334.587	46.22
334.799	47.42
335.01	48.5
335.221	47.43
335.432	50.26
335.644	51.44
335.855	50.56
336.066	51.11
336.277	51.04
336.488	50.77
336.7	50.25
336.911	49.97
337.122	50.14
337.333	50.61
337.544	52.83
337.755	52.55
337.966	52.68
338.177	54.44
338.388	53.76
338.599	54.58
338.811	56.83
339.022	56.52
339.233	57.35
339.444	57.63
339.655	57.77
339.866	57.77
340.076	57.77
340.287	59.13
340.498	59.98
340.709	61.09
340.92	60.91
341.131	61.36
341.342	60.32
341.553	60.48
341.764	59.16
341.975	58.55
342.185	58.22
342.396	58.04
342.607	56.87
342.818	55.77
343.029	55.36
343.239	55.17
343.45	54.27
343.661	55.01
343.872	56.08
344.082	57.46
344.293	57.3
344.504	56.23
344.714	56.55
344.925	56.73
345.136	57.09
345.346	56.45
345.557	57.33
345.768	57.6
345.978	56.93
346.189	56.05
346.399	55.28
346.61	56.83
346.821	58.28
347.031	58.28
347.242	57.65
347.452	57.5
347.663	58.09
347.873	57.6
348.084	57.25
348.294	57.29
348.504	58.21
348.715	58.47
348.925	58.12
349.136	58.21
349.346	58.8
349.557	58.63
349.767	59.56
349.977	59.94
350.188	59.88
350.398	60.02
350.608	60.97
350.819	60.63
351.029	59.97
351.239	59.58
351.449	58.86
351.66	57.57
351.87	57.33
352.08	57.15
352.29	55.25
352.501	54.69
352.711	55.15
352.921	54.88
353.131	55.34
353.341	57.14
353.552	57.53
353.762	57.58
353.972	57.88
354.182	59.65
354.392	60.62
354.602	62.22
354.812	63.46
355.022	63.25
355.232	64.1
355.442	63.37
355.652	62.47
355.862	61.48
356.072	61.46
356.282	61.7
356.492	61.66
356.702	60.71
356.912	59.82
357.122	60.45
357.332	60.09
357.542	59.1
357.752	58.87
357.962	58.77
358.171	60.03
358.381	59.76
358.591	59.73
358.801	59.24
359.011	59.3
359.221	59.79
359.43	58.73
359.64	58.35
359.85	58.89
360.06	59.43
360.269	59.34
360.479	59.07
360.689	58.93
360.899	58.27
361.108	57.83
361.318	58.23
361.528	57.63
361.737	57.58
361.947	58.5
362.156	58.23
362.366	57.92
362.576	57.29
362.785	56.95
362.995	56.32
363.204	56.89
363.414	57.71
363.623	56.8
363.833	58.42
364.042	57.71
364.252	57.25
364.461	56.38
364.671	55.58
364.88	55.22
365.09	55.07
365.299	56.76
365.509	55.87
365.718	55.46
365.927	55.87
366.137	54.98
366.346	55.35
366.555	55.6
366.765	54.97
366.974	55.75
367.183	56.04
367.393	55.28
367.602	53.97
367.811	54.66
368.021	54.41
368.23	53.12
368.439	52.41
368.648	52.88
368.857	52.28
369.067	53.64
369.276	53.07
369.485	52.91
369.694	53.38
369.903	53.37
370.112	53.07
370.321	52.65
370.531	53.63
370.74	53.26
370.949	52.16
371.158	50.58
371.367	50.42
371.576	51.2
371.785	51.56
371.994	51.32
372.203	51.21
372.412	51.16
372.621	51.11
372.83	50.49
373.039	50.39
373.248	50.13
373.457	50.48
373.666	49.94
373.874	48.7
374.083	48.43
374.292	48.21
374.501	48.06
374.71	47.46
374.919	46.9
375.128	47.77
375.336	47.37
375.545	47.44
375.754	48.28
375.963	48.21
376.171	48.9
376.38	48.61
376.589	48.31
376.798	48.03
377.006	47.86
377.215	48.24
377.424	47.59
377.632	48.33
377.841	48.79
378.05	47.88
378.258	47.69
378.467	46.62
378.675	46.3
378.884	46.35
379.093	46.89
379.301	46.68
379.51	45.84
379.718	45.42
379.927	44.87
380.135	44.25
380.344	44.71
380.552	44.8
380.761	44.98
380.969	45.23
381.177	44.83
381.386	43.97
381.594	44.43
381.803	44.66
382.011	44.63
382.219	44.54
382.428	44.09
382.636	43.83
382.845	42.8
383.053	42.87
383.261	42.3
383.469	42.14
383.678	42.02
383.886	41.43
384.094	41.51
384.302	41.43
384.511	41.3
384.719	40.89
384.927	41.21
385.135	41.38
385.343	40.95
385.552	40.93
385.76	40.68
385.968	40.17
386.176	40.6
386.384	40.09
386.592	39.91
386.8	39.64
387.008	39.73
387.216	38.72
387.424	38.47
387.633	37.95
387.841	37.95
388.049	38.17
388.257	38.34
388.465	37.51
388.672	37.11
388.88	36.44
389.088	36.07
389.296	36.33
389.504	36.79
389.712	36.44
389.92	36.59
390.128	36.48
390.336	35.94
390.544	35.83
390.751	35.6
390.959	34.96
391.167	35.17
391.375	35.12
391.583	34.94
391.79	34.51
391.998	34.71
392.206	34.42
392.414	34.03
392.621	34.34
392.829	33.97
393.037	33.63
393.244	34.22
393.452	33.78
393.66	33.77
393.867	33.47
394.075	33.33
394.283	33.5
394.49	33.52
394.698	33.77
394.905	33.59
395.113	33.6
395.32	33.88
395.528	33.53
395.735	33.83
395.943	33.51
396.15	33.64
396.358	33.88
396.565	33.72
396.773	33.58
396.98	33.26
397.188	33.53
397.395	33.7
397.602	33.59
397.81	33.82
398.017	33.72
398.225	33.57
398.432	33.65
398.639	33.77
398.847	33.35
399.054	33.45
399.261	33.48
399.468	33.11
399.676	33.35
399.883	33.59
400.09	33.55
400.297	33.71
400.505	33.97
400.712	33.48
400.919	33.47
401.126	33.72
401.333	33.66
401.54	33.32
401.748	33.34
401.955	32.84
402.162	33
402.369	33.28
402.576	32.93
402.783	32.48
402.99	32.57
403.197	32.07
403.404	32.12
403.611	32.19
403.818	32.15
404.025	32.11
404.232	32.04
404.439	31.53
404.646	31.04
404.853	30.97
405.06	31.3
405.267	31.33
405.474	31.22
405.681	31.37
405.887	31.08
406.094	31.22
406.301	31.2
406.508	31.37
406.715	31.7
406.922	31.88
407.128	31.8
407.335	31.53
407.542	31.69
407.749	31.82
407.955	31.61
408.162	31.9
408.369	31.95
408.575	31.75
408.782	31.72
408.989	31.42
409.195	31.51
409.402	31.53
409.609	31.91
409.815	31.56
410.022	31.47
410.228	31.34
410.435	31.25
410.642	31.23
410.848	31.18
411.055	30.94
411.261	30.84
411.468	30.81
411.674	31.02
411.881	30.9
412.087	31.09
412.294	31.09
412.5	31.34
412.706	31.43
412.913	31.36
413.119	31.65
413.326	31.92
413.532	32.13
413.738	32.19
413.945	31.89
414.151	31.88
414.357	31.8
414.564	31.89
414.77	31.42
414.976	31.18
415.182	30.92
415.389	30.56
415.595	30.59
415.801	30.44
416.007	30.26
416.214	30.33
416.42	30.12
416.626	29.96
416.832	29.83
417.038	30.06
417.244	30.14
417.45	30.24
417.657	30.32
417.863	29.98
418.069	29.89
418.275	29.69
418.481	29.77
418.687	29.88
418.893	30
419.099	29.89
419.305	29.6
419.511	29.61
419.717	29.54
419.923	29.43
420.129	29.56
420.335	29.46
420.541	29.5
420.746	29.35
420.952	29.33
421.158	29.24
421.364	29.17
421.57	29.13
421.776	29.12
421.982	29.09
422.187	29.09
422.393	29.06
422.599	29.01
422.805	29.05
423.01	29.22
423.216	29.06
423.422	29.1
423.628	29.16
423.833	29.26
424.039	29.14
424.245	29.19
424.45	29.09
424.656	29.04
424.862	29.13
425.067	29.06
425.273	28.88
425.478	28.89
425.684	28.72
425.889	28.7
426.095	28.67
426.301	28.78
426.506	28.71
426.712	28.67
426.917	28.57
427.123	28.62
427.328	28.67
427.533	28.6
427.739	28.53
427.944	28.61
428.15	28.41
428.355	28.24
428.561	27.99
428.766	27.85
428.971	27.79
429.177	27.85
429.382	27.55
429.587	27.35
429.793	27.32
429.998	27.39
430.203	27.24
430.408	27.44
430.614	27.59
430.819	27.6
431.024	27.63
431.229	27.58
431.434	27.54
431.64	27.73
431.845	27.82
432.05	27.85
432.255	27.74
432.46	27.85
432.665	27.85
432.87	27.71
433.076	27.65
433.281	28.01
433.486	28.26
433.691	28.26
433.896	28.34
434.101	28.42
434.306	28.7
434.511	28.74
434.716	28.68
434.921	28.6
435.126	28.73
435.331	28.78
435.535	28.42
435.74	28.42
435.945	28.31
436.15	28.1
436.355	28.08
436.56	27.84
436.765	27.93
436.97	27.71
437.174	27.72
437.379	27.74
437.584	27.71
437.789	28
437.993	27.96
438.198	27.9
438.403	28.02
438.608	27.92
438.812	27.98
439.017	27.91
439.222	28.09
439.426	28.12
439.631	28.21
439.836	28.28
440.04	28.22
440.245	27.97
440.45	28.1
440.654	28.07
440.859	28.08
441.063	27.91
441.268	27.86
441.472	28
441.677	28.04
441.881	27.75
442.086	27.76
442.29	27.7
442.495	27.87
442.699	27.94
442.904	27.92
443.108	27.97
443.312	28.04
443.517	28.09
443.721	28.01
443.925	27.89
444.13	28.04
444.334	28.18
444.538	28.13
444.743	27.95
444.947	27.85
445.151	27.85
445.356	27.87
445.56	27.93
445.764	27.92
445.968	27.82
446.173	27.92
446.377	27.96
446.581	27.79
446.785	27.73
446.989	27.91
447.193	28.02
447.398	28.01
447.602	27.95
447.806	27.93
448.01	28.06
448.214	28.08
448.418	28.07
448.622	28.2
448.826	28.31
449.03	28.2
449.234	28.29
449.438	28.15
449.642	28.11
449.846	28.08
450.05	27.85
450.254	27.67
450.458	27.52
450.662	27.53
450.866	27.25
451.069	27.13
451.273	27.09
451.477	26.82
451.681	26.92
451.885	27.03
452.089	27.06
452.292	27.18
452.496	27.12
452.7	27.24
452.904	27.29
453.107	27.31
453.311	27.39
453.515	27.53
453.719	27.56
453.922	27.34
454.126	27.16
454.33	27.07
454.533	27.1
454.737	27.15
454.94	27.1
455.144	26.97
455.348	27.08
455.551	26.9
455.755	27.03
455.958	27.28
456.162	27.41
456.365	27.43
456.569	27.36
456.772	27.2
456.976	27
457.179	27.04
457.383	27.02
457.586	26.78
457.79	26.97
457.993	26.91
458.196	26.52
458.4	26.52
458.603	26.44
458.807	26.53
459.01	26.91
459.213	27.24
459.417	27.16
459.62	27.33
459.823	27.56
460.026	27.37
460.23	27.48
460.433	27.76
460.636	27.88
460.839	27.97
461.042	28.14
461.246	27.88
461.449	27.87
461.652	28.01
461.855	27.83
462.058	27.72
462.261	27.9
462.464	27.97
462.668	27.89
462.871	27.99
463.074	27.98
463.277	27.82
463.48	27.96
463.683	27.58
463.886	27.6
464.089	27.8
464.292	27.83
464.495	27.97
464.698	27.71
464.901	27.62
465.104	27.41
465.306	27.47
465.509	27.47
465.712	27.34
465.915	27.61
466.118	27.73
466.321	27.55
466.524	27.54
466.726	27.47
466.929	27.77
467.132	27.97
467.335	27.94
467.538	27.93
467.74	27.87
467.943	28
468.146	28.02
468.348	27.8
468.551	27.8
468.754	27.82
468.956	27.64
469.159	27.41
469.362	27.26
469.564	27.33
469.767	27.36
469.969	27.65
470.172	27.86
470.375	27.74
470.577	27.92
470.78	28.1
470.982	28.2
471.185	28.34
471.387	28.3
471.59	28.45
471.792	28.54
471.995	28.7
472.197	28.45
472.399	28.38
472.602	28.4
472.804	28.17
473.007	28.11
473.209	28.2
473.411	28.13
473.614	28.27
473.816	28.19
474.018	28.03
474.22	27.81
474.423	27.92
474.625	27.71
474.827	27.75
475.03	27.95
475.232	27.88
475.434	27.7
475.636	27.9
475.838	27.75
476.04	27.77
476.243	27.74
476.445	28.02
476.647	28.11
476.849	28.14
477.051	28.1
477.253	28.05
477.455	28.06
477.657	28.06
477.859	27.9
478.061	28.05
478.263	28.14
478.465	28.29
478.667	28.2
478.869	27.99
479.071	27.94
479.273	27.76
479.475	27.9
479.677	27.74
479.879	27.75
480.081	27.88
480.283	27.84
480.485	27.79
480.686	27.87
480.888	27.85
481.09	27.86
481.292	28.11
481.494	28.28
481.695	28.21
481.897	28.29
482.099	28.19
482.301	28.14
482.502	28.02
482.704	28.05
482.906	27.87
483.107	27.87
483.309	27.97
483.511	27.89
483.712	27.93
483.914	27.98
484.115	27.98
484.317	28.03
484.519	28
484.72	28.05
484.922	28
485.123	28.13
485.325	28.16
485.526	28.03
485.728	28.05
485.929	28.04
486.131	27.96
486.332	27.97
486.534	27.92
486.735	28
486.936	27.88
487.138	27.86
487.339	27.79
487.541	27.77
487.742	27.8
487.943	27.84
488.144	27.87
488.346	27.92
488.547	27.98
488.748	28.04
488.95	28.05
489.151	28.2
489.352	28.22
489.553	28.21
489.755	28.15
489.956	28.25
490.157	28.16
490.358	28.19
490.559	28.1
490.76	28.01
490.961	27.92
491.163	27.92
491.364	27.94
491.565	27.92
491.766	28.01
491.967	28
492.168	28.01
492.369	28.16
492.57	28.14
492.771	28.25
492.972	28.31
493.173	28.41
493.374	28.39
493.575	28.3
493.776	28.49
493.976	28.37
494.177	28.6
494.378	28.62
494.579	28.37
494.78	28.12
494.981	27.9
495.182	27.98
495.382	28.1
495.583	28.26
495.784	28.43
495.985	28.22
496.185	28.36
496.386	28.51
496.587	28.58
496.788	28.85
496.988	29.02
497.189	29.16
497.39	29.09
497.59	29.07
497.791	29.12
497.992	29.07
498.192	29.18
498.393	29.39
498.593	29.13
498.794	29.15
498.994	29.06
499.195	29.08
499.395	29.16
499.596	29.04
499.796	29.02
499.997	28.9
500.197	28.98
500.398	29.08
500.598	28.98
500.799	29.32
500.999	29.35
501.199	29.29
501.4	29.55
501.6	29.61
501.801	29.83
502.001	29.75
502.201	29.87
502.402	29.77
502.602	29.66
502.802	29.79
503.002	29.6
503.203	29.76
503.403	30.15
503.603	30.03
503.803	30.17
504.003	30.21
504.204	30.42
504.404	30.25
504.604	30.29
504.804	30.43
505.004	30.24
505.204	30.3
505.404	30.32
505.604	30.18
505.804	30.29
506.005	30.36
506.205	30.49
506.405	30.53
506.605	30.58
506.805	30.87
507.005	31
507.204	31.04
507.404	31.17
507.604	31.25
507.804	31.4
508.004	31.54
508.204	31.48
508.404	31.52
508.604	31.62
508.804	31.89
509.003	31.82
509.203	31.97
509.403	32.18
509.603	32.32
509.803	32.39
510.002	32.3
510.202	32.32
510.402	32.42
510.602	32.51
510.801	32.49
511.001	32.48
511.201	32.82
511.4	32.74
511.6	32.72
511.8	32.74
511.999	32.88
512.199	33.06
512.398	33.02
512.598	33.12
512.797	33.33
512.997	33.38
513.197	33.41
513.396	33.31
513.596	33.43
513.795	33.54
513.994	33.69
514.194	33.77
514.393	33.85
514.593	34.05
514.792	34.04
514.992	34.09
515.191	34.2
515.39	34.4
515.59	34.65
515.789	34.91
515.988	34.99
516.188	35.18
516.387	35.3
516.586	35.44
516.786	35.51
516.985	35.72
517.184	35.96
517.383	36.21
517.582	36.25
517.782	36.27
517.981	36.28
518.18	36.52
518.379	36.55
518.578	36.61
518.777	36.9
518.976	37.09
519.176	37.33
519.375	37.18
519.574	37.11
519.773	37.34
519.972	37.48
520.171	37.64
520.37	37.59
520.569	37.76
520.768	37.81
520.967	37.73
521.166	37.76
521.365	37.75
521.564	37.99
521.762	38.2
521.961	38.33
522.16	38.45
522.359	38.63
522.558	38.81
522.757	39.07
522.956	39.39
523.154	39.45
523.353	39.64
523.552	39.82
523.751	39.99
523.949	40.13
524.148	40.24
524.347	40.39
524.546	40.5
524.744	40.69
524.943	40.49
525.142	40.56
525.34	40.66
525.539	40.75
525.737	40.81
525.936	40.76
526.135	40.87
526.333	40.89
526.532	41.13
526.73	41.14
526.929	41.23
527.127	41.61
527.326	41.62
527.524	41.75
527.723	41.87
527.921	41.97
528.12	42.13
528.318	42.21
528.516	42.26
528.715	42.2
528.913	42.38
529.112	42.62
529.31	42.57
529.508	42.73
529.707	42.79
529.905	42.87
530.103	42.91
530.301	43.04
530.5	43.16
530.698	43.35
530.896	43.53
531.094	43.5
531.293	43.31
531.491	43.45
531.689	43.42
531.887	43.54
532.085	43.57
532.283	43.76
532.481	43.86
532.68	44.07
532.878	44.15
533.076	44.37
533.274	44.52
533.472	44.79
533.67	44.95
533.868	45.14
534.066	45.24
534.264	45.44
534.462	45.53
534.66	45.65
534.858	45.61
535.056	45.59
535.253	45.57
535.451	45.74
535.649	45.72
535.847	45.65
536.045	45.72
536.243	45.76
536.441	45.84
536.638	45.87
536.836	45.97
537.034	46.06
537.232	46.26
537.43	46.23
537.627	46.15
537.825	46.11
538.023	46.18
538.22	46.11
538.418	46.29
538.616	46.39
538.813	46.33
539.011	46.32
539.209	46.32
539.406	46.47
539.604	46.49
539.801	46.57
539.999	46.82
540.196	47
540.394	47.13
540.591	47.21
540.789	47.28
540.986	47.36
541.184	47.44
541.381	47.62
541.579	47.65
541.776	47.72
541.974	47.79
542.171	47.77
542.368	47.8
542.566	47.85
542.763	47.84
542.96	47.76
543.158	47.96
543.355	48.08
543.552	48.09
543.75	48.07
543.947	48.06
544.144	47.95
544.341	48
544.539	47.9
544.736	48
544.933	48.07
545.13	48.2
545.327	48.18
545.524	48.02
545.722	48.04
545.919	48.28
546.116	48.37
546.313	48.59
546.51	48.64
546.707	48.87
546.904	48.95
547.101	48.99
547.298	49
547.495	49.01
547.692	49.24
547.889	49.24
548.086	49.09
548.283	49.21
548.48	49.49
548.677	49.74
548.874	49.87
549.07	49.65
549.267	49.75
549.464	49.79
549.661	49.89
549.858	49.8
550.055	50.03
550.251	49.94
550.448	50.12
550.645	49.87
550.842	49.56
551.038	49.41
551.235	49.68
551.432	49.54
551.628	49.69
551.825	49.48
552.022	49.56
552.218	49.27
552.415	49.55
552.612	49.6
552.808	49.76
553.005	50.06
553.201	50.18
553.398	50.11
553.594	50.38
553.791	50.52
553.987	50.75
554.184	50.78
554.38	51.29
554.577	51.28
554.773	51.22
554.97	51.2
555.166	51.34
555.362	51.34
555.559	51.59
555.755	51.59
555.952	51.55
556.148	51.71
556.344	51.66
556.541	51.29
556.737	51.23
556.933	51.52
557.129	51.66
557.326	51.46
557.522	51.66
557.718	51.85
557.914	51.67
558.11	51.78
558.307	51.83
558.503	51.94
558.699	52.41
558.895	52.44
559.091	52.04
559.287	51.79
559.483	51.73
559.679	51.58
559.876	51.26
560.072	51.49
560.268	51.14
560.464	50.94
560.66	51.07
560.856	50.89
561.052	51.12
561.247	51.44
561.443	51.54
561.639	51.76
561.835	51.88
562.031	51.87
562.227	51.83
562.423	52.04
562.619	52.12
562.815	52.14
563.01	52.28
563.206	52.26
563.402	52.33
563.598	52.31
563.793	52.22
563.989	52.24
564.185	52.31
564.381	52.45
564.576	52.54
564.772	52.63
564.968	52.67
565.163	52.56
565.359	52.67
565.555	52.87
565.75	52.91
565.946	53.18
566.141	53.19
566.337	53.31
566.532	53.26
566.728	53.39
566.923	53.38
567.119	53.29
567.314	53.21
567.51	53.29
567.705	53.2
567.901	53.31
568.096	53.07
568.292	53.03
568.487	53.13
568.682	53.22
568.878	52.96
569.073	53.15
569.268	53.31
569.464	53.72
569.659	53.67
569.854	53.65
570.05	53.85
570.245	53.74
570.44	53.77
570.635	53.55
570.831	53.75
571.026	53.92
571.221	53.91
571.416	53.81
571.611	53.53
571.806	53.66
572.002	53.67
572.197	53.53
572.392	53.75
572.587	53.79
572.782	53.92
572.977	53.99
573.172	54.08
573.367	54.03
573.562	54.28
573.757	54.26
573.952	54.13
574.147	54.17
574.342	54.3
574.537	54.21
574.732	54.26
574.927	54.27
575.121	54.12
575.316	53.89
575.511	53.77
575.706	53.6
575.901	53.65
576.096	53.73
576.29	53.52
576.485	53.43
576.68	53.53
576.875	53.39
577.069	53.65
577.264	53.59
577.459	53.66
577.654	53.8
577.848	53.88
578.043	54.09
578.238	53.92
578.432	54.1
578.627	53.82
578.821	53.89
579.016	53.88
579.21	53.69
579.405	53.9
579.6	54.23
579.794	54.3
579.989	54.2
580.183	54.11
580.378	54.06
580.572	54.19
580.766	54.58
580.961	54.57
581.155	55.17
581.35	55.06
581.544	54.83
581.738	54.8
581.933	54.71
582.127	54.87
582.321	54.67
582.516	54.73
582.71	54.4
582.904	54.38
583.099	54.4
583.293	54.1
583.487	54.24
583.681	54.19
583.875	54.12
584.07	54.02
584.264	54.2
584.458	54.64
584.652	54.61
584.846	55.07
585.04	55.28
585.234	55.42
585.428	55.39
585.623	55.34
585.817	55.37
586.011	55.09
586.205	55.2
586.399	54.91
586.593	54.79
586.787	55.14
586.981	55.07
587.174	54.67
587.368	54.88
587.562	54.96
587.756	55
587.95	55.42
588.144	55.6
588.338	55.9
588.532	56.21
588.725	56.28
588.919	56.24
589.113	56.43
589.307	56.5
589.501	56.25
589.694	56.27
589.888	56.53
590.082	56.19
590.275	56.48
590.469	56.45
590.663	56.18
590.856	56.18
591.05	56.4
591.244	56.38
591.437	56.52
591.631	56.63
591.824	56.59
592.018	56.33
592.212	56.55
592.405	56.38
592.599	56.07
592.792	56.52
592.986	56.45
593.179	56.16
593.372	55.82
593.566	56.08
593.759	55.75
593.953	56.06
594.146	56.19
594.339	56.12
594.533	56.34
594.726	56.57
594.92	56.21
595.113	56.16
595.306	56.43
595.499	56.57
595.693	56.12
595.886	56.13
596.079	56.17
596.272	56.13
596.466	56.32
596.659	56.36
596.852	56.7
597.045	56.91
597.238	57.2
597.431	57.15
597.624	57.11
597.818	57.26
598.011	57.62
598.204	57.29
598.397	57.3
598.59	57.11
598.783	56.99
598.976	56.55
599.169	56.19
599.362	55.94
599.555	55.89
599.748	55.87
599.941	56.05
600.134	56.14
600.326	56.5
600.519	56.8
600.712	57.12
600.905	57.18
601.098	57.34
601.291	57.88
601.483	57.88
601.676	57.82
601.869	58.11
602.062	57.98
602.255	57.58
602.447	57.37
602.64	57.49
602.833	57.35
603.025	57.31
603.218	57.24
603.411	57.1
603.603	56.91
603.796	57.01
603.989	57.07
604.181	57.06
604.374	57.13
604.566	57.15
604.759	56.71
604.951	56.8
605.144	56.86
605.336	57.18
605.529	56.93
605.721	57.15
605.914	57.2
606.106	57.07
606.299	57.31
606.491	57.37
606.683	57.49
606.876	57.91
607.068	57.94
607.26	57.89
607.453	57.79
607.645	58.22
607.837	58.46
608.03	58.59
608.222	58.69
608.414	58.5
608.606	58.49
608.799	58.46
608.991	58.33
609.183	58.12
609.375	58.2
609.567	58.12
609.759	57.97
609.952	57.54
610.144	57.37
610.336	57.11
610.528	57.06
610.72	56.94
610.912	56.75
611.104	56.63
611.296	56.56
611.488	56.3
611.68	56.04
611.872	56.14
612.064	56.27
612.256	56.21
612.448	56.27
612.64	56.07
612.832	56.21
613.023	56.39
613.215	56.53
613.407	56.73
613.599	56.98
613.791	56.8
613.983	56.73
614.174	56.69
614.366	56.91
614.558	56.75
614.75	57.38
614.941	57.3
615.133	57.25
615.325	57.35
615.516	57.52
615.708	57.57
615.9	58.14
616.091	57.93
616.283	58.08
616.475	57.64
616.666	57.75
616.858	57.29
617.049	57.43
617.241	57.41
617.432	57.12
617.624	56.86
617.815	56.67
618.007	56.7
618.198	57.13
618.39	56.93
618.581	57.18
618.773	57.31
618.964	57.35
619.155	57.25
619.347	57.45
619.538	57.81
619.729	57.61
619.921	57.62
620.112	57.45
620.303	57.23
620.494	57.3
620.686	57.25
620.877	57.36
621.068	57.5
621.259	57.62
621.451	57.72
621.642	57.54
621.833	57.77
622.024	57.92
622.215	57.95
622.406	57.98
622.597	58.28
622.788	58.36
622.98	58.18
623.171	58.74
623.362	58.64
623.553	58.52
623.744	58.47
623.935	58.56
624.126	58.47
624.317	58.79
624.508	58.97
624.698	59
624.889	59.15
625.08	59.17
625.271	58.97
625.462	59.02
625.653	58.57
625.844	58.46
626.034	58.46
626.225	58.54
626.416	58.33
626.607	58.24
626.798	58.56
626.988	58.43
627.179	58.48
627.37	58.33
627.56	58.38
627.751	58.91
627.942	59.23
628.132	59.23
628.323	59.32
628.514	59.36
628.704	59.39
628.895	58.75
629.085	58.53
629.276	58.53
629.466	58.21
629.657	58.33
629.847	58.04
630.038	57.69
630.228	57.72
630.419	57.41
630.609	57.6
630.8	57.63
630.99	58.15
631.181	58.46
631.371	58.51
631.561	58.8
631.752	58.78
631.942	58.88
632.132	59.22
632.323	59.23
632.513	59.31
632.703	58.89
632.893	58.98
633.084	58.79
633.274	58.55
633.464	58.35
633.654	58.46
633.844	58.21
634.034	58.79
634.225	58.83
634.415	58.65
634.605	58.87
634.795	58.94
634.985	58.83
635.175	58.62
635.365	58.82
635.555	58.98
635.745	58.77
635.935	59.03
636.125	58.62
636.315	58.23
636.505	58.6
636.695	58.16
636.885	58.3
637.075	58.1
637.265	58.23
637.455	58.19
637.644	58.4
637.834	58.52
638.024	58.39
638.214	58.14
638.404	58.4
638.593	58.1
638.783	58.56
638.973	58.53
639.163	58.66
639.352	58.41
639.542	58.46
639.732	58.12
639.921	57.95
640.111	57.97
640.301	57.98
640.49	58.04
640.68	58.13
640.87	57.81
641.059	58.01
641.249	58.04
641.438	58.3
641.628	58.15
641.817	58.47
642.007	58.42
642.196	58.2
642.386	58.14
642.575	57.94
642.764	57.68
642.954	58.36
643.143	57.97
643.333	58.58
643.522	58.36
643.711	58.47
643.901	58.01
644.09	58.33
644.279	58.32
644.469	58.25
644.658	58.66
644.847	59.01
645.036	58.67
645.226	58.61
645.415	57.62
645.604	57.74
645.793	58
645.982	58.13
646.171	57.81
646.361	58.45
646.55	58.56
646.739	58.43
646.928	58.06
647.117	57.21
647.306	57.46
647.495	57.45
647.684	57.8
647.873	57.09
648.062	57.82
648.251	57.96
648.44	57.37
648.629	57.38
648.818	57.58
649.007	57.41
649.196	58.12
649.384	58.44
649.573	58.51
649.762	58.47
649.951	58.96
650.14	58.09
650.328	58.15
650.517	58.43
650.706	58.59
650.895	58.41
651.083	58.16
651.272	58.02
651.461	57.71
651.65	58.07
651.838	57.69
652.027	57.66
652.216	58.07
652.404	58.59
652.593	58.33
652.781	58.11
652.97	57.94
653.158	58.6
653.347	58.52
653.535	58.5
653.724	58.51
653.912	58.55
654.101	58.86
654.289	59.02
654.478	58.73
654.666	58.75
654.855	59.02
655.043	59.23
655.231	59.24
655.42	59.48
655.608	59.42
655.796	59.36
655.985	59.17
656.173	59.2
656.361	58.99
656.55	58.99
656.738	59.22
656.926	59.22
657.114	59.08
657.302	59.48
657.491	59.16
657.679	59.47
657.867	59.83
658.055	59.98
658.243	60.05
658.431	60.21
658.619	59.85
658.807	59.57
658.996	59.64
659.184	59.45
659.372	59.1
659.56	59.34
659.748	59.12
659.936	58.78
660.124	58.93
660.311	58.61
660.499	58.52
660.687	58.75
660.875	59.11
661.063	59.33
661.251	59.68
661.439	59.19
661.627	59.06
661.814	59.22
662.002	59.12
662.19	59.39
662.378	59.22
662.565	58.78
662.753	58.64
662.941	58.52
663.129	58.29
663.316	57.73
663.504	58.3
663.692	58.34
663.879	57.95
664.067	58.08
664.254	57.19
664.442	57.25
664.63	57.53
664.817	57.34
665.005	57.16
665.192	56.95
665.38	57.26
665.567	57.5
665.755	57.79
665.942	58.35
666.13	58.16
666.317	58.29
666.504	58.63
666.692	58.75
666.879	58.66
667.067	58.6
667.254	58.35
667.441	58.58
667.629	58.53
667.816	58.12
668.003	57.51
668.19	57.57
668.378	58.11
668.565	58.1
668.752	58.17
668.939	58.19
669.127	58.34
669.314	58.54
669.501	58
669.688	57.81
669.875	57.9
670.062	58.32
670.249	58.6
670.436	58.52
670.623	58.55
670.81	58.03
670.997	58.51
671.184	58.16
671.371	58.21
671.558	58.25
671.745	57.94
671.932	58.18
672.119	57.58
672.306	57.37
672.493	57.47
672.68	57.54
672.867	58.04
673.054	57.68
673.24	57.97
673.427	57.96
673.614	58.16
673.801	58.69
673.988	58.71
674.174	59.52
674.361	59.75
674.548	59.51
674.734	58.8
674.921	59.1
675.108	59.36
675.294	59.3
675.481	59.2
675.668	59.59
675.854	59.4
676.041	59.11
676.227	58.72
676.414	58.42
676.601	58.21
676.787	59.03
676.974	58.53
677.16	58.06
677.347	58.19
677.533	58.3
677.719	58.05
677.906	57.97
678.092	58.09
678.279	58.29
678.465	58.35
678.651	58.7
678.838	58.7
679.024	58.81
679.21	59.51
679.397	59.83
679.583	59.75
679.769	59.7
679.955	59.58
680.142	59.51
680.328	59.38
680.514	59.42
680.7	58.88
680.886	58.65
681.073	58.56
681.259	58.24
681.445	58.05
681.631	58.09
681.817	58.47
682.003	58.61
682.189	58.88
682.375	58.86
682.561	58.92
682.747	59.44
682.933	59.41
683.119	59.86
683.305	59.76
683.491	59.72
683.677	59.68
683.863	59.43
684.049	59.29
684.235	59.33
684.42	59.57
684.606	59.8
684.792	59.91
684.978	60.17
685.164	60.22
685.349	60.05
685.535	59.66
685.721	59.87
685.907	59.53
686.092	59.91
686.278	59.5
686.464	59.48
686.649	59.41
686.835	58.97
687.021	58.24
687.206	57.57
687.392	57.82
687.577	58.26
687.763	58.18
687.948	58.48
688.134	58.65
688.319	58.95
688.505	59.01
688.69	58.58
688.876	58.72
689.061	58.83
689.247	59.3
689.432	59.25
689.618	58.99
689.803	58.82
689.988	58.63
690.174	57.62
690.359	57.51
690.544	56.95
690.73	56.37
690.915	56.56
691.1	56.82
691.285	56.56
691.471	56.97
691.656	56.84
691.841	56.79
692.026	57.32
692.211	58.13
692.396	57.6
692.582	58.13
692.767	59.31
692.952	60.03
693.137	59.94
693.322	59.59
693.507	59.09
693.692	59.01
693.877	59.34
694.062	59.25
694.247	59.12
694.432	59.5
694.617	59.29
694.802	59.12
694.987	58.34
695.172	59.15
695.357	59.77
695.541	59.42
695.726	59.5
695.911	59.17
696.096	58.97
696.281	59.05
696.466	59.38
696.65	58.75
696.835	58.23
697.02	58.5
697.204	57.65
697.389	57.11
697.574	57.17
697.759	57.07
697.943	57
698.128	57.38
698.312	57.16
698.497	56.68
698.682	57.07
698.866	57.66
699.051	57.4
699.235	57.62
699.42	57.88
699.604	58.42
699.789	58.71
699.973	58.78
700.158	58.44
700.342	58.61
700.527	58.91
700.711	59
700.895	58.86
701.08	58.77
701.264	59.19
701.448	59.25
701.633	59.07
701.817	58.98
702.001	58.87
702.186	59
702.37	59.09
702.554	58.73
702.738	58.71
702.923	58.18
703.107	58.19
703.291	58.2
703.475	58
703.659	58.05
703.843	58.89
704.027	59.31
704.212	59.37
704.396	58.6
704.58	59.21
704.764	58.85
704.948	59.68
705.132	59.26
705.316	58.57
705.5	58.7
705.684	58.47
705.868	58
706.052	58.41
706.235	58.43
706.419	58.44
706.603	58.34
706.787	58.35
706.971	57.93
707.155	59.02
707.339	59.13
707.522	59.35
707.706	58.66
707.89	58.47
708.074	58.59
708.257	58.42
708.441	58.82
708.625	58.68
708.808	59.67
708.992	59.2
709.176	58.47
709.359	58.13
709.543	57.19
709.727	58.2
709.91	58.41
710.094	57.94
710.277	57.83
710.461	58.38
710.644	59.11
710.828	58.22
711.011	58.18
711.195	58.58
711.378	58.9
711.562	60.16
711.745	59.64
711.928	59.08
712.112	58.51
712.295	57.53
712.478	57.32
712.662	56.46
712.845	56.69
713.028	56.53
713.212	55.73
713.395	55.72
713.578	55.33
713.761	55.4
713.945	55.76
714.128	57.12
714.311	58.49
714.494	58.39
714.677	59.08
714.86	59.38
715.043	59.58
715.227	60.19
715.41	59.72
715.593	60.25
715.776	60.38
715.959	60.57
716.142	59.33
716.325	59
716.508	58.25
716.691	56.88
716.874	56.69
717.057	57.57
717.239	58.15
717.422	58.45
717.605	57.41
717.788	57.64
717.971	57.83
718.154	58.57
718.337	58.34
718.519	58.65
718.702	59.73
718.885	59.89
719.068	59.2
719.25	58.4
719.433	58.78
719.616	59.97
719.798	58.94
719.981	59.12
720.164	59.27
720.346	59.59
720.529	58.92
720.712	58.81
720.894	57.7
721.077	58.5
721.259	59.14
721.442	58.77
721.624	57.98
721.807	58.84
721.989	58.22
722.172	57.52
722.354	57.28
722.537	57.53
722.719	58.12
722.901	58.23
723.084	58.55
723.266	57.47
723.448	57.33
723.631	57.34
723.813	57.42
723.995	57.77
724.178	58.42
724.36	58.43
724.542	59.99
724.724	58.26
724.907	59.21
725.089	58.01
725.271	58.31
725.453	58.94
725.635	58.3
725.817	57.79
725.999	57.37
726.181	56.01
726.364	55.81
726.546	56.18
726.728	57.84
726.91	58.12
727.092	59.08
727.274	58.92
727.456	58.91
727.638	60.38
727.819	60.35
728.001	60.72
728.183	61.26
728.365	61.19
728.547	60.9
728.729	61.09
728.911	61.14
729.093	60.09
729.274	60.84
729.456	61.18
729.638	61.03
729.82	61.02
730.001	61.3
730.183	61.48
730.365	62.12
730.546	60.81
730.728	60.94
730.91	60.48
731.091	60.96
731.273	60.17
731.455	59.19
731.636	58.82
731.818	58.68
731.999	57.38
732.181	57.81
732.362	57.29
732.544	56.92
732.725	56.71
732.907	56.67
733.088	56.22
733.27	57.07
733.451	56.82
733.633	56.89
733.814	57.64
733.995	57.85
734.177	57.41
734.358	57.53
734.539	58.98
734.721	58.21
734.902	57.99
735.083	57.68
735.264	56.1
735.446	57.37
735.627	57.17
735.808	56.19
735.989	56.18
736.17	54.78
736.351	54.35
736.533	54.22
736.714	54.29
736.895	53.82
737.076	54.08
737.257	56.11
737.438	55.74
737.619	55.97
737.8	55.92
737.981	56.81
738.162	57.93
738.343	58.38
738.524	58.67
738.705	59
738.886	59.55
739.067	59.21
739.247	58.34
739.428	57.06
739.609	56.24
739.79	56.94
739.971	55.64
740.151	56.45
740.332	56.05
740.513	55.51
740.694	55.3
740.874	56.62
741.055	57.46
741.236	58.08
741.417	58.66
741.597	59.23
741.778	59.21
741.958	61.12
742.139	60.81
742.32	60.13
742.5	59.44
742.681	59.61
742.861	57.85
743.042	56.3
743.222	57.01
743.403	57.16
743.583	56.2
743.764	56.6
743.944	56.77
744.124	57.02
744.305	58.34
744.485	59
744.666	60.47
744.846	61.01
745.026	61.47
745.207	60.02
745.387	60.26
745.567	62.09
745.747	61.02
745.928	59.95
746.108	59.23
746.288	60.2
746.468	60.5
746.648	60.16
746.829	59.17
747.009	60.23
747.189	59.59
747.369	59.51
747.549	58.16
747.729	60.07
747.909	60.31
748.089	60.75
748.269	59.74
748.449	59.38
748.629	58.83
748.809	58.97
748.989	58.55
749.169	59.58
749.349	59.62
749.529	59.35
749.709	58.62
749.889	58.44
750.068	58.12
750.248	58.86
750.428	59.02
750.608	57.93
750.788	58.48
750.967	59.49
751.147	60.56
751.327	61.1
751.507	60.38
751.686	60.06
751.866	60.5
752.046	61.64
752.225	59.02
752.405	60.45
752.585	61.05
752.764	61.23
752.944	60.73
753.123	59.09
753.303	59.81
753.482	61.32
753.662	60.38
753.841	60.45
754.021	58.14
754.2	59.23
754.38	57.92
754.559	59.23
754.739	59.32
754.918	59.27
755.097	59.04
755.277	57.49
755.456	56.12
755.635	57.26
755.815	54.7
755.994	56.18
756.173	57.05
756.352	57.13
756.532	56.46
756.711	56.13
756.89	56.21
757.069	57.01
757.248	57.23
757.427	57.43
757.607	56.23
757.786	58.49
757.965	58.22
758.144	57.29
758.323	56.41
758.502	55.58
758.681	55.8
758.86	55.94
759.039	55.21
759.218	55.81
759.397	58.01
759.576	58.74
759.755	58.39
759.934	57.87
760.113	58.47
760.291	58.13
760.47	57.79
760.649	57.32
760.828	57.9
761.007	57.71
761.186	58.06
761.364	57.12
761.543	57.9
761.722	57.83
761.901	56.61
762.079	57.22
762.258	59.04
762.437	59.17
762.615	59.03
762.794	58.87
762.972	59.46
763.151	58.01
763.33	57.45
763.508	56.19
763.687	56.45
763.865	57.87
764.044	57.77
764.222	57.38
764.401	57.29
764.579	58.03
764.758	58.43
764.936	58.22
765.114	59.42
765.293	59.6
765.471	60.9
765.65	60.68
765.828	61.1
766.006	60.03
766.184	59.11
766.363	59.96
766.541	58.99
766.719	57.88
766.898	57.25
767.076	56.74
767.254	55.39
767.432	53.61
767.61	53.03
767.788	51.75
767.967	52.63
768.145	51.63
768.323	49.44
768.501	50.81
768.679	51.59
768.857	50.98
769.035	49.74
769.213	52.21
769.391	53.09
769.569	53.89
769.747	55.24
769.925	56.49
770.103	57.8
770.281	58.91
770.459	57.29
770.636	55.92
770.814	57.16
770.992	57.33
771.17	55.67
771.348	54.04
771.525	53.84
771.703	52.29
771.881	50.59
772.059	50.97
772.236	52.78
772.414	54.05
772.592	54.7
772.769	55.04
772.947	56.31
773.125	59.03
773.302	62.14
773.48	60.26
773.657	58.78
773.835	58.4
774.013	59.32
774.19	57.41
774.368	55.17
774.545	54.8
774.723	56.91
774.9	54.62
775.077	52.89
775.255	54.35
775.432	56.22
775.61	59.82
775.787	60.3
775.964	60.3
776.142	61.43
776.319	63.36
776.496	62.01
776.674	61.48
776.851	63.7
777.028	62.8
777.205	60.55
777.382	60.5
777.56	59.43
777.737	58.1
777.914	57.18
778.091	55.85
778.268	54.93
778.445	55.81
778.622	54.14
778.8	54.63
778.977	52.83
779.154	50.29
779.331	50.08
779.508	50.02
779.685	53.12
779.862	53.78
780.038	54.59
780.215	55.02
780.392	53.83
780.569	56.66
780.746	54.9
780.923	59.23
781.1	60.19
781.277	60.44
781.453	59.99
781.63	59.16
781.807	57.63
781.984	58.02
782.16	57.11
782.337	58.51
782.514	57.31
782.691	59.14
782.867	56.63
783.044	58.48
783.221	58.46
783.397	59.12
783.574	57.77
783.75	59.13
783.927	58.31
784.103	59.46
784.28	60.35
784.456	57.46
784.633	55.88
784.809	58.71
784.986	58.59
785.162	60.2
785.339	59.21
785.515	59.62
785.692	57.86
785.868	58.34
786.044	58.6
786.221	59.61
786.397	61.81
786.573	63.36
786.749	60.14
786.926	59.57
787.102	55.12
787.278	57.41
787.454	55.95
787.631	58.73
787.807	57.13
787.983	55.56
788.159	51.54
788.335	50.76
788.511	51.27
788.687	52.99
788.863	53.27
789.039	55.32
789.216	52.89
789.392	54.76
789.568	54.2
789.744	54.91
789.919	57.89
790.095	56.95
790.271	57.69
790.447	59.45
790.623	60.05
790.799	60.2
790.975	60.1
791.151	59.6
791.327	58.12
791.502	53.3
791.678	54.07
791.854	51.49
792.03	53.58
792.205	52.76
792.381	48.4
792.557	46.94
792.733	46.49
792.908	48.41
793.084	48.95
793.259	51.46
793.435	56.75
793.611	55.65
793.786	58.2
793.962	60.92
794.137	60.12
794.313	62.28
794.488	63.09
794.664	63.56
794.839	60.31
795.015	61.15
795.19	56.15
795.366	56.43
795.541	57.44
795.716	55.44
795.892	54.13
796.067	52.35
796.242	52.43
796.418	50.34
796.593	50.94
796.768	52.6
796.944	53.42
797.119	57.58
797.294	58.39
797.469	55.57
797.644	54.71
797.82	55.55
797.995	57.76
798.17	56.77
798.345	57.14
798.52	52.3
798.695	56.03
798.87	53.82
799.045	52.26
799.22	48.93
799.395	53.7
799.57	55.61
799.745	55.96
799.92	57.78
800.095	56.37
800.27	56.22
800.445	59.31
800.62	55.79
800.795	57.33
800.97	56.59
801.145	60.58
801.319	57.56
801.494	60.66
801.669	58.6
801.844	60.74
802.018	64.83
802.193	65.3
802.368	65.34
802.543	64.2
802.717	65.46
802.892	66.16
803.067	65.85
803.241	65.19
803.416	57.8
803.59	56.82
803.765	54.94
803.94	54.53
804.114	54.92
804.289	57.1
804.463	56.61
804.638	52.89
804.812	49.4
804.986	47.62
805.161	45.53
805.335	48.6
805.51	48.55
805.684	50.29
805.858	48.13
806.033	47.39
806.207	48.6
806.381	48.85
806.556	51.3
806.73	51.05
806.904	48.34
807.078	49.37
807.253	49.05
807.427	47.8
807.601	46.87
807.775	48.56
807.949	48.77
808.123	42.04
808.298	43.78
808.472	42.64
808.646	50.11
808.82	52.8
808.994	56.22
809.168	54.39
809.342	58.05
809.516	55.59
809.69	54.6
809.864	54.37
810.038	57.24
810.212	56.48
810.385	61.28
810.559	57.91
810.733	59.25
810.907	56.92
811.081	57.05
811.255	54.23
811.428	53.08
811.602	51.82
811.776	50.75
811.95	49.62
812.123	45.29
812.297	41.71
812.471	45.8
812.644	45.12
812.818	46.9
812.992	47.57
813.165	51.31
813.339	52.64
813.512	54.69
813.686	56.94
813.86	56.6
814.033	64.51
814.207	66.27
814.38	67.37
814.554	65.01
814.727	60.43
814.9	61.14
815.074	56.87
815.247	58.29
815.421	54.03
815.594	55.57
815.767	55.79
815.941	50.4
816.114	46.02
816.287	43.33
816.46	45.26
816.634	47.37
816.807	43.3
816.98	46.27
817.153	45.61
817.327	51.91
817.5	50.7
817.673	52.44
817.846	53.95
818.019	55.54
818.192	47.62
818.365	49.42
818.538	55.11
818.711	57.09
818.884	55.05
819.057	50.21
819.23	53.69
819.403	58.33
819.576	57.25
819.749	54.31
819.922	54.33
820.095	56.49
820.268	55.62
820.441	55.37
820.614	58.3
820.786	59.96
820.959	60.91
821.132	57.66
821.305	55.62
821.477	55.55
821.65	57.36
821.823	57.15
821.996	58.36
822.168	58.03
822.341	58
822.514	57.5
822.686	57.36
822.859	56.81
823.031	56.93
823.204	57.32
823.376	57.25
823.549	56.16
823.722	55.83
823.894	55.76
824.067	55.33
824.239	53.83
824.411	53.84
824.584	53.6
824.756	54.04
824.929	53.57
825.101	53.09
825.273	51.4
825.446	51.94
825.618	52.47
825.79	52.73
825.963	55.06
826.135	56.52
826.307	57.07
826.479	56.11
826.652	56.38
826.824	56.57
826.996	55.78
827.168	56.79
827.34	56.66
827.512	56.14
827.684	54.43
827.856	52.14
828.029	51.86
828.201	50.04
828.373	50.04
828.545	50.04
828.717	48.89
828.889	50.63
829.061	49.88
829.232	49.4
829.404	50.22
829.576	49.45
829.748	50.63
829.92	51.41
830.092	51.38
830.264	52.15
830.436	51.09
830.607	54.29
830.779	53.29
830.951	53.72
831.123	57.27
831.294	58.94
831.466	61.61
831.638	60.22
831.809	58.97
831.981	58.51
832.153	59.15
832.324	58.18
832.496	58.07
832.667	57.46
832.839	60.26
833.011	56.27
833.182	50.36
833.354	48.45
833.525	47.21
833.697	48.05
833.868	50.05
834.039	49.03
834.211	51.72
834.382	51.36
834.554	51.27
834.725	49.82
834.896	47.18
835.068	47.59
835.239	46.38
835.41	46.97
835.581	45.06
835.753	42.35
835.924	42.49
836.095	41.29
836.266	41.63
836.438	40.37
836.609	44.2
836.78	52.7
836.951	55.24
837.122	57.56
837.293	57.71
837.464	62.86
837.635	65.49
837.806	67.71
837.977	71.32
838.148	68.67
838.319	69.7
838.49	65.97
838.661	62.68
838.832	61.02
839.003	55.8
839.174	52.43
839.345	48.12
839.516	49.8
839.687	40.42
839.857	38.71
840.028	35.49
840.199	28.86
840.37	29.39
840.54	25.98
840.711	32.77
840.882	42.24
841.053	41.01
841.223	33.8
841.394	34.06
841.564	46.92
841.735	41.47
841.906	47.38
842.076	54.59
842.247	57.76
842.417	53.89
842.588	54.29
842.758	50.88
842.929	57.49
843.099	66.19
843.27	62.14
843.44	56.01
843.611	54.21
843.781	59.46
843.951	53.03
844.122	46.52
844.292	57.99
844.462	54.61
844.633	57.21
844.803	56.07
844.973	52.89
845.144	52.87
845.314	56.38
845.484	64.96
845.654	58.26
845.824	70.69
845.995	67.63
846.165	49.94
846.335	33.32
846.505	33.65
846.675	44.35
846.845	46.29
847.015	57.71
847.185	44.67
847.355	49.4
847.525	63.52
847.695	47.58
847.865	49.38
848.035	71.67
848.205	80.23
848.375	74.41
848.545	48.76
848.715	44.07
848.884	38.42
849.054	53.64
849.224	60.93
849.394	50.19
849.564	58.19
849.733	65.42
849.903	65.34
850.073	73.17
850.243	80.86
850.412	96.18
850.582	106.38
850.752	124.34
850.921	114.08
851.091	115.85
851.26	113.89
851.43	99.81
851.599	86.58
851.769	85.34
851.939	78.95
852.108	78.66
852.278	77.23
852.447	79.04
852.616	68.63
852.786	72.56
852.955	61.39
853.125	64.93
853.294	62.85
853.463	70.13
853.633	79.65
853.802	81.68
853.971	81.88
854.141	79.44
854.31	73.97
854.479	73.65
854.648	68.18
854.818	75.26
854.987	72.4
855.156	96.89
855.325	79.6
855.494	68.7
855.663	67.33
855.832	74.89
856.001	60
856.171	59.46
856.34	58
856.509	56.62
856.678	70.12
856.847	96
857.016	65.05
857.185	88.84
857.353	73.66
857.522	75.83
857.691	54.7
857.86	63.55
858.029	71.4
858.198	67.23
858.367	61.73
858.535	61.3
858.704	49.11
858.873	51.58
859.042	42.31
859.21	40.93
859.379	45.21
859.548	47.02
859.717	52.55
859.885	49.16
860.054	52.29
860.222	56.14
860.391	42.73
860.56	38.41
860.728	40.77
860.897	50.62
861.065	64.38
861.234	54.79
861.402	68.73
861.571	75.71
861.739	70.37
861.908	69.31
862.076	80.34
862.244	80.68
862.413	106.83
862.581	129.46
862.749	142.89
862.918	121.96
863.086	177.3
863.254	152.22
863.423	91.22
863.591	109.91
863.759	141.26
863.927	100.99
864.096	112.14
864.264	113.32
864.432	87.18
864.6	60.8
864.768	58.39
864.936	69.87
865.104	78.91
865.272	91.49
865.44	84.94
865.608	60.84
865.776	62.08
865.944	60.48
866.112	58.26
866.28	43.59
866.448	42.69
866.616	20.75
866.784	11.28
866.952	20.93
867.12	8.18
867.288	22.52
867.455	22.89
867.623	36.31
867.791	41.45
867.959	29.74
868.127	72.91
868.294	72.41
868.462	83.44
868.63	92.76
868.797	89.44
868.965	109.52
869.133	97.29
869.3	111.64
869.468	108.18
869.636	128.81
869.803	141.01
869.971	114.31
870.138	106.84
870.306	91.2
870.473	75.78
870.641	75.89
870.808	64.49
870.975	54.38
871.143	36.69
871.31	20.14
871.478	18.38
871.645	23.97
871.812	29.3
871.98	42.95
872.147	48.41
872.314	47.62
872.482	47.27
872.649	61.1
872.816	65.06
872.983	76.11
873.15	86.64
873.318	91.97
873.485	96.04
873.652	99.56
873.819	86.68
873.986	77.8
874.153	87.57
874.32	92.2
874.487	79.16
874.654	78.44
874.821	71.69
874.988	82.24
875.155	70.57
875.322	67.36
875.489	65.82
875.656	77.4
875.823	99.1
875.99	116.26
876.157	119.79
876.324	136.61
876.49	129.33
876.657	148.31
876.824	142.42
876.991	163.22
877.157	168.42
877.324	160.29
877.491	132.97
877.658	93.42
877.824	77.48
877.991	70.04
878.157	50.72
878.324	84.3
878.491	74.64
878.657	65.23
878.824	53.44
878.99	66.84
879.157	67.22
879.323	70.69
879.49	88.5
879.656	82.03
879.823	73.88
879.989	74.36
880.156	42.85
880.322	34.72
880.488	40.19
880.655	51.51
880.821	48.27
880.987	40.49
881.154	50.44
881.32	42.18
881.486	41.25
881.652	53.65
881.819	49.42
881.985	60.6
882.151	63.55
882.317	62.18
882.483	57.26
882.649	60.24
882.816	59.21
882.982	56.82
883.148	56.16
883.314	54.77
883.48	54.2
883.646	53.9
883.812	52.47
883.978	52.88
884.144	51.79
884.31	53.13
884.476	48.82
884.642	48.8
884.807	46.72
884.973	45.04
885.139	46.24
885.305	45.24
885.471	44.32
885.637	46.3
885.802	44.25
885.968	42.51
886.134	44.35
886.3	48.89
886.465	55.87
886.631	57.43
886.797	55.44
886.962	64.63
887.128	73.37
887.293	75.42
887.459	76.03
887.625	82.86
887.79	90.99
887.956	77.71
888.121	81.22
888.287	68.07
888.452	76.71
888.618	101.95
888.783	82.23
