Data from 2937831_Reflection_3.txt Node
Date: Wed Jul 15 16:45:44 EDT 2015
User: robert
Spectrometer: USB4E03001
Autoset integration time: false
Trigger mode: 4
Integration Time (sec): 1.000000E-1
Scans to average: 10
Electric dark correction enabled: true
Nonlinearity correction enabled: false
Boxcar width: 5
Stray light correction enabled: false
XAxis mode: Wavelengths
Stop averaging: false
Number of Pixels in Spectrum: 3648
>>>>>Begin Spectral Data<<<<<
177.566	2055.36
177.785	6178.95
178.005	-22.46
178.225	-132.05
178.445	-511.79
178.665	-50.07
178.885	-157.71
179.105	63.7
179.324	-243.47
179.544	-102.87
179.764	24.09
179.984	29.5
180.204	39.81
180.423	-201.58
180.643	-235.68
180.863	-178.24
181.083	-351.39
181.302	2074.05
181.522	-2029.31
181.742	374.32
181.961	397.85
182.181	491.58
182.401	462.46
182.621	224.08
182.84	237.89
183.06	389.05
183.279	776.38
183.499	1089.55
183.719	-259.33
183.938	-245.33
184.158	-106.86
184.377	-78.53
184.597	-82.04
184.816	-62.17
185.036	-52.41
185.256	-65.84
185.475	-27.57
185.695	-46.97
185.914	-19.3
186.134	-34.42
186.353	-12.54
186.572	-9.16
186.792	-32.34
187.011	-114.48
187.231	-99.53
187.45	-5.46
187.67	-42.47
187.889	-52.07
188.108	-70.9
188.328	-31.26
188.547	-38.44
188.766	-53.41
188.986	-126.85
189.205	-122.95
189.424	-121.85
189.644	-135.87
189.863	-317.39
190.082	-191.63
190.302	-204.84
190.521	-97.72
190.74	-100.96
190.959	-196.26
191.178	-381.8
191.398	-90.53
191.617	-84.47
191.836	-76.62
192.055	-40.37
192.274	-34.89
192.494	4.52
192.713	-36.78
192.932	-99.08
193.151	-173.71
193.37	-124.61
193.589	-41.37
193.808	-25.48
194.027	-5.97
194.246	2.7
194.465	-7.91
194.685	19.04
194.904	-18.64
195.123	-5.76
195.342	1.81
195.561	9.44
195.78	16.84
195.999	18.07
196.218	-6.89
196.436	-19.35
196.655	-8.89
196.874	-34.96
197.093	-35.14
197.312	-37.59
197.531	-72.6
197.75	-91.69
197.969	-214.01
198.188	-288.41
198.407	-463.58
198.625	-656.55
198.844	-624.94
199.063	-335.55
199.282	-155.08
199.501	-201.09
199.719	-197.67
199.938	-175.41
200.157	-652.27
200.376	-84.52
200.594	-71.15
200.813	-64.03
201.032	-228.65
201.251	-108.36
201.469	-66.76
201.688	-33.19
201.907	-4.85
202.125	-47.6
202.344	-66.47
202.563	-40.79
202.781	-77.85
203	-50.72
203.218	-74.99
203.437	-50.56
203.656	-43.01
203.874	-125.26
204.093	-229.94
204.311	-353.31
204.53	-206.75
204.748	-96.02
204.967	-165.34
205.185	-85.09
205.404	-213.57
205.622	-84.27
205.841	-68.5
206.059	-213.11
206.278	-53.95
206.496	-5.54
206.715	13.1
206.933	-7.67
207.151	-22.43
207.37	8.85
207.588	-12.66
207.806	5.11
208.025	9.37
208.243	7.32
208.461	14.77
208.68	16.61
208.898	30.89
209.116	19.88
209.335	10.61
209.553	4.67
209.771	-20.32
209.989	-16.83
210.208	-64.08
210.426	-75.59
210.644	-86.37
210.862	-78.38
211.081	-74.09
211.299	-139.54
211.517	-252.47
211.735	-150.13
211.953	-153.8
212.171	-51.06
212.39	-44.74
212.608	13.91
212.826	22.7
213.044	-35.23
213.262	-75.04
213.48	-109.2
213.698	-81.61
213.916	-47.57
214.134	-26.28
214.352	-60.37
214.57	-105.47
214.788	-100.23
215.006	-123.69
215.224	-78.02
215.442	-50.5
215.66	-68.82
215.878	-41.26
216.096	-68.96
216.314	-43.07
216.532	-42.09
216.75	-28.42
216.968	-19.65
217.185	-18.54
217.403	-21.01
217.621	-47.45
217.839	-58.66
218.057	-22.3
218.275	-3.38
218.492	21.82
218.71	19.28
218.928	28.55
219.146	28.89
219.363	10.8
219.581	22.3
219.799	42.84
220.017	32.51
220.234	30.64
220.452	18.1
220.67	-5.99
220.887	10.82
221.105	-3.77
221.323	8.41
221.54	-5.55
221.758	14.49
221.976	-15.27
222.193	-169.88
222.411	-53.7
222.629	-28.58
222.846	23.9
223.064	16.01
223.281	-50.13
223.499	-7.55
223.716	-29.39
223.934	6.15
224.151	-5.47
224.369	9.09
224.586	9.84
224.804	7.42
225.021	6.84
225.239	4.14
225.456	-6.59
225.674	-4.55
225.891	-27.06
226.108	-34.98
226.326	-56.34
226.543	-58.38
226.76	-52.59
226.978	-45.47
227.195	-49.07
227.413	-44.47
227.63	-33.79
227.847	-19.79
228.064	-11
228.282	-4.06
228.499	1.51
228.716	6.41
228.934	5.92
229.151	3.61
229.368	0.54
229.585	1.44
229.802	1.54
230.02	0.13
230.237	-3.42
230.454	-5.3
230.671	-6.19
230.888	-9.06
231.105	-12.9
231.323	-14.27
231.54	-14.53
231.757	-9.88
231.974	-6.11
232.191	-3.9
232.408	-1.54
232.625	-6.8
232.842	-6.09
233.059	-7.36
233.276	-1.57
233.493	-3.14
233.71	4.9
233.927	10.16
234.144	15.94
234.361	16.82
234.578	16.61
234.795	19.55
235.012	24.16
235.229	21.51
235.446	23.21
235.663	19.29
235.879	20.93
236.096	17.44
236.313	16.31
236.53	9.68
236.747	9.64
236.964	-0.01
237.181	-3.7
237.397	-5.64
237.614	-2.15
237.831	-3.52
238.048	-7.08
238.264	-10.46
238.481	-13.28
238.698	-24.88
238.915	-28.94
239.131	-32.75
239.348	-17.51
239.565	-17.38
239.781	-17.66
239.998	-16.82
240.215	-21.36
240.431	-18.49
240.648	-12.32
240.865	-9.66
241.081	-3.02
241.298	-1.29
241.514	0.38
241.731	0.61
241.947	-0.4
242.164	-0.43
242.38	0.65
242.597	5.35
242.814	8.17
243.03	8.67
243.246	13.1
243.463	12.26
243.679	12.38
243.896	10.69
244.112	11.02
244.329	11.55
244.545	11.87
244.762	11.93
244.978	8.9
245.194	8.79
245.411	6.84
245.627	1.77
245.843	3.65
246.06	4.7
246.276	7.89
246.492	7.38
246.709	8.42
246.925	9.62
247.141	9.74
247.357	10.55
247.574	9.7
247.79	9.52
248.006	9.54
248.222	9.97
248.439	10.31
248.655	8.53
248.871	8.56
249.087	8.12
249.303	6.17
249.519	5.62
249.736	5.59
249.952	2.86
250.168	4.26
250.384	3.3
250.6	1.01
250.816	-0.72
251.032	0.74
251.248	0.47
251.464	-0.49
251.68	4.4
251.896	4.52
252.112	3.48
252.328	4.99
252.544	4.91
252.76	3.75
252.976	3.77
253.192	3.85
253.408	3.71
253.624	3.13
253.84	2.64
254.056	-0.34
254.272	-3.69
254.487	-5.7
254.703	-4.23
254.919	-9.21
255.135	-6.12
255.351	-9.2
255.567	-8.81
255.782	-11.7
255.998	-10.92
256.214	-8.7
256.43	-9.42
256.646	-6.41
256.861	-9.03
257.077	-6.84
257.293	-3.69
257.508	-6.51
257.724	-3.65
257.94	-3.5
258.155	0.65
258.371	1.47
258.587	1.31
258.802	1.08
259.018	2.92
259.234	5.52
259.449	4.25
259.665	4.17
259.88	5.72
260.096	6.43
260.312	6.19
260.527	5.83
260.743	5.98
260.958	6.18
261.174	6.06
261.389	5.33
261.605	5.13
261.82	6.19
262.036	6.8
262.251	5.22
262.466	4.2
262.682	5.57
262.897	4.96
263.113	3.53
263.328	3.77
263.543	3.9
263.759	4.37
263.974	2.98
264.189	1.27
264.405	-1.29
264.62	0.35
264.835	1.05
265.051	-2.99
265.266	-2.95
265.481	-0
265.696	-1.3
265.912	0.48
266.127	0.28
266.342	0.11
266.557	-1.1
266.773	1.59
266.988	2.19
267.203	0.64
267.418	2.27
267.633	1.68
267.848	1.43
268.064	1.31
268.279	0.31
268.494	0.88
268.709	1.12
268.924	1.8
269.139	0.97
269.354	0.75
269.569	0.5
269.784	0.88
269.999	0.89
270.214	1.51
270.429	4.02
270.644	5.61
270.859	4.58
271.074	4.61
271.289	6.01
271.504	6.08
271.719	6.95
271.934	7.77
272.149	6.87
272.363	7.03
272.578	6.7
272.793	5.21
273.008	4.79
273.223	5
273.438	5.92
273.653	5.47
273.867	3.8
274.082	3.52
274.297	4.15
274.512	3.82
274.726	3.84
274.941	1.75
275.156	2.5
275.371	-0.35
275.585	-0.08
275.8	-0.64
276.015	0.02
276.229	0.83
276.444	0.38
276.659	-0.58
276.873	0.93
277.088	1.28
277.302	1.48
277.517	-0.06
277.732	3.1
277.946	2.78
278.161	2.53
278.375	1.77
278.59	3.28
278.804	1.65
279.019	0.19
279.233	1.34
279.448	3.36
279.662	5.13
279.877	6.48
280.091	4.09
280.306	4.31
280.52	3.4
280.735	4.14
280.949	2.58
281.163	3.07
281.378	4.5
281.592	4.61
281.806	4.3
282.021	3.38
282.235	2.15
282.449	3.24
282.664	2.78
282.878	3.89
283.092	4.3
283.307	6.13
283.521	5.3
283.735	6.43
283.949	4.75
284.164	3.99
284.378	4.79
284.592	6.89
284.806	6.13
285.02	5.91
285.234	5.17
285.449	4.05
285.663	4.11
285.877	4.24
286.091	3.51
286.305	4.24
286.519	4.16
286.733	3.44
286.947	0.93
287.161	1.48
287.375	1.99
287.589	1.68
287.803	2.2
288.017	1.54
288.231	1.7
288.445	3.53
288.659	3.75
288.873	3.8
289.087	2.39
289.301	4
289.515	4.36
289.729	4.77
289.943	4.77
290.157	5.46
290.371	6.37
290.584	6.44
290.798	4.54
291.012	5.56
291.226	3.44
291.44	5.12
291.654	6.55
291.867	6.22
292.081	4.83
292.295	4.98
292.509	4.6
292.722	4.39
292.936	4.96
293.15	5.61
293.364	2.87
293.577	5.43
293.791	4.23
294.005	2.65
294.218	3.3
294.432	4.64
294.645	5.18
294.859	4.63
295.073	4.46
295.286	5.16
295.5	5.59
295.713	6.52
295.927	6.48
296.14	7.41
296.354	7.93
296.568	8.53
296.781	7.97
296.994	7.71
297.208	8.31
297.421	9.02
297.635	9.54
297.848	8.5
298.062	9.49
298.275	9.96
298.489	10.97
298.702	11.93
298.915	11.26
299.129	11.79
299.342	13.39
299.555	14.41
299.769	12.44
299.982	10.68
300.195	11.38
300.409	10.67
300.622	9.59
300.835	8.76
301.048	7
301.262	7.63
301.475	7.8
301.688	6.34
301.901	4.99
302.115	6.46
302.328	8.35
302.541	7.4
302.754	6.51
302.967	6.7
303.18	7.19
303.393	7.35
303.607	7.87
303.82	8.66
304.033	9.53
304.246	10.15
304.459	11.16
304.672	10.5
304.885	9.82
305.098	10.22
305.311	11.47
305.524	11.16
305.737	11.83
305.95	12.09
306.163	12.16
306.376	11.31
306.589	10.7
306.802	9.55
307.015	9.41
307.228	12.14
307.44	11.36
307.653	13.17
307.866	13.7
308.079	15.27
308.292	14.38
308.505	14.25
308.718	13.62
308.93	13.11
309.143	13.18
309.356	13.85
309.569	13.29
309.781	14.51
309.994	13.13
310.207	13.47
310.42	11.7
310.632	12.34
310.845	13.28
311.058	13.94
311.27	13.24
311.483	12.86
311.696	11.72
311.908	11.8
312.121	11.75
312.333	11.01
312.546	10.17
312.759	11.22
312.971	10.54
313.184	8.89
313.396	9.62
313.609	9.3
313.821	9.83
314.034	8.87
314.246	7.77
314.459	7.92
314.671	8.98
314.884	8.36
315.096	6.08
315.309	6.4
315.521	7.13
315.733	6.38
315.946	6.84
316.158	6.84
316.371	8.82
316.583	9.79
316.795	8.32
317.008	8.98
317.22	9.78
317.432	10.15
317.644	11.38
317.857	12.11
318.069	11.61
318.281	12.03
318.494	11.38
318.706	11.72
318.918	12.46
319.13	15.23
319.342	11.86
319.555	10.64
319.767	12.96
319.979	13.16
320.191	11.4
320.403	11.75
320.615	12.99
320.827	14.91
321.039	15.42
321.252	15.94
321.464	14.34
321.676	14.37
321.888	15.53
322.1	14.45
322.312	14.61
322.524	16.23
322.736	15.84
322.948	15.79
323.16	15.46
323.372	14.7
323.584	14.86
323.796	16.26
324.007	17.56
324.219	18.26
324.431	17.96
324.643	17.29
324.855	18.22
325.067	19.11
325.279	20.4
325.491	20.21
325.702	20.92
325.914	21.11
326.126	21.84
326.338	23.18
326.55	23.86
326.761	23.88
326.973	24.27
327.185	23.67
327.396	25.23
327.608	23.58
327.82	24.61
328.032	25.6
328.243	25.34
328.455	24.95
328.666	25.53
328.878	27.11
329.09	28.8
329.301	29.03
329.513	28.87
329.725	28.5
329.936	31.46
330.148	32.31
330.359	33.63
330.571	33.77
330.782	32.59
330.994	35.18
331.205	35.69
331.417	36.19
331.628	36.86
331.84	39.67
332.051	41.64
332.262	41.1
332.474	42.29
332.685	43.06
332.897	43.98
333.108	47.04
333.319	45.8
333.531	46.39
333.742	48.44
333.953	50.04
334.165	51.13
334.376	50.73
334.587	51.62
334.799	52.27
335.01	52.18
335.221	53.24
335.432	53.11
335.644	53.47
335.855	53.6
336.066	54.46
336.277	55.09
336.488	53.35
336.7	53.76
336.911	54.73
337.122	54.55
337.333	55.07
337.544	56.32
337.755	56.65
337.966	57.3
338.177	57.44
338.388	56.34
338.599	57.46
338.811	58.92
339.022	59.01
339.233	59.9
339.444	59.32
339.655	60.79
339.866	60.32
340.076	60.24
340.287	60.52
340.498	61.14
340.709	62.17
340.92	61.52
341.131	62.11
341.342	64.79
341.553	65.33
341.764	65.71
341.975	65.23
342.185	66.24
342.396	66.75
342.607	67.33
342.818	66.93
343.029	67.4
343.239	65.7
343.45	65.05
343.661	64.25
343.872	63.6
344.082	65.82
344.293	65.55
344.504	66.47
344.714	66.91
344.925	66.94
345.136	68.12
345.346	68.54
345.557	70.97
345.768	71.81
345.978	71.63
346.189	70.8
346.399	69.69
346.61	70.75
346.821	69.67
347.031	69.49
347.242	68.21
347.452	67.52
347.663	66.39
347.873	66.02
348.084	65.97
348.294	66.24
348.504	65.84
348.715	64.58
348.925	64.06
349.136	63.07
349.346	63.14
349.557	65.39
349.767	65.32
349.977	65.66
350.188	64.81
350.398	64.39
350.608	64.01
350.819	64.42
351.029	65.06
351.239	64.63
351.449	64.99
351.66	63.97
351.87	63.33
352.08	63.82
352.29	63.7
352.501	64.07
352.711	64.12
352.921	64.16
353.131	66.26
353.341	66.91
353.552	67.14
353.762	67.88
353.972	69.88
354.182	68.92
354.392	68.81
354.602	68.97
354.812	68.78
355.022	68.99
355.232	69.49
355.442	69.04
355.652	69.3
355.862	68.84
356.072	68.39
356.282	67.62
356.492	68.56
356.702	68.91
356.912	69.25
357.122	69.12
357.332	69.45
357.542	69.67
357.752	69.49
357.962	69.91
358.171	69.44
358.381	70.43
358.591	69.75
358.801	69.27
359.011	68.45
359.221	67.15
359.43	68.08
359.64	67.53
359.85	67.02
360.06	66.72
360.269	65.74
360.479	65.84
360.689	64.54
360.899	65.64
361.108	66
361.318	65.65
361.528	66.43
361.737	65.79
361.947	66.36
362.156	66.31
362.366	65.87
362.576	66.24
362.785	66.78
362.995	67.38
363.204	66.43
363.414	67.02
363.623	66.83
363.833	66.29
364.042	66.56
364.252	66.9
364.461	66.14
364.671	65.84
364.88	64.31
365.09	64.4
365.299	63.78
365.509	63.33
365.718	62.19
365.927	63.07
366.137	63.55
366.346	62.52
366.555	61.32
366.765	61.77
366.974	61.38
367.183	62.21
367.393	60.96
367.602	61.04
367.811	61.99
368.021	62.14
368.23	61.61
368.439	61.07
368.648	60.72
368.857	60.23
369.067	59.9
369.276	59.46
369.485	59.22
369.694	59.24
369.903	59.47
370.112	58.97
370.321	58.39
370.531	58.72
370.74	58.69
370.949	58.54
371.158	59.16
371.367	59.34
371.576	60.27
371.785	60.1
371.994	60.05
372.203	59.25
372.412	58.72
372.621	57.93
372.83	57.31
373.039	56.89
373.248	56.86
373.457	56.05
373.666	55.71
373.874	54.95
374.083	54.36
374.292	54.32
374.501	54.38
374.71	53.86
374.919	53.77
375.128	53.16
375.336	52.89
375.545	53.52
375.754	54.09
375.963	53.69
376.171	53.48
376.38	54.17
376.589	54.09
376.798	53.99
377.006	54.22
377.215	53.79
377.424	53.68
377.632	53.45
377.841	52.82
378.05	52.21
378.258	51.79
378.467	51.7
378.675	50.83
378.884	51
379.093	50.84
379.301	51.13
379.51	51.7
379.718	51.5
379.927	51.62
380.135	51.05
380.344	51.15
380.552	51.11
380.761	51.1
380.969	51.44
381.177	50.54
381.386	50.05
381.594	49
381.803	48.71
382.011	48.9
382.219	48.1
382.428	47.96
382.636	46.97
382.845	46.89
383.053	46.83
383.261	46.6
383.469	46.56
383.678	46.23
383.886	46.48
384.094	45.69
384.302	45.15
384.511	45.77
384.719	45.38
384.927	45.64
385.135	45.37
385.343	44.83
385.552	43.67
385.76	43.13
385.968	42.3
386.176	41.65
386.384	41.44
386.592	41.04
386.8	39.9
387.008	40.51
387.216	40.38
387.424	40.25
387.633	39.96
387.841	40.27
388.049	40.47
388.257	40.71
388.465	40.81
388.672	40.75
388.88	40.85
389.088	41.23
389.296	40.77
389.504	40.2
389.712	39.88
389.92	39.62
390.128	39.39
390.336	39.16
390.544	39.36
390.751	38.97
390.959	38.75
391.167	38.73
391.375	38.34
391.583	38.36
391.79	38.3
391.998	38.03
392.206	38.32
392.414	38.51
392.621	38.37
392.829	38.49
393.037	38.4
393.244	38.55
393.452	38.55
393.66	38.52
393.867	38.52
394.075	38.66
394.283	38.85
394.49	38.5
394.698	38.43
394.905	38.41
395.113	38.09
395.32	38.15
395.528	38.29
395.735	38.24
395.943	38.49
396.15	38.05
396.358	38.26
396.565	38.23
396.773	38.32
396.98	37.89
397.188	38.25
397.395	38.24
397.602	37.89
397.81	37.57
398.017	37.37
398.225	37.28
398.432	37.2
398.639	36.65
398.847	36.73
399.054	36.59
399.261	36.92
399.468	36.35
399.676	36.05
399.883	36.14
400.09	36.31
400.297	36.12
400.505	36.05
400.712	36.18
400.919	36.49
401.126	36.21
401.333	36.04
401.54	36.01
401.748	36.18
401.955	36.11
402.162	36.5
402.369	36.13
402.576	36.46
402.783	36.14
402.99	36.24
403.197	36.31
403.404	36.31
403.611	36.18
403.818	36.28
404.025	36.28
404.232	36.37
404.439	36.01
404.646	36.54
404.853	36.39
405.06	36.67
405.267	36.63
405.474	36.29
405.681	36.35
405.887	36.56
406.094	36.27
406.301	36.36
406.508	36.37
406.715	36.38
406.922	36.13
407.128	36.22
407.335	35.92
407.542	35.96
407.749	36.3
407.955	36.21
408.162	35.96
408.369	36.08
408.575	35.86
408.782	35.99
408.989	35.98
409.195	36.11
409.402	36.15
409.609	36.36
409.815	36.37
410.022	36.25
410.228	36.15
410.435	36.53
410.642	36.51
410.848	36.39
411.055	36.62
411.261	36.92
411.468	36.79
411.674	36.86
411.881	36.84
412.087	36.88
412.294	36.78
412.5	36.74
412.706	36.37
412.913	36.26
413.119	36.52
413.326	36.06
413.532	35.59
413.738	35.14
413.945	34.76
414.151	34.81
414.357	34.5
414.564	34.46
414.77	34.71
414.976	34.57
415.182	34.83
415.389	34.72
415.595	34.74
415.801	35.14
416.007	35.38
416.214	35.38
416.42	35.17
416.626	35.11
416.832	34.89
417.038	34.58
417.244	34.68
417.45	34.32
417.657	34.34
417.863	34.2
418.069	34.01
418.275	33.81
418.481	33.62
418.687	33.72
418.893	33.77
419.099	33.83
419.305	33.94
419.511	33.89
419.717	33.73
419.923	33.7
420.129	33.75
420.335	33.85
420.541	33.93
420.746	34
420.952	33.91
421.158	33.86
421.364	33.71
421.57	33.75
421.776	33.86
421.982	34.07
422.187	34.08
422.393	34.05
422.599	33.88
422.805	33.8
423.01	33.76
423.216	33.73
423.422	33.81
423.628	33.89
423.833	33.67
424.039	33.52
424.245	33.6
424.45	33.36
424.656	33.42
424.862	33.4
425.067	33.37
425.273	33.37
425.478	33.25
425.684	33.13
425.889	33.17
426.095	33.12
426.301	33.26
426.506	33.11
426.712	33.14
426.917	32.85
427.123	32.59
427.328	32.73
427.533	32.73
427.739	32.72
427.944	32.46
428.15	32.41
428.355	32.53
428.561	32.35
428.766	32.26
428.971	32.25
429.177	32.36
429.382	32.55
429.587	32.43
429.793	32.28
429.998	32.31
430.203	32.42
430.408	32.17
430.614	32.05
430.819	31.97
431.024	31.88
431.229	31.91
431.434	32.02
431.64	31.91
431.845	31.86
432.05	32.14
432.255	32.04
432.46	32.14
432.665	31.95
432.87	32.03
433.076	32.09
433.281	32.22
433.486	32.22
433.691	32.25
433.896	32.44
434.101	32.34
434.306	32.11
434.511	32.29
434.716	32.45
434.921	32.68
435.126	32.66
435.331	32.49
435.535	32.29
435.74	32.22
435.945	32.09
436.15	32.12
436.355	32.06
436.56	32.03
436.765	31.97
436.97	31.63
437.174	31.64
437.379	31.66
437.584	32.07
437.789	32.25
437.993	32.23
438.198	32.15
438.403	32.13
438.608	32.35
438.812	32.45
439.017	32.58
439.222	32.63
439.426	32.89
439.631	32.87
439.836	32.6
440.04	32.68
440.245	32.8
440.45	33.01
440.654	32.98
440.859	32.77
441.063	32.69
441.268	32.53
441.472	32.58
441.677	32.25
441.881	32.33
442.086	32.3
442.29	32.21
442.495	32.05
442.699	32.02
442.904	31.95
443.108	32.12
443.312	32.28
443.517	32.25
443.721	32.19
443.925	32.29
444.13	32.03
444.334	32.08
444.538	32.1
444.743	32.05
444.947	32.06
445.151	32.09
445.356	32.18
445.56	32.07
445.764	32.22
445.968	32.19
446.173	32.18
446.377	32.33
446.581	32.27
446.785	32.28
446.989	32.4
447.193	32.29
447.398	32.26
447.602	32.11
447.806	32.13
448.01	31.92
448.214	31.97
448.418	31.95
448.622	31.99
448.826	32.13
449.03	31.87
449.234	31.97
449.438	32
449.642	32.09
449.846	32.12
450.05	31.94
450.254	31.97
450.458	31.77
450.662	31.88
450.866	31.52
451.069	31.13
451.273	31.37
451.477	31.18
451.681	31.05
451.885	30.85
452.089	30.82
452.292	30.93
452.496	31.02
452.7	31.09
452.904	31.09
453.107	31.54
453.311	31.59
453.515	31.52
453.719	31.39
453.922	31.5
454.126	31.38
454.33	31.47
454.533	31.39
454.737	31.21
454.94	31.31
455.144	31.16
455.348	30.93
455.551	31.25
455.755	31.23
455.958	31.38
456.162	31.17
456.365	31.36
456.569	31.26
456.772	31.15
456.976	31.1
457.179	31.14
457.383	31.06
457.586	31.02
457.79	30.87
457.993	30.75
458.196	30.59
458.4	30.81
458.603	30.94
458.807	30.93
459.01	31.06
459.213	31.16
459.417	31.22
459.62	31.32
459.823	31.35
460.026	31.37
460.23	31.39
460.433	31.65
460.636	31.57
460.839	31.49
461.042	31.54
461.246	31.57
461.449	31.56
461.652	31.42
461.855	31.49
462.058	31.55
462.261	31.57
462.464	31.51
462.668	31.3
462.871	31.37
463.074	31.54
463.277	31.41
463.48	31.45
463.683	31.51
463.886	31.72
464.089	31.64
464.292	31.74
464.495	31.79
464.698	32.14
464.901	32.37
465.104	32.47
465.306	32.28
465.509	32.41
465.712	32.37
465.915	32.46
466.118	32.25
466.321	31.95
466.524	31.66
466.726	31.54
466.929	31.4
467.132	31.41
467.335	31.41
467.538	31.45
467.74	31.6
467.943	31.84
468.146	31.76
468.348	31.95
468.551	32.09
468.754	32.15
468.956	32.41
469.159	32.39
469.362	32.31
469.564	32.2
469.767	32.05
469.969	31.87
470.172	31.73
470.375	31.96
470.577	31.91
470.78	32.07
470.982	32.34
471.185	32.31
471.387	32.32
471.59	32.22
471.792	32.11
471.995	32.13
472.197	32.15
472.399	32.38
472.602	32.25
472.804	32.25
473.007	32.48
473.209	32.21
473.411	32.2
473.614	32.12
473.816	32.16
474.018	32.62
474.22	32.6
474.423	32.48
474.625	32.25
474.827	32.09
475.03	31.94
475.232	31.77
475.434	31.94
475.636	31.68
475.838	31.9
476.04	31.83
476.243	31.53
476.445	31.68
476.647	31.92
476.849	32.06
477.051	32.12
477.253	32.1
477.455	32.08
477.657	32.19
477.859	32.4
478.061	32.25
478.263	32.29
478.465	32.29
478.667	32.21
478.869	32.04
479.071	31.87
479.273	31.93
479.475	32.09
479.677	31.97
479.879	31.77
480.081	31.63
480.283	31.58
480.485	31.58
480.686	31.77
480.888	31.85
481.09	32.12
481.292	32.14
481.494	32.37
481.695	32.43
481.897	32.67
482.099	32.65
482.301	32.68
482.502	32.57
482.704	32.5
482.906	32.42
483.107	32.46
483.309	32.38
483.511	32.29
483.712	32.22
483.914	32.24
484.115	32.21
484.317	32.25
484.519	32.33
484.72	32.44
484.922	32.5
485.123	32.49
485.325	32.46
485.526	32.45
485.728	32.59
485.929	32.51
486.131	32.43
486.332	32.36
486.534	32.27
486.735	32.17
486.936	32.23
487.138	32.27
487.339	32.25
487.541	32.32
487.742	32.32
487.943	32.19
488.144	32.34
488.346	32.36
488.547	32.35
488.748	32.44
488.95	32.39
489.151	32.31
489.352	32.31
489.553	32.35
489.755	32.29
489.956	32.31
490.157	32.45
490.358	32.39
490.559	32.37
490.76	32.42
490.961	32.44
491.163	32.64
491.364	32.7
491.565	32.67
491.766	32.61
491.967	32.63
492.168	32.58
492.369	32.45
492.57	32.39
492.771	32.43
492.972	32.41
493.173	32.43
493.374	32.37
493.575	32.3
493.776	32.19
493.976	32.23
494.177	32.27
494.378	32.14
494.579	32.42
494.78	32.59
494.981	32.61
495.182	32.75
495.382	32.68
495.583	32.66
495.784	32.66
495.985	32.7
496.185	32.84
496.386	32.75
496.587	33.15
496.788	33.17
496.988	33.11
497.189	33.15
497.39	33.34
497.59	33.44
497.791	33.34
497.992	33.26
498.192	33.41
498.393	33.39
498.593	33.54
498.794	33.52
498.994	33.5
499.195	33.54
499.395	33.6
499.596	33.51
499.796	33.48
499.997	33.44
500.197	33.65
500.398	33.78
500.598	33.89
500.799	33.88
500.999	33.89
501.199	33.77
501.4	34.03
501.6	34.23
501.801	34.12
502.001	34.26
502.201	34.48
502.402	34.68
502.602	34.58
502.802	34.77
503.002	34.83
503.203	34.66
503.403	35.06
503.603	35.06
503.803	35.15
504.003	35.26
504.204	35.27
504.404	35.37
504.604	35.29
504.804	35.61
505.004	35.53
505.204	35.77
505.404	35.96
505.604	35.98
505.804	36
506.005	35.89
506.205	35.96
506.405	36.1
506.605	36.19
506.805	36.19
507.005	36.17
507.204	36.27
507.404	36.36
507.604	36.69
507.804	36.78
508.004	36.87
508.204	36.93
508.404	37.21
508.604	37.47
508.804	37.79
509.003	37.96
509.203	37.91
509.403	37.97
509.603	37.98
509.803	38.05
510.002	38.19
510.202	38.42
510.402	38.69
510.602	38.72
510.801	38.76
511.001	38.71
511.201	38.9
511.4	39.18
511.6	39.24
511.8	39.43
511.999	39.57
512.199	39.92
512.398	39.85
512.598	39.98
512.797	39.94
512.997	40.07
513.197	40.27
513.396	40.39
513.596	40.37
513.795	40.83
513.994	40.91
514.194	40.98
514.393	40.86
514.593	41.1
514.792	41.36
514.992	41.74
515.191	41.67
515.39	41.64
515.59	41.85
515.789	42.08
515.988	42.17
516.188	42.45
516.387	42.64
516.586	42.77
516.786	43
516.985	43.16
517.184	43.24
517.383	43.52
517.582	43.94
517.782	44.12
517.981	44.27
518.18	44.37
518.379	44.46
518.578	44.65
518.777	44.77
518.976	44.79
519.176	44.83
519.375	44.92
519.574	45.13
519.773	45.11
519.972	45.17
520.171	45.26
520.37	45.38
520.569	45.37
520.768	45.23
520.967	45.44
521.166	45.58
521.365	45.7
521.564	45.71
521.762	45.72
521.961	45.95
522.16	46.08
522.359	46.26
522.558	46.29
522.757	46.43
522.956	46.81
523.154	46.81
523.353	46.91
523.552	47
523.751	47.35
523.949	47.51
524.148	47.55
524.347	47.57
524.546	47.7
524.744	47.92
524.943	48.1
525.142	48.26
525.34	48.42
525.539	48.66
525.737	48.83
525.936	48.92
526.135	49.04
526.333	49.16
526.532	49.41
526.73	49.57
526.929	49.67
527.127	49.81
527.326	49.89
527.524	49.98
527.723	50.04
527.921	50.08
528.12	50.17
528.318	50.35
528.516	50.54
528.715	50.67
528.913	50.76
529.112	50.82
529.31	50.87
529.508	50.91
529.707	51.04
529.905	51.13
530.103	51.26
530.301	51.33
530.5	51.25
530.698	51.17
530.896	51.06
531.094	51.2
531.293	51.34
531.491	51.48
531.689	51.62
531.887	51.54
532.085	51.65
532.283	51.84
532.481	51.95
532.68	52.16
532.878	52.19
533.076	52.28
533.274	52.3
533.472	52.2
533.67	52.33
533.868	52.39
534.066	52.51
534.264	52.58
534.462	52.52
534.66	52.6
534.858	52.73
535.056	52.88
535.253	52.94
535.451	52.95
535.649	53.24
535.847	53.28
536.045	53.33
536.243	53.38
536.441	53.48
536.638	53.56
536.836	53.71
537.034	53.64
537.232	53.71
537.43	53.7
537.627	53.68
537.825	53.66
538.023	53.67
538.22	53.68
538.418	53.6
538.616	53.58
538.813	53.75
539.011	53.63
539.209	53.71
539.406	53.55
539.604	53.76
539.801	54
539.999	54.02
540.196	54.05
540.394	54.07
540.591	54.23
540.789	54.29
540.986	54.34
541.184	54.4
541.381	54.49
541.579	54.73
541.776	54.85
541.974	54.79
542.171	54.87
542.368	54.92
542.566	54.96
542.763	55.01
542.96	55.13
543.158	55.09
543.355	55.14
543.552	55.12
543.75	55.05
543.947	54.93
544.144	54.91
544.341	54.77
544.539	54.72
544.736	54.72
544.933	54.64
545.13	54.62
545.327	54.62
545.524	54.75
545.722	54.64
545.919	54.69
546.116	54.67
546.313	54.84
546.51	55.06
546.707	54.93
546.904	55
547.101	55.15
547.298	54.97
547.495	55.07
547.692	54.91
547.889	55.15
548.086	55.13
548.283	55.29
548.48	55.16
548.677	54.95
548.874	55.21
549.07	55.41
549.267	55.47
549.464	55.83
549.661	55.75
549.858	55.57
550.055	55.31
550.251	55.26
550.448	55.18
550.645	54.94
550.842	55.08
551.038	54.99
551.235	54.87
551.432	54.87
551.628	54.88
551.825	54.92
552.022	55.11
552.218	55.33
552.415	55.49
552.612	55.58
552.808	55.96
553.005	56.08
553.201	56.19
553.398	56.3
553.594	56.19
553.791	56.09
553.987	56.05
554.184	56.21
554.38	56.12
554.577	56.08
554.773	56.08
554.97	56.17
555.166	56
555.362	55.97
555.559	55.97
555.755	56.2
555.952	56.23
556.148	56.21
556.344	56.06
556.541	56.11
556.737	56.15
556.933	56.24
557.129	56.03
557.326	56.17
557.522	56.44
557.718	56.49
557.914	56.28
558.11	56.21
558.307	56.3
558.503	56.16
558.699	56.06
558.895	56.16
559.091	55.86
559.287	55.84
559.483	55.98
559.679	55.62
559.876	55.72
560.072	55.98
560.268	55.87
560.464	56
560.66	56.27
560.856	56.41
561.052	56.15
561.247	56.52
561.443	56.88
561.639	56.84
561.835	57.06
562.031	57.09
562.227	57.14
562.423	57.34
562.619	57.16
562.815	57.26
563.01	57.41
563.206	57.6
563.402	57.69
563.598	57.33
563.793	57.18
563.989	57.1
564.185	57.11
564.381	57.24
564.576	57.26
564.772	57.52
564.968	57.5
565.163	57.54
565.359	57.6
565.555	57.38
565.75	57.84
565.946	58
566.141	58.14
566.337	58.19
566.532	58.02
566.728	58.01
566.923	57.86
567.119	57.87
567.314	57.95
567.51	57.97
567.705	58.37
567.901	58.18
568.096	58.25
568.292	58.26
568.487	58.24
568.682	58.41
568.878	58.4
569.073	58.49
569.268	58.56
569.464	58.66
569.659	58.57
569.854	58.52
570.05	58.52
570.245	58.68
570.44	58.44
570.635	58.35
570.831	58.29
571.026	58.53
571.221	58.65
571.416	58.72
571.611	58.78
571.806	58.83
572.002	58.74
572.197	58.92
572.392	58.73
572.587	58.96
572.782	59.06
572.977	59.11
573.172	59
573.367	58.77
573.562	58.64
573.757	58.51
573.952	58.54
574.147	58.55
574.342	58.3
574.537	58.38
574.732	58.4
574.927	58.43
575.121	58.42
575.316	58.38
575.511	58.68
575.706	58.89
575.901	58.91
576.096	59.12
576.29	59.23
576.485	59.21
576.68	59.33
576.875	59.42
577.069	59.35
577.264	59.33
577.459	59.24
577.654	58.94
577.848	58.8
578.043	58.84
578.238	58.63
578.432	58.41
578.627	58.41
578.821	58.26
579.016	58.26
579.21	58.1
579.405	58.33
579.6	58.15
579.794	58.39
579.989	58.34
580.183	58.12
580.378	58.27
580.572	58.46
580.766	58.52
580.961	58.37
581.155	58.42
581.35	58.42
581.544	58.26
581.738	58.46
581.933	58.37
582.127	58.19
582.321	58.24
582.516	57.89
582.71	57.98
582.904	57.77
583.099	57.88
583.293	57.71
583.487	57.99
583.681	58.07
583.875	58.38
584.07	58.57
584.264	58.71
584.458	58.9
584.652	59.08
584.846	58.6
585.04	59.03
585.234	59.09
585.428	59.33
585.623	59.11
585.817	59.03
586.011	58.78
586.205	58.62
586.399	59.17
586.593	59.18
586.787	59.54
586.981	59.86
587.174	59.76
587.368	59.64
587.562	59.54
587.756	59.44
587.95	59.3
588.144	59.17
588.338	59.46
588.532	59.1
588.725	59.25
588.919	59.08
589.113	59.07
589.307	59.16
589.501	59.29
589.694	59.28
589.888	59.66
590.082	59.65
590.275	59.99
590.469	59.96
590.663	59.89
590.856	59.66
591.05	59.48
591.244	59.35
591.437	59.42
591.631	59.36
591.824	59.45
592.018	59.18
592.212	59.43
592.405	59.3
592.599	58.99
592.792	59.03
592.986	59
593.179	58.91
593.372	59.16
593.566	59.17
593.759	59.47
593.953	59.45
594.146	59.57
594.339	59.58
594.533	59.55
594.726	59.82
594.92	59.93
595.113	60.14
595.306	60.25
595.499	60.19
595.693	60.07
595.886	60.01
596.079	59.95
596.272	60.09
596.466	59.97
596.659	60.01
596.852	59.93
597.045	60.06
597.238	60.04
597.431	60.36
597.624	60.36
597.818	60.27
598.011	60.29
598.204	60.25
598.397	60.25
598.59	60.44
598.783	60.02
598.976	60.05
599.169	60
599.362	59.96
599.555	59.85
599.748	60.15
599.941	60.05
600.134	60.02
600.326	60.22
600.519	60.02
600.712	59.87
600.905	60.33
601.098	60.41
601.291	60.4
601.483	60.59
601.676	60.6
601.869	60.31
602.062	60.65
602.255	60.53
602.447	60.71
602.64	60.67
602.833	60.66
603.025	60.73
603.218	60.7
603.411	60.63
603.603	60.62
603.796	60.74
603.989	61.1
604.181	61.27
604.374	61.15
604.566	60.92
604.759	61.19
604.951	61.1
605.144	61.22
605.336	61.56
605.529	61.63
605.721	61.6
605.914	61.47
606.106	61.08
606.299	60.88
606.491	60.91
606.683	60.68
606.876	60.28
607.068	60.46
607.26	60.16
607.453	59.67
607.645	59.65
607.837	59.64
608.03	59.54
608.222	59.76
608.414	59.57
608.606	59.9
608.799	60.18
608.991	60.39
609.183	60.48
609.375	60.51
609.567	60.33
609.759	60.13
609.952	60.01
610.144	60.01
610.336	59.97
610.528	60.03
610.72	59.7
610.912	59.41
611.104	59.13
611.296	58.91
611.488	58.82
611.68	58.82
611.872	58.73
612.064	58.48
612.256	58.37
612.448	57.99
612.64	57.97
612.832	57.65
613.023	57.77
613.215	58.01
613.407	57.88
613.599	58.21
613.791	58.18
613.983	58.3
614.174	58.34
614.366	58.62
614.558	58.9
614.75	59.14
614.941	59.76
615.133	59.84
615.325	59.93
615.516	59.86
615.708	59.7
615.9	59.89
616.091	59.96
616.283	60.58
616.475	60.52
616.666	60.14
616.858	59.77
617.049	59.82
617.241	59.83
617.432	59.65
617.624	60.03
617.815	59.71
618.007	59.66
618.198	59.6
618.39	59.34
618.581	58.71
618.773	59.03
618.964	59.03
619.155	58.62
619.347	58.5
619.538	58.66
619.729	58.46
619.921	58.88
620.112	58.92
620.303	59.36
620.494	58.91
620.686	59.43
620.877	59.47
621.068	59.33
621.259	59.74
621.451	60.15
621.642	59.82
621.833	59.71
622.024	59.59
622.215	59.62
622.406	59.56
622.597	59.94
622.788	60.03
622.98	59.87
623.171	60.39
623.362	60.23
623.553	60.34
623.744	60.65
623.935	61.1
624.126	61.05
624.317	61
624.508	60.79
624.698	60.93
624.889	60.98
625.08	60.86
625.271	60.8
625.462	60.98
625.653	60.63
625.844	60.8
626.034	60.65
626.225	60.77
626.416	60.93
626.607	61.14
626.798	61.07
626.988	60.99
627.179	61.18
627.37	61.14
627.56	60.98
627.751	61.35
627.942	61.34
628.132	61.35
628.323	61.29
628.514	61.32
628.704	61.34
628.895	61.35
629.085	61.51
629.276	61.62
629.466	61.85
629.657	62.06
629.847	61.66
630.038	61.8
630.228	61.75
630.419	61.93
630.609	61.61
630.8	61.27
630.99	60.97
631.181	60.68
631.371	60.61
631.561	60.07
631.752	59.85
631.942	60.03
632.132	59.89
632.323	60.28
632.513	60
632.703	60.18
632.893	60.06
633.084	60.09
633.274	60.32
633.464	60.15
633.654	60.45
633.844	60.39
634.034	60.46
634.225	60.58
634.415	60.47
634.605	60.7
634.795	60.77
634.985	61.28
635.175	61.31
635.365	61.08
635.555	61.24
635.745	60.88
635.935	61.19
636.125	60.87
636.315	60.6
636.505	60.14
636.695	60.04
636.885	60.3
637.075	60.08
637.265	60.47
637.455	60.6
637.644	60.46
637.834	60.69
638.024	60.46
638.214	60.63
638.404	60.79
638.593	61.04
638.783	61.52
638.973	61.2
639.163	60.98
639.352	60.67
639.542	60.95
639.732	60.97
639.921	61.15
640.111	61.2
640.301	60.91
640.49	60.31
640.68	60.33
640.87	59.36
641.059	59.13
641.249	59.2
641.438	59.27
641.628	58.96
641.817	58.79
642.007	58.97
642.196	58.86
642.386	58.99
642.575	59.81
642.764	59.55
642.954	59.98
643.143	60.42
643.333	60.1
643.522	60.14
643.711	59.94
643.901	60.28
644.09	60.01
644.279	60.15
644.469	60.33
644.658	60.42
644.847	60.87
645.036	60.94
645.226	60.73
645.415	60.82
645.604	60.6
645.793	60.55
645.982	60.89
646.171	61.22
646.361	61.3
646.55	61.49
646.739	60.97
646.928	60.56
647.117	60.62
647.306	60.82
647.495	61.07
647.684	61.67
647.873	61.93
648.062	61.35
648.251	61.39
648.44	61.63
648.629	61.87
648.818	62.01
649.007	61.9
649.196	61.78
649.384	61.33
649.573	60.87
649.762	60.48
649.951	60.36
650.14	60.12
650.328	60.1
650.517	59.66
650.706	59.04
650.895	58.95
651.083	59.39
651.272	59.61
651.461	60.13
651.65	60.45
651.838	60.19
652.027	60.38
652.216	61.14
652.404	60.81
652.593	61.17
652.781	61.29
652.97	61.21
653.158	61
653.347	61
653.535	60.73
653.724	60.44
653.912	60.82
654.101	60.81
654.289	59.94
654.478	60.32
654.666	60.21
654.855	60.32
655.043	60.64
655.231	60.68
655.42	60.99
655.608	61.22
655.796	61.87
655.985	61.7
656.173	61.77
656.361	62.32
656.55	61.96
656.738	61.71
656.926	61.65
657.114	61.55
657.302	61.83
657.491	61.51
657.679	61.31
657.867	60.79
658.055	60.89
658.243	60.71
658.431	60.58
658.619	61.01
658.807	61.41
658.996	61.68
659.184	61.8
659.372	61.57
659.56	61.74
659.748	61.98
659.936	62.3
660.124	62.24
660.311	62.29
660.499	62.35
660.687	62.18
660.875	61.6
661.063	61.38
661.251	61.12
661.439	61.19
661.627	61.01
661.814	60.71
662.002	60.13
662.19	60.14
662.378	60.11
662.565	60.45
662.753	60.29
662.941	60.55
663.129	60.43
663.316	60.33
663.504	59.62
663.692	59.16
663.879	59.11
664.067	59.54
664.254	59.2
664.442	58.63
664.63	58.38
664.817	58.12
665.005	58.09
665.192	57.83
665.38	57.84
665.567	58.49
665.755	59.06
665.942	59.16
666.13	58.99
666.317	59.07
666.504	59.43
666.692	58.83
666.879	58.69
667.067	58.56
667.254	58.63
667.441	58.82
667.629	58.98
667.816	59.02
668.003	59.05
668.19	59.48
668.378	59.96
668.565	60.49
668.752	60.93
668.939	61.79
669.127	61.81
669.314	62.18
669.501	62.07
669.688	61.28
669.875	60.87
670.062	61.09
670.249	61.12
670.436	61.28
670.623	61.57
670.81	61.42
670.997	60.91
671.184	61.08
671.371	61.01
671.558	61.24
671.745	62.07
671.932	62.19
672.119	61.47
672.306	61.7
672.493	61.14
672.68	60.85
672.867	61.61
673.054	62.12
673.24	62.39
673.427	61.73
673.614	61.7
673.801	61.2
673.988	61.52
674.174	61.4
674.361	61.41
674.548	61.41
674.734	60.59
674.921	60.13
675.108	59.31
675.294	58.88
675.481	59.35
675.668	58.91
675.854	59.15
676.041	58.72
676.227	59.29
676.414	58.8
676.601	59.16
676.787	59.21
676.974	58.97
677.16	59.47
677.347	60.27
677.533	59.85
677.719	60.3
677.906	60.11
678.092	60.21
678.279	60.74
678.465	60.61
678.651	61.07
678.838	60.9
679.024	61.12
679.21	60.95
679.397	60.9
679.583	61.46
679.769	61.01
679.955	61.55
680.142	61.75
680.328	61.49
680.514	61.72
680.7	61.02
680.886	61.66
681.073	61.06
681.259	61.04
681.445	60.47
681.631	60.46
681.817	60.99
682.003	60.52
682.189	60.13
682.375	59.92
682.561	59.52
682.747	59.72
682.933	59.56
683.119	60.04
683.305	60.06
683.491	60.34
683.677	60.52
683.863	60.36
684.049	60.95
684.235	61.7
684.42	61.79
684.606	62.27
684.792	62.79
684.978	62.5
685.164	62.43
685.349	62.84
685.535	62.71
685.721	62.95
685.907	62.44
686.092	62
686.278	61.36
686.464	61.62
686.649	61.96
686.835	61.76
687.021	62.23
687.206	62.85
687.392	62.77
687.577	62.31
687.763	61.79
687.948	62.94
688.134	62.89
688.319	63.31
688.505	62.98
688.69	62.85
688.876	62.15
689.061	62.15
689.247	61.8
689.432	61.33
689.618	61.7
689.803	61.55
689.988	61.18
690.174	61.44
690.359	61.77
690.544	62.21
690.73	61.91
690.915	62.1
691.1	61.46
691.285	61.33
691.471	60.9
691.656	60.85
691.841	61.78
692.026	60.63
692.211	60.79
692.396	60.01
692.582	59.11
692.767	58.95
692.952	58.95
693.137	59.4
693.322	59.57
693.507	60.04
693.692	60.38
693.877	59.8
694.062	60.48
694.247	60.84
694.432	60.96
694.617	61.64
694.802	61.91
694.987	61.92
695.172	61.51
695.357	61.5
695.541	61.68
695.726	61.99
695.911	61.8
696.096	61.88
696.281	61.31
696.466	61.94
696.65	61.59
696.835	61.31
697.02	61.65
697.204	61.75
697.389	61.44
697.574	61.73
697.759	61.02
697.943	60.77
698.128	61.01
698.312	60.89
698.497	60.32
698.682	60.52
698.866	61.21
699.051	60.97
699.235	61.11
699.42	62.01
699.604	62.13
699.789	62.14
699.973	62.36
700.158	62.19
700.342	62.31
700.527	62.65
700.711	62.39
700.895	61.55
701.08	62.04
701.264	61.44
701.448	60.14
701.633	58.98
701.817	58.8
702.001	58.52
702.186	58.45
702.37	57.69
702.554	57.4
702.738	57.37
702.923	56.96
703.107	56.51
703.291	57.11
703.475	56.85
703.659	57.5
703.843	57.96
704.027	58.05
704.212	58.02
704.396	58.87
704.58	58.85
704.764	58.64
704.948	59.23
705.132	59.6
705.316	59.86
705.5	60.89
705.684	60.97
705.868	61.05
706.052	60.9
706.235	61.75
706.419	61.77
706.603	61.86
706.787	62.19
706.971	62
707.155	61.28
707.339	61.23
707.522	60.89
707.706	60.33
707.89	60.84
708.074	61.44
708.257	61.07
708.441	60.35
708.625	59.93
708.808	60.42
708.992	60.64
709.176	60.94
709.359	60.88
709.543	60.53
709.727	60.5
709.91	60.29
710.094	59.74
710.277	58.59
710.461	58.57
710.644	58.92
710.828	58.68
711.011	58.85
711.195	58.28
711.378	58.09
711.562	58.4
711.745	58.79
711.928	58.25
712.112	58.19
712.295	58.62
712.478	58.97
712.662	58.83
712.845	58.68
713.028	58.02
713.212	58.65
713.395	59.01
713.578	58.52
713.761	58.74
713.945	58.93
714.128	59.1
714.311	59.65
714.494	59.95
714.677	59.73
714.86	59.57
715.043	59.59
715.227	59.37
715.41	59.21
715.593	58.7
715.776	57.95
715.959	57.92
716.142	57.96
716.325	57.12
716.508	56.5
716.691	56.55
716.874	56.22
717.057	57.06
717.239	56.5
717.422	56.5
717.605	57.12
717.788	57.8
717.971	57.82
718.154	57.56
718.337	58.53
718.519	58.32
718.702	58.36
718.885	58.45
719.068	58.76
719.25	58.97
719.433	59.36
719.616	59.6
719.798	60.14
719.981	60.6
720.164	60.96
720.346	60.66
720.529	61.4
720.712	61.92
720.894	62.39
721.077	62.13
721.259	62.15
721.442	60.86
721.624	61.09
721.807	61.98
721.989	60.89
722.172	61.15
722.354	60.56
722.537	60.57
722.719	60.53
722.901	61.25
723.084	60.6
723.266	60.95
723.448	61.85
723.631	60.22
723.813	59.4
723.995	60.65
724.178	59.89
724.36	60.35
724.542	60.39
724.724	60.65
724.907	60.01
725.089	58.99
725.271	58.57
725.453	58.02
725.635	59.52
725.817	58.82
725.999	58.12
726.181	59.11
726.364	58.69
726.546	57.48
726.728	56.92
726.91	56.65
727.092	57.64
727.274	57.45
727.456	56.59
727.638	56.51
727.819	55.62
728.001	56.47
728.183	56.27
728.365	56.64
728.547	57.15
728.729	57.53
728.911	58
729.093	58.19
729.274	58.52
729.456	59.79
729.638	59.72
729.82	60.17
730.001	60.09
730.183	59.13
730.365	58.88
730.546	59.55
730.728	59.72
730.91	58.88
731.091	58.26
731.273	59.27
731.455	59.02
731.636	59.23
731.818	58.58
731.999	58.2
732.181	59.02
732.362	58.45
732.544	56.92
732.725	56.9
732.907	56.65
733.088	56.69
733.27	54.93
733.451	55.38
733.633	55.23
733.814	56.31
733.995	56.01
734.177	54.95
734.358	54.95
734.539	56.2
734.721	56.02
734.902	56.66
735.083	56.93
735.264	57.93
735.446	57.64
735.627	57.44
735.808	57.51
735.989	57.54
736.17	57.73
736.351	58.9
736.533	58.8
736.714	57.9
736.895	57
737.076	55.87
737.257	56.79
737.438	57.35
737.619	57.14
737.8	56.03
737.981	55.48
738.162	55.85
738.343	54.09
738.524	54.44
738.705	54.78
738.886	55.48
739.067	56.77
739.247	56.16
739.428	55.21
739.609	54.64
739.79	55.18
739.971	55.73
740.151	56.09
740.332	57.24
740.513	57.13
740.694	56.57
740.874	56.78
741.055	56.87
741.236	55.98
741.417	56.07
741.597	55.86
741.778	56.88
741.958	55.86
742.139	55.77
742.32	55.83
742.5	54.59
742.681	55.28
742.861	55.17
743.042	54.85
743.222	55.26
743.403	55.03
743.583	55
743.764	53.61
743.944	54.07
744.124	53.49
744.305	52.17
744.485	53.38
744.666	53.36
744.846	53.12
745.026	51.51
745.207	51.38
745.387	51.22
745.567	52.37
745.747	53.58
745.928	54.86
746.108	55.12
746.288	57.09
746.468	58.05
746.648	58.51
746.829	57.8
747.009	59.18
747.189	59.58
747.369	59.1
747.549	58.93
747.729	57.22
747.909	55.72
748.089	56.3
748.269	55.5
748.449	54.49
748.629	53.5
748.809	53.47
748.989	53.33
749.169	53.93
749.349	53.52
749.529	54.09
749.709	54.22
749.889	56
750.068	54.71
750.248	55.82
750.428	53.62
750.608	53.99
750.788	56.32
750.967	56.72
751.147	53.78
751.327	55.7
751.507	55.07
751.686	55.25
751.866	54.48
752.046	56.53
752.225	55.66
752.405	56.9
752.585	56.89
752.764	56.32
752.944	56.24
753.123	58.24
753.303	57.42
753.482	57.44
753.662	56.43
753.841	56.63
754.021	55.93
754.2	56.51
754.38	56.23
754.559	57.4
754.739	55.29
754.918	53.96
755.097	53.14
755.277	52.61
755.456	52.29
755.635	54.02
755.815	52.88
755.994	51.18
756.173	50.75
756.352	51.38
756.532	49.15
756.711	50.92
756.89	52.29
757.069	54.19
757.248	54.6
757.427	53.77
757.607	53.92
757.786	54.55
757.965	56.66
758.144	57.54
758.323	57.78
758.502	58.87
758.681	58.76
758.86	58.98
759.039	56.63
759.218	57.73
759.397	58.94
759.576	59.28
759.755	59.52
759.934	58.66
760.113	56.66
760.291	56.86
760.47	55.19
760.649	55.69
760.828	54.93
761.007	57.7
761.186	56.92
761.364	56.86
761.543	56.92
761.722	54.63
761.901	55.06
762.079	55.63
762.258	55.59
762.437	56.89
762.615	57.64
762.794	58.09
762.972	57.16
763.151	57.68
763.33	57.75
763.508	58.55
763.687	60.43
763.865	59.98
764.044	60.34
764.222	60.64
764.401	61.36
764.579	59.65
764.758	58.84
764.936	58.54
765.114	58.17
765.293	57.02
765.471	54.91
765.65	53.53
765.828	53.18
766.006	53.87
766.184	53.35
766.363	51.93
766.541	51.77
766.719	52.53
766.898	52.71
767.076	52.61
767.254	53.66
767.432	54.64
767.61	54.21
767.788	55.08
767.967	54.17
768.145	55.19
768.323	55.75
768.501	55.87
768.679	57.03
768.857	56.48
769.035	56.26
769.213	57.4
769.391	58.51
769.569	61.2
769.747	60.95
769.925	60.13
770.103	58.07
770.281	57.41
770.459	60.1
770.636	59.97
770.814	60.2
770.992	60.42
771.17	60.03
771.348	59.5
771.525	58.19
771.703	56.67
771.881	55.14
772.059	55.2
772.236	56.75
772.414	55.14
772.592	54.2
772.769	54.2
772.947	52.55
773.125	49.85
773.302	49.45
773.48	48.03
773.657	49.51
773.835	50.55
774.013	49.63
774.19	48.63
774.368	47.36
774.545	47.79
774.723	49.63
774.9	51.78
775.077	53.13
775.255	51.94
775.432	53.89
775.61	54.01
775.787	54.01
775.964	56.79
776.142	56.62
776.319	55.07
776.496	52.39
776.674	50.21
776.851	49.04
777.028	49.83
777.205	48.02
777.382	46.39
777.56	48.14
777.737	48.69
777.914	46.79
778.091	47.01
778.268	49.18
778.445	49.4
778.622	49.83
778.8	49
778.977	50.43
779.154	52.19
779.331	53.65
779.508	54.15
779.685	53.35
779.862	54.66
780.038	54.59
780.215	54.34
780.392	56.18
780.569	55.5
780.746	55.61
780.923	51.79
781.1	51.03
781.277	50.05
781.453	45.54
781.63	46.76
781.807	45.35
781.984	44.72
782.16	45.37
782.337	45.93
782.514	44.31
782.691	45.74
782.867	45.04
783.044	45.77
783.221	45.78
783.397	49.41
783.574	48.17
783.75	48.65
783.927	47.21
784.103	47.65
784.28	43.99
784.456	46.69
784.633	47.07
784.809	50.46
784.986	50.76
785.162	51.4
785.339	49.6
785.515	51.55
785.692	50.85
785.868	48.71
786.044	49.03
786.221	50.57
786.397	50.48
786.573	51.94
786.749	50.97
786.926	50.74
787.102	51.11
787.278	52.1
787.454	49.02
787.631	48.52
787.807	49.4
787.983	48.01
788.159	49.45
788.335	48.48
788.511	46.25
788.687	45.41
788.863	48.15
789.039	47.08
789.216	46.39
789.392	47.99
789.568	48.8
789.744	50.73
789.919	48.68
790.095	49.47
790.271	50.4
790.447	50.95
790.623	54.99
790.799	53.14
790.975	52.58
791.151	54.11
791.327	54.69
791.502	58.41
791.678	60.19
791.854	62.8
792.03	59.58
792.205	58.49
792.381	59.01
792.557	57.29
792.733	53.55
792.908	56.32
793.084	53.07
793.259	50.9
793.435	47.21
793.611	46.32
793.786	45.4
793.962	47.64
794.137	47.96
794.313	46.54
794.488	42.82
794.664	42.36
794.839	42.9
795.015	47.21
795.19	47.59
795.366	49.54
795.541	50.68
795.716	48.83
795.892	48.22
796.067	49.95
796.242	50.54
796.418	52.07
796.593	57.75
796.768	56.24
796.944	56.49
797.119	58.64
797.294	56.19
797.469	52.84
797.644	53.05
797.82	51.33
797.995	47.14
798.17	47.57
798.345	46.59
798.52	45.1
798.695	42.47
798.87	38.57
799.045	35.22
799.22	35.82
799.395	39.57
799.57	41.44
799.745	42.69
799.92	48.56
800.095	47.52
800.27	49.06
800.445	48.56
800.62	51.58
800.795	51.97
800.97	52.59
801.145	50.72
801.319	49.36
801.494	47.68
801.669	50.33
801.844	44.09
802.018	46.31
802.193	46.59
802.368	43.07
802.543	42.19
802.717	42.92
802.892	42.83
803.067	46.48
803.241	46.16
803.416	47.45
803.59	42.35
803.765	44.86
803.94	41.6
804.114	42.53
804.289	45.67
804.463	44.23
804.638	45.15
804.812	44.23
804.986	40.9
805.161	41.26
805.335	41.32
805.51	46.7
805.684	45.21
805.858	48.66
806.033	47.78
806.207	47.59
806.381	46.9
806.556	43.43
806.73	48.47
806.904	50.91
807.078	54.19
807.253	54.07
807.427	50.19
807.601	51.57
807.775	50
807.949	50.87
808.123	48.81
808.298	50.68
808.472	56.94
808.646	49.99
808.82	47.13
808.994	42.14
809.168	40.66
809.342	44.47
809.516	41.58
809.69	41.23
809.864	40.82
810.038	41.9
810.212	39.99
810.385	38.33
810.559	40.5
810.733	38.22
810.907	37.61
811.081	34.19
811.255	31.1
811.428	33.94
811.602	36.43
811.776	32.12
811.95	30.37
812.123	31.09
812.297	27.34
812.471	27.9
812.644	34.7
812.818	33.67
812.992	35.03
813.165	30.85
813.339	30.12
813.512	26.58
813.686	27.27
813.86	28.99
814.033	31.03
814.207	32.93
814.38	34.61
814.554	38.04
814.727	36.8
814.9	42.91
815.074	44.57
815.247	45.79
815.421	47.27
815.594	50.36
815.767	53.6
815.941	51.71
816.114	54.03
816.287	50.72
816.46	45.71
816.634	51.44
816.807	48.49
816.98	49.88
817.153	50.01
817.327	45.13
817.5	43.06
817.673	38.31
817.846	36.69
818.019	32.92
818.192	37.37
818.365	36.46
818.538	33.36
818.711	34.45
818.884	37.24
819.057	38.03
819.23	39.86
819.403	41.73
819.576	41.98
819.749	45.84
819.922	43.38
820.095	42.63
820.268	43.36
820.441	45.89
820.614	41.99
820.786	43.88
820.959	44.94
821.132	51.25
821.305	52.03
821.477	54.55
821.65	54.02
821.823	54.22
821.996	55.08
822.168	57.28
822.341	57.32
822.514	58.18
822.686	57.35
822.859	57.9
823.031	57.37
823.204	57.29
823.376	56.82
823.549	57.84
823.722	58.36
823.894	57.98
824.067	56.47
824.239	55.72
824.411	56.4
824.584	56.41
824.756	56.64
824.929	55.74
825.101	54.52
825.273	53.54
825.446	52.79
825.618	51.72
825.79	53.94
825.963	53.05
826.135	53.64
826.307	53.51
826.479	53.35
826.652	52.31
826.824	52.64
826.996	55.73
827.168	56.44
827.34	56.32
827.512	57.1
827.684	53.61
827.856	55.81
828.029	55.28
828.201	52.9
828.373	52.97
828.545	51.39
828.717	51.86
828.889	48.27
829.061	46.81
829.232	45.64
829.404	45.12
829.576	46.08
829.748	43.88
829.92	42.93
830.092	45.17
830.264	43.71
830.436	44.76
830.607	44.57
830.779	47.97
830.951	46.76
831.123	44.82
831.294	41
831.466	39.75
831.638	40.43
831.809	44.77
831.981	44.49
832.153	47.2
832.324	45.78
832.496	41.21
832.667	36.68
832.839	39.4
833.011	42.41
833.182	47.71
833.354	49.47
833.525	50.82
833.697	47.02
833.868	47.72
834.039	46.74
834.211	45.28
834.382	48.06
834.554	49.28
834.725	50.56
834.896	49.55
835.068	48.76
835.239	45.95
835.41	41.82
835.581	43.74
835.753	38.87
835.924	38.91
836.095	37.96
836.266	35.59
836.438	33.38
836.609	27.98
836.78	27.69
836.951	27.06
837.122	28.95
837.293	29.4
837.464	27.42
837.635	27.25
837.806	20.8
837.977	24.17
838.148	22.63
838.319	21.42
838.49	25.17
838.661	21.69
838.832	20.96
839.003	18
839.174	27.26
839.345	23.11
839.516	35.62
839.687	44.46
839.857	38.64
840.028	36.05
840.199	29.89
840.37	35.11
840.54	32.98
840.711	34.56
840.882	36.1
841.053	27.66
841.223	28.68
841.394	22.9
841.564	17.04
841.735	21.39
841.906	27.99
842.076	32.32
842.247	18.36
842.417	17.35
842.588	13.18
842.758	8.26
842.929	9.72
843.099	5.65
843.27	10.23
843.44	6.24
843.611	5.25
843.781	-5.58
843.951	-6.52
844.122	-4.26
844.292	2.01
844.462	5.24
844.633	9.33
844.803	7.8
844.973	9.42
845.144	-5.55
845.314	2.31
845.484	-0.35
845.654	-3.57
845.824	0.16
845.995	-0.21
846.165	-7.87
846.335	-8.8
846.505	-15.13
846.675	-14.17
846.845	-7.61
847.015	4.52
847.185	-0.16
847.355	6.14
847.525	16.82
847.695	22.9
847.865	31.41
848.035	42.34
848.205	46.09
848.375	57.41
848.545	63.6
848.715	55.59
848.884	53.99
849.054	54
849.224	55.38
849.394	50.19
849.564	41.2
849.733	37.89
849.903	24.92
850.073	20.19
850.243	22.7
850.412	23.05
850.582	21.19
850.752	19.63
850.921	12.57
851.091	14.35
851.26	15.65
851.43	31.71
851.599	29.9
851.769	45.74
851.939	51.64
852.108	48.86
852.278	46.3
852.447	56.1
852.616	62.97
852.786	72.22
852.955	57.57
853.125	61.89
853.294	51.19
853.463	43.49
853.633	37.21
853.802	30.27
853.971	28.81
854.141	40.22
854.31	33.67
854.479	26.08
854.648	25.93
854.818	25.75
854.987	25.7
855.156	29.25
855.325	29.89
855.494	27.99
855.663	26.65
855.832	24.61
856.001	19.48
856.171	31.44
856.34	37.36
856.509	27.59
856.678	30.92
856.847	21.85
857.016	5.06
857.185	22.99
857.353	18.49
857.522	25.06
857.691	36.65
857.86	40.72
858.029	41.51
858.198	25.58
858.367	30.53
858.535	32.03
858.704	34.76
858.873	27.97
859.042	2.27
859.21	12.78
859.379	10.85
859.548	-26.68
859.717	-19.26
859.885	-10.29
860.054	-8.78
860.222	-12.34
860.391	-21.59
860.56	-22.22
860.728	-16.96
860.897	9.48
861.065	13.27
861.234	11.59
861.402	20.69
861.571	24.11
861.739	12.99
861.908	15.75
862.076	35.19
862.244	48.32
862.413	54.46
862.581	59.43
862.749	53.01
862.918	33.92
863.086	42.19
863.254	31.11
863.423	26.54
863.591	20.88
863.759	45.01
863.927	28.66
864.096	36.1
864.264	33.64
864.432	24.73
864.6	21.57
864.768	28.2
864.936	20.48
865.104	20.55
865.272	28.5
865.44	39.08
865.608	21.99
865.776	31.73
865.944	22.62
866.112	18.55
866.28	42.6
866.448	36.88
866.616	19.62
866.784	27.44
866.952	22.88
867.12	10.41
867.288	2.65
867.455	-12.55
867.623	-35.18
867.791	-29.39
867.959	-21.73
868.127	-54.17
868.294	-51.92
868.462	-37.45
868.63	-39.64
868.797	-14.2
868.965	-3.13
869.133	-0.85
869.3	26.71
869.468	38.43
869.636	20.09
869.803	21.62
869.971	29.06
870.138	31.42
870.306	30.98
870.473	11.87
870.641	6.1
870.808	1.14
870.975	-6.88
871.143	-8.99
871.31	-16.09
871.478	-1.08
871.645	3.89
871.812	2.15
871.98	-7.18
872.147	-2.84
872.314	4.45
872.482	-0.35
872.649	-0.98
872.816	-4.45
872.983	-26.96
873.15	-26.3
873.318	-46.86
873.485	-70.75
873.652	-92.52
873.819	-96.05
873.986	-61.93
874.153	-62.13
874.32	-45.99
874.487	-34.11
874.654	2.47
874.821	20.7
874.988	19.74
875.155	32.83
875.322	29.63
875.489	42.46
875.656	53.64
875.823	59.23
875.99	57.41
876.157	64.19
876.324	54.84
876.49	42.79
876.657	35.69
876.824	30.98
876.991	22.07
877.157	30.05
877.324	24.4
877.491	19.51
877.658	7.18
877.824	12.91
877.991	1.2
878.157	10.82
878.324	11.48
878.491	-13.36
878.657	-0.29
878.824	-0.34
878.99	1.51
879.157	14.21
879.323	-19.51
879.49	-19.18
879.656	-28.92
879.823	-15.38
879.989	-16.19
880.156	-6.58
880.322	-0.94
880.488	-11.29
880.655	-25.95
880.821	-25.42
880.987	-35.32
881.154	-10.73
881.32	4.88
881.486	16.26
881.652	16.4
881.819	16.83
881.985	8.47
882.151	13.58
882.317	19.73
882.483	31.42
882.649	34.83
882.816	35.98
882.982	36.12
883.148	34.82
883.314	35.92
883.48	38.3
883.646	40.96
883.812	43.44
883.978	46.83
884.144	48.22
884.31	48.18
884.476	50.29
884.642	51.14
884.807	52.06
884.973	52
885.139	53.21
885.305	51.69
885.471	50.92
885.637	50.19
885.802	45.47
885.968	42.08
886.134	42.76
886.3	41.09
886.465	41.6
886.631	42.1
886.797	38.74
886.962	35.41
887.128	29.17
887.293	26.02
887.459	21.85
887.625	20.78
887.79	19.42
887.956	7.47
888.121	4.86
888.287	-6.19
888.452	-17.7
888.618	-23.65
888.783	-42.66
