Data from 2937842_Reflection_1.txt Node
Date: Wed Jul 15 16:14:00 EDT 2015
User: robert
Spectrometer: USB4E03001
Autoset integration time: false
Trigger mode: 4
Integration Time (sec): 1.000000E-1
Scans to average: 10
Electric dark correction enabled: true
Nonlinearity correction enabled: false
Boxcar width: 5
Stray light correction enabled: false
XAxis mode: Wavelengths
Stop averaging: false
Number of Pixels in Spectrum: 3648
>>>>>Begin Spectral Data<<<<<
177.566	100.26
177.785	316.6
178.005	-44.98
178.225	-50.23
178.445	-132.67
178.665	265.85
178.885	728.19
179.105	176.19
179.324	185.96
179.544	5235.94
179.764	-130.16
179.984	130.05
180.204	90.13
180.423	76.63
180.643	53.42
180.863	53.76
181.083	249.03
181.302	312.56
181.522	223.02
181.742	143.01
181.961	33.23
182.181	-10774.07
182.401	-419.49
182.621	-420.5
182.84	-2178.81
183.06	123.12
183.279	31.1
183.499	24.09
183.719	-11.13
183.938	52.3
184.158	55.84
184.377	89.65
184.597	98.6
184.816	94.51
185.036	130.72
185.256	93.95
185.475	28.99
185.695	61.64
185.914	9.58
186.134	-16.52
186.353	-1855.7
186.572	-34.36
186.792	48.09
187.011	119.34
187.231	377.04
187.45	251.27
187.67	245.54
187.889	118.12
188.108	133.18
188.328	176.16
188.547	185.33
188.766	120.74
188.986	236.78
189.205	-156.37
189.424	-15.85
189.644	-75.96
189.863	-42.84
190.082	-9.68
190.302	-81.24
190.521	-64.56
190.74	-60.71
190.959	-87.22
191.178	-662.04
191.398	-111.3
191.617	4515.15
191.836	-1914.19
192.055	137.65
192.274	339.94
192.494	174.61
192.713	-668.37
192.932	156.96
193.151	93.74
193.37	157.58
193.589	120.1
193.808	228.41
194.027	77.8
194.246	37.18
194.465	-30.23
194.685	2607.5
194.904	416.48
195.123	-606.13
195.342	3123.92
195.561	187.79
195.78	257.61
195.999	358.3
196.218	-14342.11
196.436	232.65
196.655	151.04
196.874	349.95
197.093	11903.7
197.312	-553.31
197.531	92.73
197.75	58.93
197.969	108.76
198.188	102.54
198.407	70.73
198.625	65.97
198.844	74.12
199.063	87.61
199.282	83.41
199.501	83.27
199.719	92.39
199.938	132.14
200.157	180.77
200.376	226.3
200.594	309.09
200.813	-1190.29
201.032	-250.24
201.251	-297.18
201.469	-1118.69
201.688	-995.83
201.907	-301.98
202.125	2104.88
202.344	-312.04
202.563	-794.57
202.781	-35268
203	-370.62
203.218	-520.47
203.437	-472.59
203.656	-135.6
203.874	-66.08
204.093	-33.3
204.311	-28.78
204.53	-33.9
204.748	-188.75
204.967	-1016.77
205.185	229.87
205.404	196.09
205.622	153.25
205.841	194.26
206.059	163.45
206.278	123.26
206.496	170.11
206.715	101.33
206.933	110.6
207.151	104.2
207.37	153.59
207.588	138.92
207.806	126.1
208.025	112.16
208.243	96.76
208.461	83.22
208.68	90.04
208.898	78.8
209.116	123.44
209.335	102.69
209.553	104.7
209.771	87.75
209.989	77.17
210.208	62
210.426	80.96
210.644	54.58
210.862	116.23
211.081	103.17
211.299	90.35
211.517	60.43
211.735	-189.67
211.953	-235.29
212.171	42.83
212.39	-96.45
212.608	1335.59
212.826	-65.11
213.044	47.19
213.262	31.14
213.48	-20.28
213.698	735.57
213.916	-63.42
214.134	23.99
214.352	-31.03
214.57	-194.52
214.788	183.25
215.006	93.96
215.224	-101.97
215.442	86.3
215.66	87.91
215.878	39.87
216.096	80.12
216.314	13.89
216.532	19.36
216.75	-7.49
216.968	856.31
217.185	70.07
217.403	62.09
217.621	-80.53
217.839	28.83
218.057	-112.97
218.275	523.54
218.492	1200.88
218.71	941.5
218.928	478.31
219.146	195.97
219.363	89.31
219.581	120.52
219.799	108.02
220.017	104.3
220.234	120.39
220.452	85.35
220.67	51.45
220.887	54.02
221.105	46.69
221.323	53.36
221.54	49.94
221.758	80.14
221.976	91.66
222.193	120.21
222.411	131.55
222.629	138.23
222.846	147.76
223.064	176.02
223.281	159.28
223.499	127.15
223.716	112.88
223.934	112.7
224.151	104.44
224.369	92.82
224.586	69.51
224.804	42.43
225.021	6.72
225.239	23.41
225.456	4.4
225.674	9.46
225.891	-2.87
226.108	-7.12
226.326	0.41
226.543	27
226.76	30.64
226.978	33.42
227.195	36.45
227.413	42.89
227.63	31.98
227.847	32.48
228.064	30.47
228.282	31.25
228.499	32.08
228.716	29.77
228.934	24.84
229.151	26.88
229.368	23.52
229.585	21.62
229.802	20.6
230.02	24.02
230.237	23.73
230.454	25.72
230.671	26.95
230.888	27.68
231.105	28.26
231.323	27.12
231.54	21.13
231.757	24.07
231.974	25.75
232.191	29.08
232.408	30.79
232.625	28.9
232.842	20.34
233.059	12.91
233.276	9.31
233.493	8.39
233.71	18.23
233.927	20.38
234.144	18.99
234.361	12.67
234.578	7.49
234.795	2.29
235.012	4.69
235.229	14.66
235.446	16.3
235.663	16.26
235.879	18.83
236.096	22.21
236.313	28.45
236.53	28.44
236.747	26.95
236.964	31.02
237.181	34.93
237.397	33.83
237.614	31.42
237.831	39.44
238.048	37.8
238.264	39.97
238.481	35.31
238.698	31.59
238.915	32.4
239.131	34.78
239.348	37.03
239.565	34.66
239.781	31.14
239.998	31.88
240.215	29.61
240.431	31.26
240.648	27.4
240.865	25.38
241.081	26.46
241.298	25.04
241.514	26.18
241.731	25.79
241.947	25.05
242.164	24.38
242.38	22.38
242.597	19.78
242.814	18.84
243.03	20.79
243.246	21.67
243.463	21.3
243.679	21.48
243.896	20.11
244.112	19.4
244.329	17.12
244.545	20.41
244.762	21.46
244.978	23.11
245.194	22.01
245.411	21.24
245.627	22.61
245.843	21.8
246.06	22.79
246.276	23.38
246.492	22.55
246.709	23.59
246.925	22.04
247.141	22.06
247.357	21.89
247.574	21.05
247.79	20.14
248.006	19.56
248.222	19.61
248.439	19.78
248.655	19.63
248.871	19.18
249.087	19.23
249.303	19.45
249.519	19.48
249.736	18.66
249.952	20.42
250.168	20.94
250.384	18.46
250.6	19.14
250.816	15.98
251.032	15.87
251.248	15.19
251.464	15.92
251.68	16.23
251.896	16.64
252.112	16.03
252.328	17.6
252.544	17.32
252.76	20.35
252.976	19.47
253.192	22.52
253.408	21.78
253.624	22.47
253.84	22.41
254.056	25.48
254.272	25.91
254.487	29.1
254.703	31.35
254.919	35.52
255.135	34.84
255.351	36.25
255.567	36.91
255.782	37.72
255.998	36.98
256.214	37.6
256.43	33.23
256.646	28.12
256.861	24.56
257.077	24.11
257.293	23.12
257.508	21.64
257.724	18.89
257.94	17.95
258.155	17.86
258.371	18.44
258.587	16.51
258.802	17.23
259.018	18.49
259.234	18.9
259.449	18.51
259.665	17.72
259.88	17.54
260.096	18.7
260.312	18.28
260.527	17.82
260.743	17.91
260.958	17.9
261.174	17.65
261.389	17.35
261.605	17.32
261.82	16.49
262.036	16.98
262.251	17.55
262.466	17.68
262.682	17.27
262.897	19.25
263.113	19.37
263.328	21.29
263.543	21.81
263.759	23.84
263.974	24.64
264.189	23.67
264.405	23.24
264.62	22.51
264.835	21.63
265.051	19.59
265.266	16.52
265.481	16.56
265.696	14.52
265.912	14.63
266.127	14.1
266.342	13
266.557	13.21
266.773	12.53
266.988	13.19
267.203	11.12
267.418	14.12
267.633	12.89
267.848	11.61
268.064	13.48
268.279	12.43
268.494	14.17
268.709	14.69
268.924	16.28
269.139	16.29
269.354	16.83
269.569	18.15
269.784	17.8
269.999	20.34
270.214	21.78
270.429	20.64
270.644	19.93
270.859	19.85
271.074	20.01
271.289	19.93
271.504	20.13
271.719	19.63
271.934	19.76
272.149	17.96
272.363	17.17
272.578	16.34
272.793	15.38
273.008	16.32
273.223	14.67
273.438	13.28
273.653	11.62
273.867	11.56
274.082	9
274.297	8.57
274.512	7.74
274.726	7.55
274.941	6.29
275.156	7.24
275.371	7.38
275.585	6.72
275.8	8.65
276.015	9.38
276.229	10.71
276.444	13.58
276.659	14.34
276.873	17.04
277.088	18.01
277.302	20.56
277.517	19.94
277.732	18.57
277.946	17.97
278.161	18.33
278.375	18.4
278.59	18.7
278.804	14.59
279.019	13.24
279.233	12.39
279.448	12.59
279.662	12.02
279.877	13.08
280.091	13.82
280.306	14.26
280.52	13.63
280.735	14.34
280.949	14.26
281.163	16.75
281.378	17.52
281.592	18.4
281.806	16.82
282.021	15.09
282.235	15.64
282.449	15.43
282.664	17.03
282.878	15.9
283.092	15.49
283.307	14.64
283.521	14.37
283.735	14.35
283.949	14.06
284.164	16.05
284.378	17.05
284.592	15.75
284.806	14.9
285.02	15.18
285.234	16.03
285.449	15.97
285.663	16.12
285.877	15.93
286.091	14.43
286.305	15.04
286.519	14.14
286.733	14.39
286.947	14.92
287.161	15.92
287.375	15.42
287.589	15.03
287.803	14.31
288.017	14.21
288.231	13.57
288.445	15.71
288.659	14.88
288.873	15.81
289.087	16.38
289.301	17.16
289.515	17.59
289.729	15.25
289.943	14.82
290.157	14.92
290.371	15.12
290.584	16.27
290.798	15.49
291.012	15.39
291.226	15.15
291.44	14.15
291.654	15.38
291.867	16.08
292.081	18.37
292.295	19.67
292.509	21.27
292.722	20.44
292.936	20.21
293.15	21.4
293.364	20.87
293.577	19.42
293.791	20.25
294.005	18.05
294.218	16.41
294.432	15.76
294.645	15.36
294.859	14.95
295.073	15.43
295.286	16.4
295.5	15.99
295.713	16.4
295.927	17.38
296.14	16.61
296.354	17.94
296.568	18.24
296.781	18.19
296.994	18.33
297.208	18.59
297.421	18.41
297.635	18.01
297.848	17.59
298.062	18.08
298.275	17.75
298.489	19.59
298.702	18.47
298.915	18.12
299.129	19.27
299.342	19.1
299.555	19.34
299.769	19.88
299.982	19.95
300.195	21.38
300.409	21.26
300.622	20.7
300.835	19.11
301.048	19.5
301.262	19.5
301.475	18.09
301.688	19.27
301.901	18.41
302.115	18.77
302.328	17.91
302.541	15.51
302.754	14.55
302.967	14.75
303.18	15.57
303.393	13.89
303.607	13.79
303.82	15.1
304.033	13.74
304.246	14.63
304.459	13.68
304.672	15.32
304.885	17.45
305.098	17.95
305.311	18.45
305.524	17.33
305.737	19.35
305.95	18.54
306.163	17.93
306.376	19.94
306.589	20.54
306.802	20
307.015	20.92
307.228	19.38
307.44	19.06
307.653	20.6
307.866	22.29
308.079	20.65
308.292	22.19
308.505	22.49
308.718	20.92
308.93	19.56
309.143	20.55
309.356	19.62
309.569	20.04
309.781	19.49
309.994	19.37
310.207	18.08
310.42	20.01
310.632	21.44
310.845	21.92
311.058	21
311.27	21.3
311.483	21.37
311.696	21.23
311.908	21.23
312.121	21.86
312.333	20.62
312.546	21.47
312.759	22.09
312.971	20.5
313.184	20.05
313.396	21.42
313.609	20.75
313.821	21.41
314.034	21.12
314.246	20.96
314.459	20.95
314.671	23.39
314.884	22.79
315.096	22.57
315.309	23.45
315.521	22.63
315.733	22.61
315.946	23.56
316.158	21.81
316.371	21.67
316.583	21.5
316.795	21.4
317.008	19.98
317.22	19.83
317.432	18.71
317.644	17.35
317.857	17.32
318.069	16.86
318.281	18.88
318.494	20.92
318.706	20.52
318.918	20.06
319.13	19.08
319.342	21.12
319.555	20.56
319.767	19.81
319.979	21.94
320.191	23.37
320.403	22.89
320.615	21.34
320.827	19.93
321.039	22.29
321.252	22.67
321.464	24.53
321.676	23
321.888	24.6
322.1	23.61
322.312	23.18
322.524	22.7
322.736	24.34
322.948	22.76
323.16	21.8
323.372	19.77
323.584	21.59
323.796	19.45
324.007	18.52
324.219	16.95
324.431	17.52
324.643	15.78
324.855	15.11
325.067	15.1
325.279	16.14
325.491	16.67
325.702	17.34
325.914	16.29
326.126	17.08
326.338	16.84
326.55	17.97
326.761	19.45
326.973	20.43
327.185	19.77
327.396	20.3
327.608	19.92
327.82	21.98
328.032	20.94
328.243	20.8
328.455	21.28
328.666	22.04
328.878	22.66
329.09	20.88
329.301	21.37
329.513	22.18
329.725	20.25
329.936	20.4
330.148	19.41
330.359	20.58
330.571	20.75
330.782	20.46
330.994	20.86
331.205	18.96
331.417	21.37
331.628	20.75
331.84	20.57
332.051	20.45
332.262	20.58
332.474	19.9
332.685	19.1
332.897	18.25
333.108	19.88
333.319	19.51
333.531	20.4
333.742	17.9
333.953	19.25
334.165	17.81
334.376	19.19
334.587	20.04
334.799	18.76
335.01	19.59
335.221	20.44
335.432	19.48
335.644	20.27
335.855	19.71
336.066	20.75
336.277	18.51
336.488	21.51
336.7	21.32
336.911	21.34
337.122	22.94
337.333	23.01
337.544	23.05
337.755	22.45
337.966	21.96
338.177	23.09
338.388	23.18
338.599	24.69
338.811	22.93
339.022	22.76
339.233	22.34
339.444	22.89
339.655	21.96
339.866	23.16
340.076	23.31
340.287	24.75
340.498	25.02
340.709	24.75
340.92	24.97
341.131	25.32
341.342	25.11
341.553	24.38
341.764	23.64
341.975	24.59
342.185	23.06
342.396	24.22
342.607	22.94
342.818	23.74
343.029	24.8
343.239	24.43
343.45	23.97
343.661	23.63
343.872	24.47
344.082	25.98
344.293	25.91
344.504	26.25
344.714	24.75
344.925	24.01
345.136	23.18
345.346	22.25
345.557	21.61
345.768	23.07
345.978	23.95
346.189	24.3
346.399	23.48
346.61	22.75
346.821	22.31
347.031	24.22
347.242	24.98
347.452	23.9
347.663	23.07
347.873	22.59
348.084	21.76
348.294	20.96
348.504	20.79
348.715	20.73
348.925	22.33
349.136	23.21
349.346	21.94
349.557	21.4
349.767	21.96
349.977	21.71
350.188	22.56
350.398	22.21
350.608	22.81
350.819	22.85
351.029	22.75
351.239	22.06
351.449	22.03
351.66	22.27
351.87	22.69
352.08	23.36
352.29	24.67
352.501	24.73
352.711	24.86
352.921	23.95
353.131	24.25
353.341	24.22
353.552	24.61
353.762	22.78
353.972	22.01
354.182	21.57
354.392	20.79
354.602	20.61
354.812	20.12
355.022	20.22
355.232	20.06
355.442	19.91
355.652	19.91
355.862	19.23
356.072	20.2
356.282	21.11
356.492	22.21
356.702	22.38
356.912	21.55
357.122	21.81
357.332	21.09
357.542	21.41
357.752	20.16
357.962	19.58
358.171	19.96
358.381	19.54
358.591	19.51
358.801	18.14
359.011	18.09
359.221	18.77
359.43	18.79
359.64	19.5
359.85	18.88
360.06	19.67
360.269	19.54
360.479	19.63
360.689	19.25
360.899	19.07
361.108	19.34
361.318	18.6
361.528	18.44
361.737	18.56
361.947	18.06
362.156	18.69
362.366	18.41
362.576	18.38
362.785	17.95
362.995	18.87
363.204	18.64
363.414	19.3
363.623	19.48
363.833	20.12
364.042	20.08
364.252	19.94
364.461	19.33
364.671	18.92
364.88	18.82
365.09	18.53
365.299	18.7
365.509	18.69
365.718	18.22
365.927	18.68
366.137	17.87
366.346	17.7
366.555	17.57
366.765	18.49
366.974	18.57
367.183	18.65
367.393	19.18
367.602	18.67
367.811	17.84
368.021	17.38
368.23	17.65
368.439	18.36
368.648	18.26
368.857	18.62
369.067	17.63
369.276	17.9
369.485	17.15
369.694	16.51
369.903	16.92
370.112	18.19
370.321	18.92
370.531	18.6
370.74	18.01
370.949	18.4
371.158	18.01
371.367	18.35
371.576	18.33
371.785	18.82
371.994	18.96
372.203	18.44
372.412	17.32
372.621	16.62
372.83	16.21
373.039	16.18
373.248	15
373.457	15.26
373.666	14.72
373.874	14.84
374.083	14.83
374.292	15.16
374.501	14.33
374.71	15.27
374.919	14.95
375.128	15.36
375.336	15.65
375.545	16.68
375.754	16.67
375.963	16.1
376.171	15.58
376.38	15.89
376.589	15.31
376.798	16.09
377.006	15.73
377.215	15.78
377.424	15.57
377.632	15.6
377.841	15.27
378.05	15.97
378.258	16.33
378.467	17.2
378.675	16.56
378.884	17.07
379.093	16.93
379.301	17.14
379.51	17.16
379.718	17.14
379.927	16.79
380.135	16.71
380.344	15.9
380.552	16.5
380.761	15.35
380.969	16
381.177	15.45
381.386	14.85
381.594	14.75
381.803	14.19
382.011	14.07
382.219	13.91
382.428	14.04
382.636	14.23
382.845	14.29
383.053	14.86
383.261	14.72
383.469	15.08
383.678	14.95
383.886	14.39
384.094	15.17
384.302	15.11
384.511	15.33
384.719	14.75
384.927	14.87
385.135	14.33
385.343	14.19
385.552	13.51
385.76	13.07
385.968	13.62
386.176	13.68
386.384	13.34
386.592	13.56
386.8	13.26
387.008	13.62
387.216	13.44
387.424	13.38
387.633	12.65
387.841	13.3
388.049	13.57
388.257	13.27
388.465	13.28
388.672	13.3
388.88	12.85
389.088	12.55
389.296	12.29
389.504	11.78
389.712	11.83
389.92	12.16
390.128	11.72
390.336	11.61
390.544	10.85
390.751	10.79
390.959	10.63
391.167	10.51
391.375	10.75
391.583	10.88
391.79	11.2
391.998	11.34
392.206	11.35
392.414	11.03
392.621	10.87
392.829	11.57
393.037	11.38
393.244	11.57
393.452	11.8
393.66	11.45
393.867	11.23
394.075	10.95
394.283	10.98
394.49	10.94
394.698	10.94
394.905	10.81
395.113	10.86
395.32	11.02
395.528	10.82
395.735	10.96
395.943	10.76
396.15	10.9
396.358	11.03
396.565	10.6
396.773	10.52
396.98	10.48
397.188	10.81
397.395	10.84
397.602	10.87
397.81	10.97
398.017	11.02
398.225	11.47
398.432	11.61
398.639	11.57
398.847	11.49
399.054	11.18
399.261	11.36
399.468	10.78
399.676	10.37
399.883	10.24
400.09	9.88
400.297	9.59
400.505	9.41
400.712	9.37
400.919	9.52
401.126	9.79
401.333	10.37
401.54	10.52
401.748	10.9
401.955	10.94
402.162	10.9
402.369	10.85
402.576	10.75
402.783	10.72
402.99	10.62
403.197	10.32
403.404	9.97
403.611	9.62
403.818	9.55
404.025	9.65
404.232	9.7
404.439	10.09
404.646	10.01
404.853	9.85
405.06	9.93
405.267	9.74
405.474	9.55
405.681	9.88
405.887	9.82
406.094	9.75
406.301	9.71
406.508	9.91
406.715	9.39
406.922	9.77
407.128	9.87
407.335	9.89
407.542	9.96
407.749	10.36
407.955	10.45
408.162	10.69
408.369	10.6
408.575	10.42
408.782	10.24
408.989	10.63
409.195	10.44
409.402	10.52
409.609	10.28
409.815	10.01
410.022	9.69
410.228	9.21
410.435	8.99
410.642	9.24
410.848	9.49
411.055	9.5
411.261	9.37
411.468	9.44
411.674	9.2
411.881	9.3
412.087	9.6
412.294	9.77
412.5	10.09
412.706	10.27
412.913	10.19
413.119	9.84
413.326	9.37
413.532	9.42
413.738	9.33
413.945	9.42
414.151	9.59
414.357	9.6
414.564	9.71
414.77	9.89
414.976	9.74
415.182	9.81
415.389	10
415.595	10.46
415.801	10.14
416.007	10.26
416.214	10.22
416.42	10.08
416.626	10.07
416.832	10.14
417.038	9.85
417.244	10.1
417.45	10.11
417.657	9.85
417.863	9.58
418.069	9.75
418.275	9.69
418.481	9.74
418.687	9.74
418.893	9.6
419.099	9.35
419.305	9.39
419.511	9.16
419.717	9.04
419.923	8.98
420.129	9.07
420.335	9.03
420.541	8.91
420.746	8.9
420.952	9
421.158	9.17
421.364	9.02
421.57	8.92
421.776	8.99
421.982	8.95
422.187	9
422.393	9.05
422.599	8.87
422.805	9
423.01	9.03
423.216	8.8
423.422	8.72
423.628	9.05
423.833	9.18
424.039	9.2
424.245	9.39
424.45	9.49
424.656	9.49
424.862	9.62
425.067	9.5
425.273	9.55
425.478	9.48
425.684	9.32
425.889	9.13
426.095	8.97
426.301	8.89
426.506	8.72
426.712	8.67
426.917	8.42
427.123	8.3
427.328	8.46
427.533	8.33
427.739	8.32
427.944	8.42
428.15	8.58
428.355	8.84
428.561	8.71
428.766	8.69
428.971	8.77
429.177	8.94
429.382	9.1
429.587	8.92
429.793	8.95
429.998	9.23
430.203	9.28
430.408	9.1
430.614	8.74
430.819	8.8
431.024	8.83
431.229	8.63
431.434	8.52
431.64	8.53
431.845	8.75
432.05	8.59
432.255	8.58
432.46	8.45
432.665	8.52
432.87	8.66
433.076	8.85
433.281	8.87
433.486	8.96
433.691	9.15
433.896	9.01
434.101	8.88
434.306	9.04
434.511	9.03
434.716	9.06
434.921	8.97
435.126	9.11
435.331	8.8
435.535	8.72
435.74	8.61
435.945	8.64
436.15	8.95
436.355	8.85
436.56	8.83
436.765	8.76
436.97	8.76
437.174	8.99
437.379	8.75
437.584	9.02
437.789	8.95
437.993	9.15
438.198	8.93
438.403	8.77
438.608	8.92
438.812	8.71
439.017	8.9
439.222	8.96
439.426	8.71
439.631	8.76
439.836	8.69
440.04	8.82
440.245	8.66
440.45	8.72
440.654	8.62
440.859	8.56
441.063	8.66
441.268	8.54
441.472	8.64
441.677	8.73
441.881	8.83
442.086	8.89
442.29	8.8
442.495	8.79
442.699	8.84
442.904	8.94
443.108	8.85
443.312	8.89
443.517	9
443.721	8.84
443.925	8.94
444.13	8.84
444.334	8.68
444.538	8.74
444.743	8.73
444.947	8.64
445.151	8.56
445.356	8.59
445.56	8.54
445.764	8.57
445.968	8.56
446.173	8.44
446.377	8.58
446.581	8.66
446.785	8.71
446.989	8.76
447.193	8.86
447.398	8.79
447.602	8.94
447.806	8.82
448.01	8.65
448.214	8.65
448.418	8.78
448.622	8.62
448.826	8.67
449.03	8.68
449.234	8.78
449.438	8.93
449.642	9.06
449.846	8.89
450.05	9.09
450.254	9.28
450.458	9.48
450.662	9.39
450.866	9.5
451.069	9.27
451.273	9.08
451.477	8.88
451.681	8.65
451.885	8.62
452.089	8.61
452.292	8.48
452.496	8.33
452.7	8.23
452.904	8.14
453.107	7.88
453.311	7.89
453.515	8.04
453.719	8.03
453.922	8.02
454.126	8
454.33	7.88
454.533	8.03
454.737	8.19
454.94	8.01
455.144	8.16
455.348	8.17
455.551	8.13
455.755	7.89
455.958	7.87
456.162	7.65
456.365	7.76
456.569	7.95
456.772	8.03
456.976	7.98
457.179	7.97
457.383	7.99
457.586	8.09
457.79	8.23
457.993	8.53
458.196	8.52
458.4	8.72
458.603	8.78
458.807	8.66
459.01	8.61
459.213	8.48
459.417	8.6
459.62	8.61
459.823	8.69
460.026	8.9
460.23	8.78
460.433	8.89
460.636	8.86
460.839	8.79
461.042	8.8
461.246	8.8
461.449	8.96
461.652	8.93
461.855	9.06
462.058	8.95
462.261	8.68
462.464	8.66
462.668	8.58
462.871	8.78
463.074	8.73
463.277	8.7
463.48	8.62
463.683	8.55
463.886	8.59
464.089	8.3
464.292	8.48
464.495	8.58
464.698	8.63
464.901	8.6
465.104	8.44
465.306	8.4
465.509	8.66
465.712	8.45
465.915	8.45
466.118	8.46
466.321	8.46
466.524	8.29
466.726	8.18
466.929	8.03
467.132	8.02
467.335	7.89
467.538	7.96
467.74	7.89
467.943	8.23
468.146	8.16
468.348	7.98
468.551	8.11
468.754	8.23
468.956	8.22
469.159	8.22
469.362	8.25
469.564	8.4
469.767	8.38
469.969	8.28
470.172	8.31
470.375	8.41
470.577	8.64
470.78	8.54
470.982	8.49
471.185	8.6
471.387	8.6
471.59	8.51
471.792	8.55
471.995	8.55
472.197	8.68
472.399	8.56
472.602	8.53
472.804	8.42
473.007	8.69
473.209	8.75
473.411	8.66
473.614	8.65
473.816	8.68
474.018	8.54
474.22	8.54
474.423	8.61
474.625	8.48
474.827	8.48
475.03	8.45
475.232	8.31
475.434	8.23
475.636	8.25
475.838	8.35
476.04	8.42
476.243	8.45
476.445	8.42
476.647	8.06
476.849	8.14
477.051	8.2
477.253	8.33
477.455	8.23
477.657	8.17
477.859	8.26
478.061	8.09
478.263	8.2
478.465	8.29
478.667	8.42
478.869	8.59
479.071	8.7
479.273	8.58
479.475	8.55
479.677	8.57
479.879	8.47
480.081	8.4
480.283	8.51
480.485	8.41
480.686	8.5
480.888	8.37
481.09	8.41
481.292	8.36
481.494	8.53
481.695	8.43
481.897	8.49
482.099	8.58
482.301	8.52
482.502	8.43
482.704	8.39
482.906	8.18
483.107	8.21
483.309	8.23
483.511	8.21
483.712	8.14
483.914	8.2
484.115	8.13
484.317	8.1
484.519	8.11
484.72	8.1
484.922	8.06
485.123	8.11
485.325	8.09
485.526	8.07
485.728	8.07
485.929	8.04
486.131	8.01
486.332	8.04
486.534	7.98
486.735	7.96
486.936	8.04
487.138	8.13
487.339	8.16
487.541	8.21
487.742	8.17
487.943	8.15
488.144	8.16
488.346	8.2
488.547	8.17
488.748	8.21
488.95	8.26
489.151	8.31
489.352	8.26
489.553	8.26
489.755	8.28
489.956	8.3
490.157	8.26
490.358	8.33
490.559	8.25
490.76	8.21
490.961	8.29
491.163	8.33
491.364	8.29
491.565	8.36
491.766	8.36
491.967	8.4
492.168	8.41
492.369	8.5
492.57	8.5
492.771	8.53
492.972	8.69
493.173	8.56
493.374	8.53
493.575	8.45
493.776	8.51
493.976	8.53
494.177	8.48
494.378	8.38
494.579	8.3
494.78	8.21
494.981	8.36
495.182	8.36
495.382	8.67
495.583	8.57
495.784	8.62
495.985	8.42
496.185	8.31
496.386	8.23
496.587	8.3
496.788	8.32
496.988	8.39
497.189	8.17
497.39	8.09
497.59	8.04
497.791	8.11
497.992	8.23
498.192	8.34
498.393	8.42
498.593	8.46
498.794	8.54
498.994	8.49
499.195	8.56
499.395	8.77
499.596	8.8
499.796	8.81
499.997	8.8
500.197	8.86
500.398	8.92
500.598	8.86
500.799	8.83
500.999	8.77
501.199	8.88
501.4	8.88
501.6	8.79
501.801	8.78
502.001	8.89
502.201	8.9
502.402	8.76
502.602	8.83
502.802	8.98
503.002	8.96
503.203	9
503.403	9.25
503.603	9.1
503.803	9.17
504.003	9.2
504.204	9.2
504.404	9.07
504.604	9.04
504.804	8.94
505.004	8.79
505.204	8.72
505.404	8.66
505.604	8.4
505.804	8.47
506.005	8.48
506.205	8.44
506.405	8.34
506.605	8.62
506.805	8.7
507.005	8.66
507.204	8.71
507.404	8.93
507.604	9.04
507.804	9
508.004	9.08
508.204	8.97
508.404	8.93
508.604	8.9
508.804	8.78
509.003	8.86
509.203	9
509.403	8.98
509.603	9.06
509.803	9.02
510.002	9.13
510.202	8.92
510.402	8.92
510.602	8.95
510.801	8.86
511.001	8.91
511.201	8.77
511.4	8.8
511.6	8.82
511.8	8.69
511.999	8.76
512.199	8.67
512.398	8.93
512.598	9.09
512.797	9.18
512.997	9.22
513.197	9.25
513.396	9.46
513.596	9.26
513.795	9.4
513.994	9.42
514.194	9.37
514.393	9.47
514.593	9.4
514.792	9.16
514.992	9.08
515.191	9.26
515.39	9.11
515.59	8.99
515.789	9.12
515.988	9.03
516.188	9.17
516.387	9.2
516.586	9.31
516.786	9.41
516.985	9.59
517.184	9.65
517.383	9.64
517.582	9.74
517.782	9.69
517.981	9.71
518.18	9.73
518.379	9.56
518.578	9.54
518.777	9.42
518.976	9.31
519.176	9.43
519.375	9.43
519.574	9.38
519.773	9.47
519.972	9.56
520.171	9.73
520.37	9.67
520.569	9.79
520.768	9.91
520.967	9.92
521.166	9.9
521.365	9.87
521.564	9.81
521.762	9.85
521.961	9.85
522.16	10.01
522.359	9.87
522.558	9.96
522.757	9.95
522.956	9.84
523.154	9.89
523.353	10.03
523.552	9.96
523.751	10.03
523.949	10.01
524.148	10.1
524.347	9.97
524.546	9.97
524.744	9.99
524.943	10.05
525.142	10.1
525.34	10.11
525.539	10.05
525.737	9.97
525.936	10.01
526.135	10.15
526.333	10.08
526.532	10.06
526.73	10.18
526.929	10.18
527.127	10.21
527.326	10.2
527.524	10.32
527.723	10.4
527.921	10.48
528.12	10.55
528.318	10.52
528.516	10.51
528.715	10.54
528.913	10.46
529.112	10.51
529.31	10.44
529.508	10.46
529.707	10.41
529.905	10.38
530.103	10.39
530.301	10.38
530.5	10.43
530.698	10.47
530.896	10.55
531.094	10.58
531.293	10.6
531.491	10.8
531.689	10.88
531.887	11
532.085	11.14
532.283	11.16
532.481	11.2
532.68	11.18
532.878	11.2
533.076	11.11
533.274	11.24
533.472	11.39
533.67	11.36
533.868	11.35
534.066	11.33
534.264	11.39
534.462	11.38
534.66	11.32
534.858	11.38
535.056	11.4
535.253	11.49
535.451	11.4
535.649	11.32
535.847	11.32
536.045	11.4
536.243	11.45
536.441	11.42
536.638	11.6
536.836	11.69
537.034	11.72
537.232	11.73
537.43	11.82
537.627	11.92
537.825	11.95
538.023	11.96
538.22	12
538.418	12.04
538.616	12.15
538.813	12.09
539.011	12.27
539.209	12.26
539.406	12.38
539.604	12.32
539.801	12.4
539.999	12.41
540.196	12.51
540.394	12.49
540.591	12.53
540.789	12.55
540.986	12.58
541.184	12.58
541.381	12.67
541.579	12.69
541.776	12.81
541.974	12.8
542.171	12.88
542.368	12.93
542.566	13.01
542.763	13
542.96	13.01
543.158	13.01
543.355	13.07
543.552	13.03
543.75	13.07
543.947	13.05
544.144	13.12
544.341	13.19
544.539	13.44
544.736	13.43
544.933	13.65
545.13	13.62
545.327	13.91
545.524	13.92
545.722	14.06
545.919	14.25
546.116	14.4
546.313	14.51
546.51	14.57
546.707	14.41
546.904	14.64
547.101	14.62
547.298	14.78
547.495	14.79
547.692	14.87
547.889	14.87
548.086	14.86
548.283	14.76
548.48	14.72
548.677	14.72
548.874	14.81
549.07	14.75
549.267	14.84
549.464	15.17
549.661	15.17
549.858	15.11
550.055	15.25
550.251	15.13
550.448	15.44
550.645	15.55
550.842	15.65
551.038	15.76
551.235	16.02
551.432	16.05
551.628	15.88
551.825	15.97
552.022	16.32
552.218	16.4
552.415	16.6
552.612	16.65
552.808	16.89
553.005	16.87
553.201	16.93
553.398	16.79
553.594	16.88
553.791	17
553.987	17.06
554.184	17.19
554.38	17.37
554.577	17.53
554.773	17.52
554.97	17.45
555.166	17.6
555.362	17.68
555.559	17.87
555.755	17.92
555.952	18.15
556.148	18.13
556.344	17.98
556.541	18.13
556.737	17.96
556.933	18.03
557.129	18.18
557.326	18.29
557.522	18.62
557.718	18.85
557.914	19.08
558.11	18.93
558.307	19.06
558.503	19.15
558.699	19.12
558.895	19.28
559.091	19.66
559.287	19.71
559.483	19.74
559.679	19.57
559.876	19.41
560.072	19.42
560.268	19.63
560.464	19.62
560.66	19.73
560.856	19.73
561.052	19.93
561.247	19.64
561.443	19.68
561.639	19.66
561.835	19.63
562.031	19.7
562.227	19.57
562.423	19.61
562.619	19.65
562.815	19.5
563.01	19.56
563.206	19.65
563.402	19.82
563.598	20.02
563.793	20.09
563.989	20.19
564.185	20.18
564.381	20.51
564.576	20.65
564.772	20.95
564.968	21.06
565.163	21.17
565.359	21.05
565.555	21.24
565.75	21.33
565.946	21.7
566.141	21.93
566.337	22.03
566.532	21.92
566.728	21.8
566.923	21.79
567.119	22.02
567.314	22.02
567.51	22.27
567.705	22.26
567.901	22.29
568.096	22.15
568.292	22.09
568.487	22.17
568.682	22.42
568.878	22.43
569.073	22.49
569.268	22.54
569.464	22.73
569.659	22.88
569.854	22.96
570.05	23.04
570.245	22.97
570.44	23.14
570.635	23.09
570.831	23.18
571.026	23.5
571.221	23.48
571.416	23.54
571.611	23.57
571.806	23.49
572.002	23.3
572.197	23.16
572.392	23.38
572.587	23.32
572.782	23.47
572.977	23.43
573.172	23.19
573.367	23.26
573.562	23.26
573.757	23.27
573.952	23.37
574.147	23.6
574.342	23.77
574.537	24.02
574.732	24.03
574.927	24.04
575.121	24.06
575.316	24.21
575.511	24.4
575.706	24.64
575.901	24.71
576.096	24.77
576.29	25.02
576.485	24.98
576.68	24.95
576.875	24.86
577.069	25.02
577.264	24.9
577.459	25.02
577.654	24.85
577.848	24.92
578.043	24.82
578.238	24.74
578.432	24.57
578.627	24.73
578.821	24.63
579.016	24.78
579.21	24.91
579.405	25.05
579.6	25.05
579.794	25.06
579.989	24.96
580.183	24.76
580.378	25
580.572	25.34
580.766	25.4
580.961	25.71
581.155	25.75
581.35	25.89
581.544	25.94
581.738	26.26
581.933	26.33
582.127	26.41
582.321	26.84
582.516	26.66
582.71	26.55
582.904	26.73
583.099	26.47
583.293	26.51
583.487	26.16
583.681	26.25
583.875	25.89
584.07	25.95
584.264	25.86
584.458	26.04
584.652	26.12
584.846	26.16
585.04	26.01
585.234	26.1
585.428	26.38
585.623	26.79
585.817	26.62
586.011	26.65
586.205	26.69
586.399	27.05
586.593	27.01
586.787	26.84
586.981	26.71
587.174	26.97
587.368	26.66
587.562	26.86
587.756	27.06
587.95	27.31
588.144	27.51
588.338	27.55
588.532	27.36
588.725	27.46
588.919	27.49
589.113	27.55
589.307	27.42
589.501	27.83
589.694	27.54
589.888	27.48
590.082	27.66
590.275	27.94
590.469	28.03
590.663	28.25
590.856	28.31
591.05	28.61
591.244	28.63
591.437	28.57
591.631	28.33
591.824	28.41
592.018	28.08
592.212	28
592.405	27.91
592.599	27.97
592.792	27.65
592.986	27.68
593.179	27.59
593.372	27.76
593.566	28.01
593.759	28.2
593.953	28.39
594.146	28.37
594.339	28.59
594.533	28.45
594.726	28.48
594.92	28.59
595.113	28.73
595.306	28.88
595.499	28.74
595.693	28.79
595.886	28.77
596.079	28.62
596.272	28.84
596.466	28.82
596.659	28.84
596.852	28.76
597.045	28.63
597.238	28.63
597.431	28.69
597.624	28.69
597.818	28.59
598.011	28.73
598.204	28.74
598.397	28.87
598.59	28.77
598.783	28.8
598.976	29.12
599.169	29.18
599.362	29.14
599.555	29.06
599.748	29.1
599.941	29.14
600.134	29.31
600.326	29.3
600.519	29.08
600.712	29.2
600.905	29.16
601.098	28.9
601.291	29.09
601.483	28.97
601.676	29.13
601.869	29.51
602.062	29.23
602.255	28.77
602.447	28.89
602.64	29.04
602.833	28.88
603.025	29.05
603.218	29.1
603.411	29.04
603.603	29.19
603.796	29.06
603.989	29.02
604.181	29.39
604.374	29.57
604.566	29.76
604.759	29.8
604.951	29.85
605.144	29.76
605.336	29.77
605.529	29.61
605.721	29.66
605.914	29.81
606.106	29.94
606.299	29.69
606.491	29.75
606.683	29.78
606.876	29.85
607.068	29.85
607.26	29.83
607.453	29.99
607.645	30.44
607.837	30.43
608.03	30.44
608.222	30.17
608.414	30.53
608.606	30.44
608.799	30.34
608.991	30.23
609.183	30.18
609.375	30.25
609.567	30.3
609.759	30.35
609.952	30.16
610.144	30.2
610.336	30.47
610.528	30.36
610.72	30.48
610.912	30.42
611.104	30.28
611.296	30.6
611.488	30.68
611.68	30.61
611.872	30.44
612.064	30.68
612.256	30.48
612.448	30.24
612.64	30.07
612.832	29.98
613.023	29.95
613.215	30.49
613.407	30.36
613.599	30.6
613.791	30.59
613.983	30.61
614.174	30.26
614.366	30.16
614.558	30.01
614.75	29.96
614.941	30.2
615.133	30.08
615.325	30.01
615.516	30.12
615.708	30.03
615.9	29.99
616.091	30.19
616.283	30.61
616.475	30.94
616.666	31.32
616.858	31.49
617.049	31.13
617.241	31.35
617.432	31.03
617.624	31.11
617.815	30.98
618.007	31.03
618.198	30.86
618.39	30.9
618.581	31.03
618.773	30.85
618.964	31.4
619.155	31.59
619.347	31.75
619.538	31.93
619.729	32.04
619.921	32.25
620.112	32.28
620.303	32.17
620.494	31.81
620.686	31.7
620.877	31.86
621.068	31.21
621.259	31.4
621.451	31.32
621.642	31.25
621.833	31.31
622.024	31.19
622.215	31.1
622.406	31.26
622.597	31.43
622.788	31.44
622.98	31.24
623.171	31.04
623.362	30.83
623.553	30.8
623.744	31.04
623.935	30.94
624.126	31.09
624.317	31.53
624.508	31.55
624.698	31.33
624.889	31.24
625.08	31.25
625.271	31.76
625.462	31.71
625.653	31.63
625.844	31.81
626.034	31.42
626.225	31.34
626.416	31.13
626.607	31.26
626.798	31.62
626.988	31.72
627.179	31.89
627.37	31.86
627.56	32.19
627.751	32.52
627.942	32.44
628.132	32.84
628.323	32.96
628.514	33.05
628.704	32.87
628.895	32.83
629.085	32.83
629.276	32.94
629.466	33.07
629.657	33.02
629.847	33.06
630.038	33
630.228	32.92
630.419	32.97
630.609	32.83
630.8	33.11
630.99	32.93
631.181	32.88
631.371	32.61
631.561	32.47
631.752	32.12
631.942	31.77
632.132	31.65
632.323	31.74
632.513	31.56
632.703	31.58
632.893	31.62
633.084	31.49
633.274	31.55
633.464	31.63
633.654	31.59
633.844	31.84
634.034	31.99
634.225	32.38
634.415	31.97
634.605	31.9
634.795	32.14
634.985	31.96
635.175	32.23
635.365	32.41
635.555	32.59
635.745	32.6
635.935	32.74
636.125	32.7
636.315	32.12
636.505	32.4
636.695	32.68
636.885	32.53
637.075	32.49
637.265	32.9
637.455	33.14
637.644	33.3
637.834	33.51
638.024	33.26
638.214	33.63
638.404	33.79
638.593	34.15
638.783	34.15
638.973	34.41
639.163	34.91
639.352	34.34
639.542	33.91
639.732	33.59
639.921	33.61
640.111	33.85
640.301	33.61
640.49	33.48
640.68	33.05
640.87	32.58
641.059	32.64
641.249	32.01
641.438	32.26
641.628	32.51
641.817	32.62
642.007	32.22
642.196	32.42
642.386	32.1
642.575	32.63
642.764	32.85
642.954	33.44
643.143	32.89
643.333	32.62
643.522	32.8
643.711	32.68
643.901	32.87
644.09	33.3
644.279	32.88
644.469	33.14
644.658	32.94
644.847	33
645.036	32.52
645.226	32.78
645.415	33.13
645.604	32.98
645.793	33.23
645.982	33.11
646.171	33.05
646.361	32.97
646.55	32.83
646.739	33.05
646.928	33.25
647.117	33.57
647.306	33.95
647.495	34.06
647.684	34.12
647.873	34.08
648.062	34.13
648.251	34.26
648.44	34.37
648.629	34.52
648.818	34.49
649.007	34.56
649.196	34.35
649.384	34.15
649.573	34.18
649.762	33.98
649.951	34.13
650.14	34.07
650.328	33.81
650.517	33.51
650.706	33.32
650.895	33.01
651.083	32.76
651.272	32.95
651.461	33.01
651.65	32.91
651.838	33.12
652.027	32.85
652.216	32.65
652.404	33.01
652.593	33.65
652.781	33.64
652.97	33.87
653.158	34.01
653.347	34.56
653.535	34.32
653.724	34.84
653.912	34.64
654.101	34.69
654.289	34.99
654.478	35.23
654.666	35.22
654.855	35.31
655.043	35.05
655.231	35.16
655.42	34.58
655.608	34.76
655.796	34.82
655.985	35.31
656.173	35.53
656.361	35.37
656.55	34.82
656.738	34.47
656.926	34.67
657.114	35.03
657.302	34.7
657.491	34.79
657.679	34.46
657.867	34.39
658.055	34.22
658.243	34.38
658.431	34.46
658.619	34.67
658.807	34.84
658.996	34.45
659.184	34.16
659.372	34.28
659.56	34.22
659.748	34.41
659.936	34.6
660.124	34.53
660.311	33.97
660.499	34.06
660.687	34.05
660.875	34.17
661.063	34.65
661.251	34.62
661.439	34.59
661.627	34.49
661.814	34.65
662.002	34.4
662.19	34.13
662.378	34.53
662.565	34.5
662.753	34.13
662.941	33.81
663.129	33.43
663.316	33.95
663.504	33.81
663.692	33.99
663.879	34.08
664.067	33.98
664.254	34.2
664.442	34.6
664.63	34.76
664.817	34.87
665.005	35.17
665.192	35.29
665.38	34.75
665.567	34.95
665.755	35.01
665.942	34.63
666.13	34.57
666.317	35.16
666.504	34.98
666.692	35.04
666.879	35.58
667.067	35.26
667.254	35.48
667.441	35.92
667.629	35.68
667.816	35.71
668.003	35.95
668.19	35.78
668.378	35.03
668.565	34.71
668.752	34.24
668.939	33.72
669.127	33.32
669.314	33.14
669.501	32.84
669.688	33.08
669.875	33.28
670.062	33.56
670.249	33.61
670.436	33.84
670.623	34.31
670.81	34.29
670.997	34.51
671.184	34.88
671.371	34.87
671.558	35.57
671.745	35.38
671.932	35.21
672.119	35.03
672.306	34.91
672.493	34.6
672.68	34.66
672.867	35.01
673.054	34.82
673.24	35.15
673.427	35.42
673.614	34.74
673.801	35.13
673.988	35.32
674.174	35.34
674.361	35.59
674.548	35.73
674.734	34.99
674.921	34.56
675.108	35.01
675.294	35.48
675.481	35.55
675.668	35.79
675.854	35.71
676.041	35.59
676.227	35.85
676.414	35.7
676.601	36.11
676.787	36.23
676.974	36.5
677.16	36.69
677.347	36.16
677.533	36.08
677.719	36.06
677.906	35.79
678.092	35.82
678.279	35.73
678.465	35.66
678.651	35.67
678.838	35.98
679.024	36.31
679.21	36.35
679.397	36.58
679.583	36.43
679.769	36.61
679.955	36.63
680.142	36.39
680.328	36.18
680.514	36.19
680.7	36.13
680.886	36.07
681.073	35.92
681.259	35.53
681.445	35.09
681.631	35.55
681.817	35.09
682.003	35.07
682.189	35.76
682.375	36.07
682.561	36.35
682.747	36.41
682.933	36.57
683.119	36.39
683.305	36.09
683.491	36.6
683.677	36.17
683.863	35.99
684.049	36.18
684.235	35.64
684.42	35.58
684.606	36.06
684.792	36.32
684.978	36.2
685.164	36.26
685.349	36.58
685.535	36.34
685.721	36.51
685.907	37.01
686.092	37.4
686.278	37.21
686.464	37.15
686.649	36.81
686.835	36.54
687.021	36.67
687.206	36.71
687.392	36.9
687.577	37
687.763	36.46
687.948	36.89
688.134	36.72
688.319	36.95
688.505	36.67
688.69	36.75
688.876	36.89
689.061	37.26
689.247	37.65
689.432	37.37
689.618	37.17
689.803	37.84
689.988	37.19
690.174	37.19
690.359	36.84
690.544	36.98
690.73	37.22
690.915	36.82
691.1	36.35
691.285	36.18
691.471	36.42
691.656	36.18
691.841	35.68
692.026	35.56
692.211	36
692.396	36.63
692.582	36.25
692.767	35.52
692.952	35.75
693.137	35.66
693.322	35.05
693.507	35.16
693.692	35.68
693.877	36.01
694.062	36.21
694.247	35.45
694.432	35.68
694.617	35.84
694.802	36.41
694.987	36.82
695.172	36.52
695.357	37.19
695.541	37.13
695.726	36.82
695.911	36.58
696.096	36.14
696.281	36.03
696.466	35.4
696.65	35.73
696.835	35.31
697.02	35.09
697.204	35.6
697.389	35.63
697.574	35.21
697.759	35.49
697.943	35.79
698.128	36.28
698.312	36.24
698.497	36.12
698.682	35.73
698.866	36.26
699.051	36.1
699.235	35.91
699.42	35.9
699.604	36.72
699.789	36.79
699.973	37.19
700.158	36.71
700.342	37.41
700.527	37.45
700.711	37.75
700.895	37.17
701.08	37.73
701.264	38.22
701.448	37.84
701.633	37.31
701.817	36.73
702.001	36.07
702.186	36.83
702.37	35.51
702.554	36.03
702.738	36.67
702.923	36.52
703.107	35.83
703.291	34.97
703.475	35.3
703.659	35.2
703.843	35.5
704.027	35.44
704.212	35.46
704.396	35.91
704.58	35.43
704.764	34.42
704.948	34.61
705.132	34.39
705.316	34.95
705.5	34.83
705.684	34.79
705.868	35.28
706.052	34.94
706.235	34.38
706.419	35.36
706.603	35.9
706.787	36.66
706.971	36.94
707.155	37.02
707.339	37.02
707.522	36.74
707.706	36.92
707.89	36.5
708.074	37.15
708.257	37.68
708.441	37.61
708.625	37.12
708.808	36.68
708.992	36.7
709.176	36.88
709.359	35.52
709.543	36.04
709.727	35.96
709.91	35.87
710.094	35.67
710.277	35.07
710.461	34.6
710.644	34.93
710.828	34.34
711.011	35.1
711.195	35.43
711.378	36.86
711.562	36.45
711.745	36.8
711.928	37.32
712.112	36.49
712.295	37.17
712.478	36.92
712.662	36.58
712.845	37.07
713.028	35.57
713.212	34.91
713.395	34.84
713.578	35.3
713.761	34.8
713.945	34.22
714.128	34.95
714.311	34.67
714.494	34.36
714.677	34.78
714.86	34.45
715.043	35.09
715.227	35.87
715.41	35.72
715.593	35.54
715.776	36
715.959	36.34
716.142	36.29
716.325	36.44
716.508	37.1
716.691	36.52
716.874	36.96
717.057	36.57
717.239	37.33
717.422	37.15
717.605	37.35
717.788	36.74
717.971	36.79
718.154	37.03
718.337	38.01
718.519	38.47
718.702	38.98
718.885	39.25
719.068	40.31
719.25	39.59
719.433	39.93
719.616	39.84
719.798	39.85
719.981	39.55
720.164	40.13
720.346	38.51
720.529	37.42
720.712	38.04
720.894	37.58
721.077	36.52
721.259	36.6
721.442	37.32
721.624	36.5
721.807	36.65
721.989	36.31
722.172	35.31
722.354	35.89
722.537	36.32
722.719	35.98
722.901	35.39
723.084	36.28
723.266	35.5
723.448	34.04
723.631	34.51
723.813	34.69
723.995	36.21
724.178	37.12
724.36	36.03
724.542	35.45
724.724	35.21
724.907	36.65
725.089	35.92
725.271	37.47
725.453	37.79
725.635	38.28
725.817	37.89
725.999	37.38
726.181	37.28
726.364	38.39
726.546	38.88
726.728	37.97
726.91	38.42
727.092	38.76
727.274	38.43
727.456	38.31
727.638	37.97
727.819	38.35
728.001	38.5
728.183	38.92
728.365	38.8
728.547	39.66
728.729	40.54
728.911	39.32
729.093	39.15
729.274	38.44
729.456	38.34
729.638	38.16
729.82	38.88
730.001	38.54
730.183	37.69
730.365	37.82
730.546	36.94
730.728	37.04
730.91	37.99
731.091	38.98
731.273	39.17
731.455	39.27
731.636	39.57
731.818	39.31
731.999	39.9
732.181	40.2
732.362	39.67
732.544	39.94
732.725	39.08
732.907	38.06
733.088	37.5
733.27	37.34
733.451	37.83
733.633	37.61
733.814	36.56
733.995	36.21
734.177	35.12
734.358	36.81
734.539	36.19
734.721	37.34
734.902	38.4
735.083	38.59
735.264	38.46
735.446	38.78
735.627	38.72
735.808	39.29
735.989	38.58
736.17	40.08
736.351	38.26
736.533	39.39
736.714	39.29
736.895	38.59
737.076	37.52
737.257	37.98
737.438	38.01
737.619	37.44
737.8	37.47
737.981	38.1
738.162	37.71
738.343	37.23
738.524	36.66
738.705	35.54
738.886	36.05
739.067	37.25
739.247	36.56
739.428	36.55
739.609	38.03
739.79	38.03
739.971	37.6
740.151	37.32
740.332	38.22
740.513	38.52
740.694	39.47
740.874	39.27
741.055	38.5
741.236	37.39
741.417	36.82
741.597	36
741.778	35.36
741.958	36.25
742.139	36.08
742.32	35.37
742.5	35.65
742.681	35.59
742.861	35.49
743.042	34.73
743.222	35.4
743.403	35.84
743.583	34.98
743.764	35.49
743.944	35.64
744.124	37.18
744.305	38.06
744.485	37.75
744.666	38.04
744.846	37.61
745.026	38.18
745.207	40.43
745.387	39.87
745.567	39.7
745.747	39.58
745.928	38.82
746.108	37.58
746.288	35.98
746.468	36.39
746.648	36.34
746.829	36.11
747.009	36.64
747.189	35.34
747.369	34.17
747.549	35.64
747.729	37.2
747.909	36.26
748.089	37.46
748.269	38.86
748.449	39.53
748.629	40.01
748.809	40.3
748.989	40.04
749.169	39.35
749.349	39.2
749.529	38.29
749.709	37.51
749.889	38.04
750.068	37.44
750.248	36.65
750.428	34.13
750.608	33.03
750.788	34.87
750.967	35.31
751.147	36.27
751.327	37.85
751.507	38.54
751.686	38.39
751.866	38.89
752.046	39.34
752.225	39.19
752.405	40.81
752.585	41.85
752.764	39.21
752.944	39.23
753.123	38.61
753.303	38.13
753.482	38.16
753.662	37.97
753.841	37.95
754.021	37.98
754.2	38.27
754.38	37.85
754.559	36.91
754.739	37.79
754.918	37.44
755.097	36.83
755.277	36.54
755.456	35.99
755.635	35.36
755.815	33.88
755.994	34.57
756.173	35.64
756.352	35.37
756.532	35.05
756.711	34.04
756.89	35.43
757.069	36.64
757.248	38.28
757.427	39.02
757.607	40.25
757.786	42.23
757.965	40.17
758.144	39.47
758.323	39.25
758.502	40.42
758.681	41.06
758.86	40.21
759.039	39.91
759.218	38.14
759.397	36.95
759.576	36.69
759.755	36.47
759.934	37.27
760.113	35.94
760.291	36.01
760.47	34.9
760.649	35.27
760.828	33.59
761.007	34.4
761.186	35.31
761.364	36.38
761.543	35.19
761.722	34.97
761.901	35.26
762.079	36.74
762.258	36.87
762.437	38.61
762.615	38.11
762.794	39.07
762.972	38.88
763.151	38.07
763.33	38.27
763.508	38.91
763.687	38.72
763.865	38.18
764.044	38.36
764.222	38.19
764.401	37.44
764.579	37.5
764.758	37.59
764.936	36.92
765.114	38
765.293	38.81
765.471	38.88
765.65	38.26
765.828	38.58
766.006	37.91
766.184	38.5
766.363	37.16
766.541	37.14
766.719	36.8
766.898	37.66
767.076	36.86
767.254	34.93
767.432	34.94
767.61	34.55
767.788	33.89
767.967	34.42
768.145	33.52
768.323	34.14
768.501	34.49
768.679	35.24
768.857	35.16
769.035	36.75
769.213	36.56
769.391	39.17
769.569	40.25
769.747	41.61
769.925	42.17
770.103	44.15
770.281	45.31
770.459	46.32
770.636	46.39
770.814	44.36
770.992	42.83
771.17	44.73
771.348	42.14
771.525	41.69
771.703	38.43
771.881	37.05
772.059	36.14
772.236	34.58
772.414	33.63
772.592	33.47
772.769	37.07
772.947	36.53
773.125	34.59
773.302	34.85
773.48	34.74
773.657	37.3
773.835	38.27
774.013	37.29
774.19	37.94
774.368	41
774.545	41.28
774.723	40.68
774.9	42.46
775.077	43.21
775.255	41.82
775.432	43.5
775.61	46.32
775.787	46.05
775.964	46.15
776.142	44.75
776.319	42.79
776.496	41.85
776.674	41.3
776.851	37.73
777.028	37.14
777.205	36.99
777.382	38.03
777.56	36.07
777.737	37.32
777.914	39
778.091	38.57
778.268	37.37
778.445	37.5
778.622	38.03
778.8	40.46
778.977	41.43
779.154	43.49
779.331	43.93
779.508	44.8
779.685	43.21
779.862	42.33
780.038	44.16
780.215	43.61
780.392	43.24
780.569	42.62
780.746	40.77
780.923	41.06
781.1	39.99
781.277	38
781.453	36.72
781.63	36.67
781.807	35.76
781.984	34.85
782.16	35.17
782.337	35.07
782.514	32.86
782.691	34.15
782.867	34.34
783.044	31.69
783.221	33.96
783.397	35.31
783.574	36.83
783.75	35.95
783.927	35.8
784.103	36.47
784.28	36.02
784.456	37.44
784.633	38.51
784.809	37.6
784.986	41.76
785.162	37.89
785.339	36.59
785.515	34.67
785.692	36.98
785.868	37.99
786.044	37.65
786.221	40.38
786.397	39.3
786.573	36.93
786.749	37.58
786.926	36.32
787.102	37.87
787.278	37.22
787.454	38.34
787.631	34.78
787.807	35.39
787.983	36.35
788.159	36.08
788.335	38.67
788.511	41.19
788.687	40.35
788.863	42.02
789.039	41.07
789.216	41.01
789.392	41.98
789.568	41.92
789.744	41.71
789.919	41.72
790.095	40.37
790.271	39.44
790.447	37.54
790.623	36.38
790.799	32.09
790.975	33.31
791.151	36.14
791.327	37.37
791.502	39.06
791.678	40.89
791.854	40.51
792.03	39.72
792.205	37.13
792.381	38.09
792.557	39.65
792.733	43.21
792.908	43.81
793.084	41.68
793.259	37.6
793.435	41.75
793.611	44.85
793.786	44.54
793.962	42.12
794.137	45.47
794.313	47.03
794.488	45.89
794.664	45.76
794.839	44.44
795.015	48.26
795.19	46.16
795.366	44.12
795.541	38.12
795.716	35.82
795.892	39.27
796.067	36.85
796.242	37.4
796.418	36.74
796.593	34.36
796.768	34.58
796.944	31.16
797.119	35.79
797.294	34.22
797.469	37.92
797.644	41.43
797.82	41.48
797.995	46.07
798.17	45.9
798.345	46.06
798.52	47.3
798.695	46.77
798.87	47.61
799.045	45.12
799.22	43.98
799.395	45.24
799.57	46.54
799.745	45.65
799.92	40.77
800.095	40.23
800.27	42.51
800.445	44.59
800.62	45.15
800.795	41.94
800.97	42.85
801.145	47.51
801.319	40.24
801.494	37.09
801.669	38.23
801.844	38.28
802.018	40.11
802.193	37.71
802.368	33.93
802.543	34.11
802.717	38.87
802.892	39.65
803.067	36.02
803.241	39.59
803.416	37.81
803.59	33.67
803.765	35.59
803.94	35.32
804.114	37.2
804.289	40.36
804.463	41.31
804.638	41.18
804.812	37.29
804.986	37.84
805.161	39.72
805.335	39.69
805.51	43.04
805.684	43.59
805.858	39.38
806.033	39.32
806.207	37.29
806.381	34.47
806.556	31.33
806.73	35.93
806.904	38.43
807.078	38.22
807.253	39.63
807.427	40.58
807.601	38.24
807.775	43.24
807.949	43.56
808.123	46.57
808.298	45.99
808.472	47.73
808.646	47.38
808.82	45.28
808.994	45.88
809.168	43.61
809.342	43.4
809.516	44.71
809.69	42.65
809.864	39.86
810.038	36.26
810.212	39.28
810.385	39.24
810.559	38.95
810.733	39.09
810.907	39.45
811.081	42.2
811.255	39.76
811.428	42.16
811.602	46.29
811.776	48.78
811.95	50.9
812.123	51.62
812.297	47.71
812.471	49.35
812.644	47.03
812.818	44.66
812.992	46.85
813.165	49.41
813.339	46.1
813.512	45.02
813.686	48.85
813.86	46.5
814.033	49.02
814.207	53.82
814.38	47.72
814.554	49.51
814.727	49.07
814.9	45.97
815.074	43.88
815.247	43.84
815.421	42.79
815.594	38.81
815.767	38.93
815.941	38.77
816.114	34.2
816.287	39.87
816.46	38.7
816.634	31.48
816.807	33.88
816.98	36.05
817.153	36.86
817.327	37.68
817.5	37.69
817.673	40.91
817.846	41.85
818.019	47.88
818.192	44.38
818.365	48.81
818.538	52.13
818.711	54.1
818.884	51.65
819.057	51.38
819.23	49.07
819.403	51.28
819.576	51.96
819.749	49.27
819.922	48.23
820.095	47.29
820.268	43.48
820.441	46.77
820.614	45.89
820.786	46.2
820.959	45.52
821.132	45.15
821.305	43.23
821.477	42.16
821.65	42.39
821.823	41.32
821.996	41.57
822.168	42.32
822.341	41.13
822.514	40.65
822.686	40.21
822.859	40.47
823.031	39.91
823.204	39.96
823.376	40.08
823.549	40.07
823.722	40.24
823.894	39.88
824.067	39.05
824.239	39.37
824.411	40.07
824.584	40.96
824.756	40.5
824.929	40.43
825.101	39.56
825.273	39.4
825.446	38.27
825.618	37.65
825.79	38.82
825.963	39.57
826.135	38.77
826.307	37.95
826.479	37.69
826.652	37.55
826.824	39.16
826.996	39.76
827.168	39.75
827.34	39.16
827.512	39.83
827.684	38.79
827.856	38.92
828.029	38.86
828.201	36.79
828.373	37.28
828.545	37.57
828.717	36.43
828.889	38.17
829.061	38.53
829.232	41.4
829.404	39.94
829.576	40.29
829.748	40.51
829.92	42.2
830.092	45.94
830.264	43.63
830.436	44.91
830.607	45.53
830.779	43.76
830.951	44.58
831.123	42.62
831.294	43.46
831.466	45.67
831.638	44.11
831.809	46.42
831.981	48.5
832.153	52.81
832.324	52.67
832.496	53.4
832.667	51.18
832.839	49.01
833.011	48.96
833.182	47.65
833.354	44.09
833.525	43.11
833.697	39.73
833.868	36.5
834.039	36.22
834.211	36.07
834.382	36.66
834.554	38.38
834.725	38.12
834.896	38.96
835.068	38.64
835.239	39.32
835.41	38.25
835.581	38.71
835.753	39.04
835.924	36.49
836.095	38.07
836.266	35.62
836.438	37.54
836.609	38.34
836.78	40.14
836.951	45.1
837.122	46.88
837.293	51.16
837.464	52.61
837.635	55.1
837.806	59.24
837.977	56
838.148	60.06
838.319	55.88
838.49	54.01
838.661	50.89
838.832	47.18
839.003	49.89
839.174	48.99
839.345	48.34
839.516	44.39
839.687	41.27
839.857	40.56
840.028	34.95
840.199	42.61
840.37	46.78
840.54	47.77
840.711	43.16
840.882	32.79
841.053	34.28
841.223	30.26
841.394	35.42
841.564	31.52
841.735	31.3
841.906	38.67
842.076	31.49
842.247	38.15
842.417	37.6
842.588	43.17
842.758	44.79
842.929	39.86
843.099	40.54
843.27	44.08
843.44	40.84
843.611	48.6
843.781	45.06
843.951	48.8
844.122	33.97
844.292	36.81
844.462	38.05
844.633	46.31
844.803	63.46
844.973	77.81
845.144	71.72
845.314	89.06
845.484	75.3
845.654	82.31
845.824	100.34
845.995	130.91
846.165	119.88
846.335	110.51
846.505	107.05
846.675	90.28
846.845	83.8
847.015	86.6
847.185	90.46
847.355	101.24
847.525	101.39
847.695	99.12
847.865	87.4
848.035	81.26
848.205	77.99
848.375	68.67
848.545	71.24
848.715	80.61
848.884	76.36
849.054	71.82
849.224	45.92
849.394	36.5
849.564	24.85
849.733	21.42
849.903	25.07
850.073	28.15
850.243	42.89
850.412	57.51
850.582	56.01
850.752	50.7
850.921	44.19
851.091	46.85
851.26	40.28
851.43	37.31
851.599	31.4
851.769	40.09
851.939	44.31
852.108	40.08
852.278	16.94
852.447	20.12
852.616	30.29
852.786	33.49
852.955	27.58
853.125	30.94
853.294	29.5
853.463	35.24
853.633	30.68
853.802	19.85
853.971	4.25
854.141	18.8
854.31	16.98
854.479	14.8
854.648	14.17
854.818	45.16
854.987	53.09
855.156	49.18
855.325	53.38
855.494	58.2
855.663	61.91
855.832	60.95
856.001	69.51
856.171	71.87
856.34	68.19
856.509	75.31
856.678	68.75
856.847	63.24
857.016	60.62
857.185	62.08
857.353	56.35
857.522	72.81
857.691	77.74
857.86	80.45
858.029	64.01
858.198	77.13
858.367	61.64
858.535	57.88
858.704	66.47
858.873	67.36
859.042	63.83
859.21	54.38
859.379	50.86
859.548	57.54
859.717	64.82
859.885	84.38
860.054	79.37
860.222	88.88
860.391	91.67
860.56	89.6
860.728	106.52
860.897	108.35
861.065	136.13
861.234	127.81
861.402	124.87
861.571	109.2
861.739	100.39
861.908	91.05
862.076	89.67
862.244	100.02
862.413	104.36
862.581	94.55
862.749	91.47
862.918	74.79
863.086	76.17
863.254	70.25
863.423	68.65
863.591	55.92
863.759	68.62
863.927	69.53
864.096	57.3
864.264	49.26
864.432	63.63
864.6	70.67
864.768	70.95
864.936	67.21
865.104	61.05
865.272	52.29
865.44	63.65
865.608	62.48
865.776	53.71
865.944	61.88
866.112	49.35
866.28	21.25
866.448	17.34
866.616	-5.45
866.784	-27.48
866.952	-19.02
867.12	8.21
867.288	2.1
867.455	1.39
867.623	-1
867.791	13.77
867.959	15.09
868.127	38.83
868.294	25.36
868.462	38.18
868.63	46.57
868.797	34.67
868.965	25.05
869.133	16.9
869.3	12.13
869.468	11.83
869.636	0.46
869.803	18.54
869.971	23.07
870.138	39.48
870.306	42.66
870.473	68.25
870.641	116.09
870.808	144.39
870.975	156.09
871.143	117.87
871.31	120.24
871.478	107.97
871.645	104.12
871.812	100.73
871.98	88.99
872.147	86.96
872.314	79.55
872.482	73.98
872.649	65.58
872.816	79.33
872.983	77.38
873.15	72.88
873.318	78.4
873.485	72.76
873.652	62.66
873.819	50.02
873.986	58.84
874.153	59.61
874.32	45.18
874.487	50.84
874.654	33.09
874.821	24.72
874.988	13.06
875.155	17.34
875.322	34.12
875.489	33.83
875.656	44.98
875.823	35.56
875.99	39.85
876.157	47.26
876.324	60.94
876.49	79.47
876.657	87.48
876.824	93.11
876.991	54.73
877.157	23.86
877.324	16.13
877.491	24.88
877.658	16.43
877.824	9
877.991	31.84
878.157	30.34
878.324	26.28
878.491	17.26
878.657	34.64
878.824	41.82
878.99	49.69
879.157	53.83
879.323	62.41
879.49	67.28
879.656	67.98
879.823	47.25
879.989	43.57
880.156	53.27
880.322	76.05
880.488	74.36
880.655	83.24
880.821	87.79
880.987	71.09
881.154	49.17
881.32	55.58
881.486	54.77
881.652	55.18
881.819	54.83
881.985	49.85
882.151	45.42
882.317	46.48
882.483	47.76
882.649	47.62
882.816	48.11
882.982	48.8
883.148	46.29
883.314	47.62
883.48	48.5
883.646	43.45
883.812	43.62
883.978	42.98
884.144	40.63
884.31	41.61
884.476	40.74
884.642	42.57
884.807	46.94
884.973	46.51
885.139	45.66
885.305	45.28
885.471	50.46
885.637	51.14
885.802	57.64
885.968	58.78
886.134	56.27
886.3	52.58
886.465	50.49
886.631	44.98
886.797	41.69
886.962	41.98
887.128	35.2
887.293	26.63
887.459	26.99
887.625	22.05
887.79	20.83
887.956	25.67
888.121	31.06
888.287	30.37
888.452	28.31
888.618	37.74
888.783	32.89
