Data from 2937869_Reflection_2.txt Node
Date: Wed Jul 15 15:02:57 EDT 2015
User: robert
Spectrometer: USB4E03001
Autoset integration time: false
Trigger mode: 4
Integration Time (sec): 1.000000E-1
Scans to average: 10
Electric dark correction enabled: true
Nonlinearity correction enabled: false
Boxcar width: 5
Stray light correction enabled: false
XAxis mode: Wavelengths
Stop averaging: false
Number of Pixels in Spectrum: 3648
>>>>>Begin Spectral Data<<<<<
177.566	-1780.81
177.785	-355.25
178.005	593.63
178.225	294.54
178.445	247.82
178.665	252.88
178.885	4.94
179.105	954.55
179.324	-192.49
179.544	-100.99
179.764	-124.18
179.984	-85.36
180.204	-24.29
180.423	-46.34
180.643	-37.68
180.863	-100.9
181.083	-153.43
181.302	-207.41
181.522	-63.89
181.742	-72
181.961	-241.01
182.181	125.83
182.401	-30.99
182.621	31.7
182.84	-13.4
183.06	15.91
183.279	28.79
183.499	14.57
183.719	0.8
183.938	4.83
184.158	56.22
184.377	52.91
184.597	92.78
184.816	120.07
185.036	275.37
185.256	194.57
185.475	147.75
185.695	-473.91
185.914	-12.83
186.134	-1.32
186.353	-14.86
186.572	63.93
186.792	32.25
187.011	71.47
187.231	132
187.45	102.42
187.67	95.47
187.889	56.26
188.108	99.08
188.328	165.83
188.547	160.79
188.766	534.55
188.986	376.37
189.205	331.15
189.424	211.5
189.644	406.04
189.863	627.29
190.082	712.01
190.302	-30692.86
190.521	-1123.84
190.74	3.46
190.959	50.67
191.178	102.22
191.398	109.26
191.617	92.67
191.836	70.82
192.055	75.66
192.274	81.85
192.494	40.39
192.713	-32
192.932	-13.91
193.151	-98.91
193.37	-98.47
193.589	-981.42
193.808	-2656.79
194.027	375.03
194.246	200.84
194.465	204.73
194.685	247.91
194.904	224.61
195.123	213.51
195.342	178.98
195.561	189.17
195.78	192.87
195.999	141.68
196.218	132.65
196.436	116.46
196.655	121.05
196.874	103.3
197.093	124.35
197.312	147.4
197.531	122.94
197.75	108.32
197.969	134.84
198.188	148.03
198.407	136.01
198.625	164.41
198.844	111.86
199.063	39.8
199.282	-91.02
199.501	-55.8
199.719	-16.45
199.938	-53.46
200.157	-285.36
200.376	-216.77
200.594	-177.87
200.813	-298.1
201.032	-858.16
201.251	-348.65
201.469	-134.46
201.688	113.07
201.907	127.11
202.125	142.61
202.344	223.5
202.563	179.18
202.781	190.61
203	210.35
203.218	216.84
203.437	166.77
203.656	1140.03
203.874	-664.33
204.093	-242.89
204.311	-135.06
204.53	-74.65
204.748	-84.23
204.967	-77.79
205.185	-72.88
205.404	-80.88
205.622	-141.74
205.841	-225.61
206.059	-708.97
206.278	10695.31
206.496	1599.17
206.715	579.13
206.933	1634.95
207.151	251.01
207.37	205.5
207.588	268.74
207.806	225.46
208.025	210.3
208.243	-476.08
208.461	-64.96
208.68	-51.64
208.898	-270.06
209.116	-215.92
209.335	310.96
209.553	292.78
209.771	951.5
209.989	169.72
210.208	-53.57
210.426	-2245.56
210.644	100.8
210.862	-88.03
211.081	12.54
211.299	515.88
211.517	-104.82
211.735	8.67
211.953	-45.23
212.171	-78.24
212.39	-24.13
212.608	-137.45
212.826	-215.94
213.044	-2577.78
213.262	640.06
213.48	-1004.78
213.698	480.88
213.916	74.81
214.134	10.8
214.352	9.66
214.57	8.48
214.788	7.71
215.006	13.05
215.224	5.71
215.442	20.47
215.66	100.38
215.878	92.27
216.096	105.85
216.314	122.7
216.532	153.28
216.75	75.6
216.968	122.94
217.185	150.66
217.403	218.88
217.621	558.38
217.839	558.48
218.057	269.38
218.275	-95.41
218.492	-620.96
218.71	-338.97
218.928	-156.35
219.146	-36.59
219.363	-4.86
219.581	38.14
219.799	105.89
220.017	118.26
220.234	135.14
220.452	151.07
220.67	186.29
220.887	216.08
221.105	191.52
221.323	520.81
221.54	-418.79
221.758	-37.14
221.976	-9.97
222.193	6.93
222.411	21.55
222.629	8.27
222.846	34.52
223.064	68.71
223.281	50.91
223.499	52.79
223.716	108.77
223.934	133.17
224.151	228.17
224.369	186.89
224.586	311.11
224.804	436.48
225.021	1051.6
225.239	453.14
225.456	170.5
225.674	179.73
225.891	216.01
226.108	134.15
226.326	69.44
226.543	13.88
226.76	-168.78
226.978	-140.08
227.195	-59.6
227.413	-38.15
227.63	-14.27
227.847	-42.72
228.064	1.71
228.282	2.53
228.499	4.03
228.716	6.43
228.934	9.68
229.151	14.99
229.368	17.42
229.585	15.7
229.802	15.59
230.02	19.52
230.237	22.25
230.454	8.47
230.671	7.99
230.888	8.64
231.105	12.96
231.323	14.57
231.54	7.01
231.757	7.73
231.974	13.56
232.191	19.43
232.408	8.64
232.625	1.08
232.842	27.88
233.059	25.29
233.276	30.11
233.493	9.34
233.71	10.02
233.927	14.23
234.144	10.61
234.361	15.71
234.578	20.78
234.795	27.89
235.012	25.68
235.229	24.38
235.446	29.58
235.663	27.96
235.879	33.08
236.096	30.55
236.313	31.61
236.53	45.15
236.747	43.07
236.964	32.04
237.181	23.29
237.397	33.71
237.614	27.43
237.831	22.93
238.048	22.92
238.264	21.36
238.481	19.79
238.698	22.83
238.915	15.36
239.131	20
239.348	32.22
239.565	34.74
239.781	30.28
239.998	28.35
240.215	28.57
240.431	25.37
240.648	21.5
240.865	23.65
241.081	19.02
241.298	16.27
241.514	12.21
241.731	12.67
241.947	14.58
242.164	13.87
242.38	15
242.597	15.83
242.814	15.38
243.03	19.07
243.246	16.29
243.463	18.25
243.679	18.32
243.896	19.16
244.112	18.93
244.329	20.03
244.545	22.19
244.762	23.96
244.978	23.28
245.194	23.34
245.411	18.62
245.627	23.46
245.843	23.83
246.06	21.29
246.276	19.64
246.492	18.16
246.709	17.95
246.925	17.87
247.141	17
247.357	17.72
247.574	17.16
247.79	17.9
248.006	16.86
248.222	15.62
248.439	15.09
248.655	15.9
248.871	15.19
249.087	14.04
249.303	11.51
249.519	9.82
249.736	7.44
249.952	8.49
250.168	8.12
250.384	7.42
250.6	8.59
250.816	12.92
251.032	14.36
251.248	14.17
251.464	13.08
251.68	15.47
251.896	13.47
252.112	12.93
252.328	11.42
252.544	11.28
252.76	10.04
252.976	9.84
253.192	9.02
253.408	10.5
253.624	13.56
253.84	16.03
254.056	16.55
254.272	17.38
254.487	19.82
254.703	23.58
254.919	24.68
255.135	26.38
255.351	28.87
255.567	28.24
255.782	22.11
255.998	19.19
256.214	16.89
256.43	15.28
256.646	16.56
256.861	14.95
257.077	10.78
257.293	9.14
257.508	5.84
257.724	1.87
257.94	2.09
258.155	2.94
258.371	3.77
258.587	6.14
258.802	8.2
259.018	9.18
259.234	10.54
259.449	11.38
259.665	11.13
259.88	11.35
260.096	12.25
260.312	13.38
260.527	14.16
260.743	14.53
260.958	13.69
261.174	11.89
261.389	12.8
261.605	12.4
261.82	12
262.036	13.01
262.251	13.74
262.466	13.9
262.682	11.82
262.897	12.06
263.113	11.35
263.328	9.27
263.543	13.14
263.759	12.14
263.974	10.48
264.189	8.59
264.405	3.87
264.62	2.51
264.835	0.09
265.051	0.41
265.266	-1.8
265.481	-4.99
265.696	-0.85
265.912	-1.31
266.127	-0.01
266.342	2.69
266.557	4.9
266.773	7.7
266.988	8.61
267.203	8.75
267.418	8.95
267.633	9.98
267.848	13.64
268.064	12.32
268.279	11.88
268.494	9.94
268.709	8.8
268.924	9.27
269.139	10.52
269.354	9.26
269.569	9.94
269.784	8.84
269.999	9.24
270.214	8.65
270.429	10.44
270.644	10.42
270.859	9.24
271.074	9.75
271.289	10.68
271.504	9.17
271.719	10.23
271.934	8.81
272.149	9.93
272.363	10.35
272.578	10.53
272.793	10.9
273.008	11.43
273.223	12.63
273.438	12.12
273.653	10.94
273.867	10.42
274.082	11.27
274.297	11.49
274.512	11.54
274.726	9.62
274.941	9.38
275.156	7.19
275.371	6.8
275.585	8.06
275.8	7.61
276.015	7.8
276.229	8.06
276.444	6.63
276.659	4.93
276.873	4.83
277.088	6.88
277.302	4.26
277.517	4.54
277.732	5.82
277.946	3.86
278.161	6.95
278.375	6.06
278.59	8.25
278.804	8.21
279.019	11.39
279.233	13.06
279.448	9.14
279.662	12.32
279.877	13.36
280.091	13.93
280.306	15.75
280.52	14.24
280.735	14.9
280.949	14.02
281.163	13.6
281.378	13.92
281.592	11.55
281.806	14.39
282.021	13.03
282.235	11.07
282.449	9.43
282.664	10.4
282.878	9.42
283.092	10.43
283.307	10.29
283.521	9.29
283.735	9.7
283.949	11.19
284.164	11.29
284.378	11.4
284.592	13.72
284.806	13.58
285.02	11.47
285.234	13.4
285.449	12.19
285.663	13.11
285.877	13.77
286.091	13.08
286.305	12.27
286.519	11.19
286.733	11.9
286.947	10.26
287.161	10.19
287.375	9.61
287.589	8.24
287.803	7.82
288.017	6.77
288.231	5.96
288.445	7.05
288.659	8.72
288.873	8.96
289.087	9.48
289.301	10.98
289.515	12.17
289.729	12.83
289.943	14.02
290.157	15.2
290.371	16.17
290.584	17.65
290.798	16.42
291.012	14.31
291.226	15.09
291.44	13.25
291.654	12.54
291.867	10.35
292.081	11.61
292.295	9.85
292.509	8.31
292.722	7.96
292.936	7.03
293.15	7.76
293.364	9.33
293.577	10.45
293.791	13.21
294.005	14.69
294.218	15.23
294.432	15.23
294.645	15.99
294.859	16.97
295.073	15.17
295.286	15.91
295.5	15.74
295.713	16.42
295.927	15.37
296.14	12.58
296.354	11.17
296.568	12.24
296.781	12.39
296.994	12.77
297.208	12.84
297.421	14.43
297.635	13.74
297.848	13.98
298.062	12.64
298.275	12.7
298.489	12.86
298.702	13.46
298.915	12.35
299.129	11.18
299.342	10.56
299.555	11.55
299.769	9.66
299.982	10.36
300.195	9.32
300.409	10.44
300.622	10.06
300.835	10.13
301.048	8.83
301.262	8.36
301.475	9.72
301.688	9.89
301.901	10.09
302.115	10.21
302.328	11.18
302.541	11.58
302.754	10.27
302.967	11.2
303.18	13.33
303.393	14.87
303.607	15.93
303.82	16.17
304.033	16.07
304.246	14.12
304.459	15.62
304.672	14.65
304.885	14.79
305.098	16.56
305.311	15.73
305.524	14.51
305.737	15.01
305.95	15.74
306.163	14.99
306.376	15.73
306.589	15.37
306.802	14.41
307.015	13.65
307.228	14.23
307.44	14.9
307.653	16.42
307.866	17.91
308.079	16.83
308.292	15.78
308.505	16.01
308.718	14.22
308.93	16.07
309.143	16.77
309.356	17.52
309.569	15.48
309.781	15.7
309.994	15.49
310.207	16.49
310.42	18.38
310.632	18.26
310.845	19.28
311.058	19.18
311.27	18.66
311.483	16.09
311.696	15.27
311.908	16.4
312.121	13.83
312.333	13.29
312.546	12.01
312.759	10.73
312.971	10.93
313.184	8.18
313.396	9.32
313.609	10.05
313.821	11.81
314.034	12.41
314.246	11.49
314.459	13.07
314.671	10.84
314.884	9.31
315.096	8.74
315.309	9.45
315.521	11.16
315.733	10.06
315.946	8.95
316.158	12.09
316.371	13.48
316.583	14.07
316.795	11.6
317.008	13.39
317.22	14.96
317.432	15.19
317.644	15.44
317.857	14.79
318.069	15.83
318.281	15.93
318.494	15.74
318.706	15.76
318.918	17.01
319.13	17.69
319.342	18.12
319.555	16.61
319.767	15.11
319.979	13.71
320.191	14.38
320.403	13.56
320.615	12.78
320.827	12.14
321.039	10.28
321.252	10.07
321.464	12.31
321.676	12.86
321.888	13.61
322.1	16.27
322.312	16.48
322.524	15.76
322.736	16.15
322.948	19.24
323.16	16.58
323.372	17.69
323.584	16.13
323.796	17.58
324.007	16.67
324.219	16.84
324.431	17.84
324.643	18.14
324.855	17.88
325.067	17.59
325.279	14.93
325.491	15.84
325.702	15.2
325.914	17.28
326.126	15.37
326.338	15.71
326.55	16.2
326.761	13.79
326.973	13.9
327.185	14.68
327.396	15.29
327.608	15.25
327.82	15.04
328.032	14.49
328.243	15.2
328.455	15.86
328.666	15.73
328.878	15.45
329.09	16.8
329.301	17.98
329.513	18.34
329.725	18.26
329.936	19.47
330.148	20.48
330.359	22.46
330.571	20.66
330.782	19.66
330.994	20.41
331.205	21.02
331.417	21.77
331.628	19.16
331.84	19.37
332.051	18.95
332.262	17.72
332.474	17.04
332.685	15.57
332.897	15.97
333.108	17.75
333.319	14.53
333.531	15.28
333.742	13.67
333.953	13.83
334.165	12.83
334.376	13.63
334.587	12.26
334.799	12.97
335.01	13.06
335.221	14.13
335.432	14.05
335.644	15.25
335.855	14.58
336.066	14.65
336.277	15.44
336.488	16.87
336.7	16.19
336.911	16.73
337.122	17.9
337.333	16.79
337.544	15.65
337.755	16.33
337.966	17.22
338.177	17.08
338.388	18.01
338.599	18.62
338.811	16.02
339.022	15.41
339.233	16.03
339.444	15.49
339.655	16.05
339.866	16.06
340.076	14.74
340.287	15.38
340.498	14.87
340.709	12.9
340.92	11.03
341.131	12.89
341.342	13.84
341.553	15.38
341.764	15.97
341.975	15.34
342.185	15.55
342.396	16.4
342.607	16.02
342.818	15.48
343.029	15.63
343.239	17.31
343.45	15.71
343.661	14.86
343.872	14.2
344.082	13.84
344.293	14.54
344.504	15.07
344.714	14.53
344.925	15.12
345.136	15.67
345.346	16.29
345.557	15.79
345.768	17.68
345.978	17.76
346.189	17.91
346.399	17.93
346.61	18.34
346.821	17.36
347.031	17.56
347.242	16.96
347.452	14.99
347.663	14.3
347.873	14.41
348.084	13.17
348.294	13.97
348.504	10.75
348.715	10.12
348.925	10.78
349.136	11.48
349.346	10.16
349.557	9.52
349.767	11.99
349.977	13.46
350.188	13.02
350.398	12.5
350.608	13.21
350.819	14.05
351.029	14.18
351.239	13.2
351.449	12
351.66	12.39
351.87	13.15
352.08	13.19
352.29	14.17
352.501	15.25
352.711	15.96
352.921	15.7
353.131	16.32
353.341	15.11
353.552	16.13
353.762	17.44
353.972	17.1
354.182	17.1
354.392	17.35
354.602	15.67
354.812	15.06
355.022	16.16
355.232	16.94
355.442	18.01
355.652	19.24
355.862	18.65
356.072	18.83
356.282	17.97
356.492	17.13
356.702	16.24
356.912	15.3
357.122	15.54
357.332	14.44
357.542	12.46
357.752	11.63
357.962	11.02
358.171	11.93
358.381	11.36
358.591	12.53
358.801	13.32
359.011	14.93
359.221	16.38
359.43	15.98
359.64	15.42
359.85	15.75
360.06	16.02
360.269	16.17
360.479	14.83
360.689	15.37
360.899	14.75
361.108	15.55
361.318	14.07
361.528	14.06
361.737	14.58
361.947	14.88
362.156	15.13
362.366	14.64
362.576	14.14
362.785	15.05
362.995	14.85
363.204	14.99
363.414	13.4
363.623	14.38
363.833	13.28
364.042	12.62
364.252	12.08
364.461	11.89
364.671	12.63
364.88	13.73
365.09	12.56
365.299	12.4
365.509	12.42
365.718	13.59
365.927	12.17
366.137	13.08
366.346	12.2
366.555	12.76
366.765	13.33
366.974	13.11
367.183	11.85
367.393	12.7
367.602	12.31
367.811	12.19
368.021	11.93
368.23	12.69
368.439	12.41
368.648	12.66
368.857	12.58
369.067	12.16
369.276	11.92
369.485	12.91
369.694	12.39
369.903	13.11
370.112	13.17
370.321	12.56
370.531	12.84
370.74	12.41
370.949	13.29
371.158	13.69
371.367	14.19
371.576	14.2
371.785	13.82
371.994	13.66
372.203	13.46
372.412	13.31
372.621	13.34
372.83	12.79
373.039	13.85
373.248	12.98
373.457	12.76
373.666	11.84
373.874	11.5
374.083	11.57
374.292	11.73
374.501	11.69
374.71	11.62
374.919	12.23
375.128	12.6
375.336	11.58
375.545	11.65
375.754	11.49
375.963	11.22
376.171	12.07
376.38	11.84
376.589	10.65
376.798	10.34
377.006	10.88
377.215	10.42
377.424	10.13
377.632	10.3
377.841	10.66
378.05	10.63
378.258	11.44
378.467	11.27
378.675	10.74
378.884	11.79
379.093	11.37
379.301	11.18
379.51	11.54
379.718	11.13
379.927	10.83
380.135	10.92
380.344	10.64
380.552	9.53
380.761	9.03
380.969	9.32
381.177	9.69
381.386	9.66
381.594	9.43
381.803	8.91
382.011	8.94
382.219	8.91
382.428	8.86
382.636	9.02
382.845	9.16
383.053	8.79
383.261	8.22
383.469	7.93
383.678	8.02
383.886	8.5
384.094	8.48
384.302	8.74
384.511	8.89
384.719	8.71
384.927	8.54
385.135	9.27
385.343	9.13
385.552	9.65
385.76	9.67
385.968	9.4
386.176	9.04
386.384	8.75
386.592	8.56
386.8	8.61
387.008	8.59
387.216	8.3
387.424	7.61
387.633	7.79
387.841	7.19
388.049	6.8
388.257	6.67
388.465	7.15
388.672	7.22
388.88	6.79
389.088	6.5
389.296	6
389.504	6.4
389.712	6.18
389.92	6.8
390.128	7.22
390.336	7.23
390.544	7.59
390.751	7.29
390.959	7.23
391.167	7.41
391.375	7.48
391.583	7.66
391.79	7.81
391.998	8.56
392.206	8.47
392.414	8.34
392.621	8.07
392.829	7.91
393.037	7.98
393.244	8.07
393.452	7.95
393.66	7.42
393.867	7.46
394.075	7.03
394.283	6.59
394.49	6.05
394.698	6
394.905	6.07
395.113	6.1
395.32	5.86
395.528	5.67
395.735	5.87
395.943	6.6
396.15	6.66
396.358	6.63
396.565	6.66
396.773	6.75
396.98	6.71
397.188	7.1
397.395	7.2
397.602	7.36
397.81	7.21
398.017	7.53
398.225	7.21
398.432	7.03
398.639	7.47
398.847	7.12
399.054	6.97
399.261	6.82
399.468	6.62
399.676	6.36
399.883	6.34
400.09	6.71
400.297	6.25
400.505	6.47
400.712	6.8
400.919	6.77
401.126	7.07
401.333	7.5
401.54	7.61
401.748	7.7
401.955	7.98
402.162	7.49
402.369	7.25
402.576	7.64
402.783	7.64
402.99	7.12
403.197	6.85
403.404	7.07
403.611	7.08
403.818	6.97
404.025	6.76
404.232	6.86
404.439	6.91
404.646	7.1
404.853	6.82
405.06	6.41
405.267	6.81
405.474	6.88
405.681	6.72
405.887	6.51
406.094	6.66
406.301	6.81
406.508	6.46
406.715	6.68
406.922	6.69
407.128	6.64
407.335	6.86
407.542	6.62
407.749	6.5
407.955	6.57
408.162	6.53
408.369	6.68
408.575	6.66
408.782	6.52
408.989	6.52
409.195	6.4
409.402	6.42
409.609	6.14
409.815	6.37
410.022	6.6
410.228	6.78
410.435	6.84
410.642	6.81
410.848	6.63
411.055	6.95
411.261	6.61
411.468	6.59
411.674	6.9
411.881	7.22
412.087	7.11
412.294	6.81
412.5	6.45
412.706	6.72
412.913	6.35
413.119	6.62
413.326	6.38
413.532	6.68
413.738	6.71
413.945	6.42
414.151	6.26
414.357	6.16
414.564	6.63
414.77	6.66
414.976	6.22
415.182	6.61
415.389	6.21
415.595	6.52
415.801	6.4
416.007	6.64
416.214	6.47
416.42	6.77
416.626	7.03
416.832	6.91
417.038	6.77
417.244	6.96
417.45	6.82
417.657	7.05
417.863	7.28
418.069	7.33
418.275	7.08
418.481	7.39
418.687	7.21
418.893	7.12
419.099	7.04
419.305	6.97
419.511	6.77
419.717	6.93
419.923	6.98
420.129	6.81
420.335	6.82
420.541	6.79
420.746	6.6
420.952	6.56
421.158	6.48
421.364	6.48
421.57	6.62
421.776	6.88
421.982	6.84
422.187	6.82
422.393	6.81
422.599	6.91
422.805	7.26
423.01	7.37
423.216	7.37
423.422	7.43
423.628	7.43
423.833	7.57
424.039	7.49
424.245	7.52
424.45	7.46
424.656	7.4
424.862	7.28
425.067	6.91
425.273	6.9
425.478	7.06
425.684	7.05
425.889	7.05
426.095	6.91
426.301	6.92
426.506	6.85
426.712	6.95
426.917	7.08
427.123	7.1
427.328	7.28
427.533	7.12
427.739	6.95
427.944	7.03
428.15	7.11
428.355	6.97
428.561	7.05
428.766	6.95
428.971	6.99
429.177	6.91
429.382	6.75
429.587	6.69
429.793	6.78
429.998	6.65
430.203	6.48
430.408	6.11
430.614	6.32
430.819	6.35
431.024	6.48
431.229	6.36
431.434	6.07
431.64	6.29
431.845	6.36
432.05	6.45
432.255	6.46
432.46	6.51
432.665	6.69
432.87	6.67
433.076	6.61
433.281	6.63
433.486	6.81
433.691	7.24
433.896	7.2
434.101	6.96
434.306	6.99
434.511	7.04
434.716	7.1
434.921	7.13
435.126	6.95
435.331	6.84
435.535	6.67
435.74	6.59
435.945	6.38
436.15	6.32
436.355	6.65
436.56	6.63
436.765	6.89
436.97	6.77
437.174	6.89
437.379	7.21
437.584	7.25
437.789	7.17
437.993	7.03
438.198	6.89
438.403	6.95
438.608	6.99
438.812	7
439.017	6.81
439.222	6.86
439.426	6.89
439.631	6.82
439.836	6.86
440.04	6.85
440.245	7.02
440.45	7.05
440.654	6.97
440.859	6.85
441.063	6.81
441.268	6.75
441.472	6.76
441.677	6.54
441.881	6.3
442.086	6.31
442.29	6.46
442.495	6.2
442.699	6.25
442.904	6.48
443.108	6.51
443.312	6.26
443.517	6.36
443.721	6.35
443.925	6.49
444.13	6.6
444.334	6.39
444.538	6.4
444.743	6.56
444.947	6.61
445.151	6.4
445.356	6.2
445.56	6.19
445.764	6.2
445.968	6.27
446.173	6.36
446.377	6.46
446.581	6.62
446.785	6.59
446.989	6.58
447.193	6.45
447.398	6.46
447.602	6.59
447.806	6.7
448.01	6.55
448.214	6.45
448.418	6.28
448.622	6.33
448.826	6.14
449.03	6.13
449.234	6.17
449.438	6.04
449.642	6.03
449.846	5.74
450.05	5.77
450.254	5.83
450.458	5.89
450.662	6.04
450.866	5.79
451.069	5.95
451.273	6.12
451.477	5.99
451.681	6.35
451.885	6.51
452.089	6.78
452.292	6.66
452.496	6.92
452.7	6.93
452.904	6.98
453.107	7.11
453.311	7.04
453.515	6.84
453.719	6.86
453.922	6.6
454.126	6.35
454.33	6.43
454.533	6.53
454.737	6.49
454.94	6.52
455.144	6.25
455.348	6.11
455.551	6.1
455.755	6.19
455.958	6.02
456.162	6.38
456.365	6.45
456.569	6.44
456.772	6.68
456.976	6.62
457.179	6.62
457.383	6.75
457.586	6.77
457.79	6.69
457.993	6.46
458.196	6.59
458.4	6.37
458.603	6.39
458.807	6.33
459.01	6.12
459.213	6.13
459.417	6.09
459.62	6.13
459.823	6.03
460.026	6
460.23	6.1
460.433	6.06
460.636	6.19
460.839	6.07
461.042	6.14
461.246	6.27
461.449	6.3
461.652	6.23
461.855	6.18
462.058	6.36
462.261	6.6
462.464	6.64
462.668	6.57
462.871	6.46
463.074	6.69
463.277	6.56
463.48	6.54
463.683	6.38
463.886	6.51
464.089	6.45
464.292	6.44
464.495	6.04
464.698	6.2
464.901	6.39
465.104	6.11
465.306	6.12
465.509	6.24
465.712	6.04
465.915	6.08
466.118	5.88
466.321	5.9
466.524	5.86
466.726	6.05
466.929	5.75
467.132	5.68
467.335	5.71
467.538	5.48
467.74	5.55
467.943	5.6
468.146	5.52
468.348	5.45
468.551	5.4
468.754	5.38
468.956	5.23
469.159	5.45
469.362	5.46
469.564	5.67
469.767	5.71
469.969	5.47
470.172	5.45
470.375	5.68
470.577	5.88
470.78	5.91
470.982	5.9
471.185	6.17
471.387	6.15
471.59	6.25
471.792	6.2
471.995	6.37
472.197	6.42
472.399	6.35
472.602	6.23
472.804	6.25
473.007	6.28
473.209	6.43
473.411	6.3
473.614	6.09
473.816	5.94
474.018	5.81
474.22	6.03
474.423	6.04
474.625	6.04
474.827	5.95
475.03	5.79
475.232	5.61
475.434	5.62
475.636	5.75
475.838	5.93
476.04	5.89
476.243	6.06
476.445	5.7
476.647	5.76
476.849	5.93
477.051	5.79
477.253	5.66
477.455	5.9
477.657	5.69
477.859	5.67
478.061	5.64
478.263	5.74
478.465	5.68
478.667	5.79
478.869	5.68
479.071	5.72
479.273	6
479.475	6.04
479.677	6.03
479.879	6.17
480.081	6.09
480.283	6.17
480.485	6.04
480.686	6.25
480.888	6.21
481.09	6.33
481.292	6.26
481.494	6.07
481.695	6.34
481.897	6.29
482.099	6.31
482.301	6.42
482.502	6.32
482.704	6.43
482.906	6.45
483.107	6.49
483.309	6.43
483.511	6.43
483.712	6.49
483.914	6.45
484.115	6.47
484.317	6.46
484.519	6.37
484.72	6.43
484.922	6.38
485.123	6.3
485.325	6.29
485.526	6.34
485.728	6.37
485.929	6.39
486.131	6.43
486.332	6.49
486.534	6.5
486.735	6.6
486.936	6.59
487.138	6.66
487.339	6.63
487.541	6.69
487.742	6.76
487.943	6.75
488.144	6.77
488.346	6.75
488.547	6.7
488.748	6.69
488.95	6.68
489.151	6.65
489.352	6.62
489.553	6.63
489.755	6.53
489.956	6.4
490.157	6.35
490.358	6.25
490.559	6.32
490.76	6.33
490.961	6.3
491.163	6.36
491.364	6.4
491.565	6.41
491.766	6.45
491.967	6.53
492.168	6.55
492.369	6.61
492.57	6.62
492.771	6.58
492.972	6.55
493.173	6.58
493.374	6.57
493.575	6.5
493.776	6.47
493.976	6.56
494.177	6.51
494.378	6.35
494.579	6.29
494.78	6.55
494.981	6.52
495.182	6.49
495.382	6.56
495.583	6.5
495.784	6.55
495.985	6.62
496.185	6.59
496.386	6.78
496.587	6.84
496.788	6.8
496.988	6.51
497.189	6.39
497.39	6.34
497.59	6.3
497.791	6.35
497.992	6.36
498.192	6.28
498.393	6.27
498.593	6.15
498.794	6.28
498.994	6.43
499.195	6.69
499.395	6.89
499.596	7.01
499.796	6.98
499.997	7.05
500.197	7.29
500.398	7.31
500.598	7.11
500.799	7.03
500.999	7.02
501.199	7.02
501.4	6.99
501.6	7.04
501.801	6.92
502.001	6.93
502.201	6.89
502.402	6.76
502.602	6.85
502.802	6.99
503.002	6.98
503.203	6.87
503.403	6.71
503.603	6.64
503.803	6.5
504.003	6.64
504.204	6.75
504.404	7.01
504.604	6.92
504.804	7.1
505.004	7.08
505.204	7.07
505.404	7.03
505.604	7.15
505.804	7.19
506.005	7.19
506.205	7.07
506.405	6.96
506.605	6.55
506.805	6.61
507.005	6.28
507.204	6.35
507.404	6.46
507.604	6.53
507.804	6.39
508.004	6.35
508.204	6.42
508.404	6.54
508.604	6.46
508.804	6.56
509.003	6.48
509.203	6.66
509.403	6.71
509.603	6.68
509.803	6.69
510.002	6.7
510.202	6.64
510.402	6.61
510.602	6.55
510.801	6.89
511.001	6.84
511.201	6.92
511.4	6.92
511.6	6.89
511.8	6.93
511.999	6.92
512.199	7.08
512.398	7.14
512.598	6.99
512.797	7.05
512.997	7
513.197	7.1
513.396	7
513.596	7.14
513.795	7.19
513.994	7.25
514.194	7.45
514.393	7.31
514.593	7.39
514.792	7.54
514.992	7.47
515.191	7.2
515.39	7.31
515.59	7.36
515.789	7.3
515.988	7.37
516.188	7.32
516.387	7.3
516.586	7.33
516.786	7.43
516.985	7.61
517.184	7.67
517.383	7.78
517.582	7.61
517.782	7.86
517.981	7.87
518.18	7.92
518.379	7.84
518.578	7.77
518.777	7.81
518.976	7.77
519.176	7.57
519.375	7.56
519.574	7.61
519.773	7.72
519.972	7.54
520.171	7.42
520.37	7.26
520.569	7.45
520.768	7.37
520.967	7.39
521.166	7.24
521.365	7.47
521.564	7.63
521.762	7.54
521.961	7.51
522.16	7.57
522.359	7.56
522.558	7.73
522.757	7.62
522.956	7.77
523.154	7.69
523.353	7.82
523.552	7.63
523.751	7.6
523.949	7.6
524.148	7.59
524.347	7.5
524.546	7.58
524.744	7.49
524.943	7.68
525.142	7.68
525.34	7.7
525.539	7.78
525.737	7.83
525.936	7.82
526.135	7.95
526.333	7.98
526.532	8.13
526.73	8.19
526.929	8.31
527.127	8.25
527.326	8.3
527.524	8.42
527.723	8.35
527.921	8.45
528.12	8.43
528.318	8.45
528.516	8.49
528.715	8.44
528.913	8.46
529.112	8.4
529.31	8.42
529.508	8.4
529.707	8.35
529.905	8.38
530.103	8.29
530.301	8.33
530.5	8.31
530.698	8.3
530.896	8.33
531.094	8.32
531.293	8.43
531.491	8.4
531.689	8.45
531.887	8.6
532.085	8.57
532.283	8.74
532.481	8.82
532.68	8.83
532.878	8.8
533.076	8.82
533.274	8.78
533.472	8.74
533.67	8.8
533.868	8.77
534.066	8.75
534.264	8.81
534.462	8.69
534.66	8.68
534.858	8.7
535.056	8.68
535.253	8.76
535.451	8.82
535.649	8.87
535.847	8.88
536.045	8.92
536.243	8.8
536.441	8.89
536.638	8.94
536.836	8.83
537.034	8.91
537.232	8.99
537.43	8.92
537.627	8.95
537.825	8.91
538.023	8.89
538.22	8.97
538.418	8.95
538.616	8.94
538.813	8.95
539.011	9.09
539.209	9.04
539.406	9.21
539.604	9.16
539.801	9.39
539.999	9.45
540.196	9.6
540.394	9.64
540.591	9.89
540.789	10.09
540.986	10.15
541.184	10.18
541.381	10.26
541.579	10.23
541.776	10.31
541.974	10.19
542.171	10.27
542.368	10.28
542.566	10.37
542.763	10.36
542.96	10.24
543.158	10.37
543.355	10.36
543.552	10.36
543.75	10.43
543.947	10.52
544.144	10.6
544.341	10.61
544.539	10.63
544.736	10.62
544.933	10.66
545.13	10.65
545.327	10.69
545.524	10.86
545.722	10.96
545.919	10.92
546.116	11
546.313	11.01
546.51	11.05
546.707	11.02
546.904	10.92
547.101	10.9
547.298	11
547.495	10.93
547.692	10.88
547.889	10.8
548.086	10.83
548.283	10.77
548.48	10.95
548.677	10.99
548.874	11.03
549.07	11.23
549.267	11.39
549.464	11.51
549.661	11.63
549.858	11.69
550.055	11.97
550.251	11.97
550.448	12.24
550.645	12.23
550.842	12.32
551.038	12.37
551.235	12.32
551.432	12.25
551.628	12.23
551.825	12.07
552.022	12.17
552.218	12.26
552.415	12.46
552.612	12.41
552.808	12.34
553.005	12.27
553.201	12.56
553.398	12.57
553.594	12.97
553.791	13.01
553.987	13.14
554.184	13.16
554.38	13.24
554.577	13.44
554.773	13.52
554.97	13.54
555.166	13.58
555.362	13.61
555.559	13.79
555.755	13.69
555.952	14
556.148	14.14
556.344	14.33
556.541	14.25
556.737	14.27
556.933	14.41
557.129	14.53
557.326	14.79
557.522	14.76
557.718	14.9
557.914	14.86
558.11	14.69
558.307	15.03
558.503	14.95
558.699	14.96
558.895	14.87
559.091	14.95
559.287	15.24
559.483	15.36
559.679	15.33
559.876	15.4
560.072	15.41
560.268	15.32
560.464	15.13
560.66	15.18
560.856	15.35
561.052	15.53
561.247	15.68
561.443	15.61
561.639	15.5
561.835	15.64
562.031	15.63
562.227	15.59
562.423	15.64
562.619	15.75
562.815	15.87
563.01	15.8
563.206	15.91
563.402	15.81
563.598	15.86
563.793	15.91
563.989	16.01
564.185	15.83
564.381	16.06
564.576	16.27
564.772	16.22
564.968	16.19
565.163	16.2
565.359	15.89
565.555	15.94
565.75	16.18
565.946	16.45
566.141	16.54
566.337	16.83
566.532	16.78
566.728	16.84
566.923	16.92
567.119	17.15
567.314	17.28
567.51	17.57
567.705	17.49
567.901	17.28
568.096	17.1
568.292	17.15
568.487	17.17
568.682	17.31
568.878	17.35
569.073	17.42
569.268	17.36
569.464	17.45
569.659	17.57
569.854	17.76
570.05	17.79
570.245	17.91
570.44	17.9
570.635	17.96
570.831	18.1
571.026	18.14
571.221	18.25
571.416	18.34
571.611	18.34
571.806	18.33
572.002	18.32
572.197	18.32
572.392	18.34
572.587	18.33
572.782	18.3
572.977	18.25
573.172	18.38
573.367	18.25
573.562	18.28
573.757	18.16
573.952	18.13
574.147	18.21
574.342	18.4
574.537	18.66
574.732	18.67
574.927	18.85
575.121	18.86
575.316	18.75
575.511	19.06
575.706	19.13
575.901	19.25
576.096	19.43
576.29	19.66
576.485	19.76
576.68	19.68
576.875	19.74
577.069	19.74
577.264	19.85
577.459	19.91
577.654	19.86
577.848	19.85
578.043	20.03
578.238	19.92
578.432	19.59
578.627	19.49
578.821	19.58
579.016	19.59
579.21	19.4
579.405	19.15
579.6	19.2
579.794	19.22
579.989	19.26
580.183	19.26
580.378	19.28
580.572	19.39
580.766	19.49
580.961	19.34
581.155	19.54
581.35	19.9
581.544	20.03
581.738	19.97
581.933	19.8
582.127	19.59
582.321	19.51
582.516	19.49
582.71	19.61
582.904	19.72
583.099	19.91
583.293	19.76
583.487	19.72
583.681	19.88
583.875	19.94
584.07	19.8
584.264	20.1
584.458	20.05
584.652	20.02
584.846	20.22
585.04	20.11
585.234	19.85
585.428	20.03
585.623	19.91
585.817	19.76
586.011	19.78
586.205	20.15
586.399	20.12
586.593	20.17
586.787	20.41
586.981	20.11
587.174	20.29
587.368	20.66
587.562	20.84
587.756	21.05
587.95	21.11
588.144	21.05
588.338	20.91
588.532	21.16
588.725	21.5
588.919	21.52
589.113	21.78
589.307	21.65
589.501	21.68
589.694	21.33
589.888	21.15
590.082	21.3
590.275	21.49
590.469	21.48
590.663	21.07
590.856	21.16
591.05	21.08
591.244	21.12
591.437	21.25
591.631	21
591.824	20.86
592.018	20.64
592.212	20.62
592.405	20.64
592.599	20.87
592.792	20.93
592.986	20.58
593.179	20.28
593.372	20.38
593.566	20.45
593.759	20.28
593.953	20.58
594.146	20.95
594.339	20.89
594.533	21
594.726	20.89
594.92	21
595.113	21.15
595.306	21.41
595.499	21.49
595.693	21.43
595.886	21.55
596.079	21.63
596.272	21.54
596.466	21.58
596.659	21.75
596.852	21.58
597.045	21.75
597.238	21.74
597.431	21.86
597.624	21.4
597.818	21.37
598.011	21.75
598.204	21.79
598.397	21.95
598.59	22.12
598.783	21.8
598.976	21.99
599.169	22.11
599.362	22.14
599.555	22.1
599.748	22.34
599.941	22.34
600.134	21.87
600.326	21.78
600.519	21.63
600.712	21.6
600.905	21.81
601.098	22.1
601.291	21.99
601.483	21.96
601.676	21.96
601.869	21.99
602.062	21.96
602.255	22.28
602.447	22.13
602.64	22.24
602.833	22.23
603.025	22.06
603.218	22.07
603.411	22.12
603.603	22.17
603.796	22.28
603.989	22.12
604.181	22.39
604.374	22.28
604.566	22.28
604.759	22.46
604.951	22.19
605.144	22.06
605.336	21.88
605.529	21.74
605.721	21.75
605.914	21.39
606.106	21.48
606.299	21.32
606.491	21.27
606.683	21.45
606.876	21.48
607.068	21.46
607.26	21.7
607.453	21.74
607.645	21.87
607.837	21.68
608.03	22.12
608.222	22.3
608.414	22.27
608.606	21.93
608.799	22.03
608.991	21.65
609.183	22.08
609.375	22.11
609.567	22.02
609.759	22.07
609.952	21.76
610.144	21.89
610.336	21.75
610.528	21.52
610.72	21.65
610.912	21.21
611.104	21.06
611.296	20.82
611.488	20.79
611.68	20.99
611.872	20.85
612.064	21.2
612.256	20.97
612.448	20.82
612.64	20.75
612.832	20.63
613.023	20.68
613.215	20.77
613.407	20.92
613.599	20.98
613.791	20.87
613.983	20.7
614.174	20.71
614.366	20.61
614.558	20.7
614.75	20.77
614.941	20.58
615.133	21.01
615.325	20.93
615.516	20.94
615.708	20.91
615.9	20.91
616.091	21.05
616.283	21.41
616.475	21.54
616.666	21.51
616.858	21.55
617.049	21.9
617.241	21.57
617.432	21.78
617.624	21.46
617.815	21.48
618.007	21.47
618.198	21.37
618.39	21.17
618.581	21.07
618.773	21.22
618.964	21.66
619.155	21.68
619.347	21.96
619.538	21.81
619.729	22
619.921	22.3
620.112	22.39
620.303	22.28
620.494	22.29
620.686	22.46
620.877	22.73
621.068	22.71
621.259	23.06
621.451	23.03
621.642	23.28
621.833	22.9
622.024	22.84
622.215	23.06
622.406	23.21
622.597	23.05
622.788	22.79
622.98	22.69
623.171	22.58
623.362	22.42
623.553	22.51
623.744	22.19
623.935	22.32
624.126	22.23
624.317	22.16
624.508	22
624.698	22.02
624.889	21.99
625.08	22.13
625.271	22.11
625.462	21.94
625.653	21.86
625.844	22.28
626.034	22.42
626.225	22.25
626.416	22.01
626.607	22.05
626.798	22.17
626.988	22.55
627.179	22.26
627.37	22.12
627.56	22.26
627.751	22.31
627.942	22.37
628.132	22.35
628.323	22.51
628.514	22.26
628.704	22.29
628.895	22.13
629.085	21.67
629.276	21.88
629.466	22.07
629.657	22.13
629.847	22.19
630.038	21.94
630.228	22.08
630.419	21.76
630.609	22.31
630.8	22.28
630.99	22.59
631.181	22.74
631.371	22.81
631.561	22.69
631.752	22.96
631.942	23.06
632.132	23.47
632.323	23.26
632.513	23.2
632.703	23.1
632.893	23.04
633.084	22.49
633.274	22.73
633.464	22.46
633.654	22.25
633.844	21.98
634.034	22.08
634.225	21.77
634.415	22.04
634.605	22.09
634.795	21.87
634.985	22.08
635.175	22.25
635.365	22.23
635.555	22.47
635.745	22.81
635.935	22.9
636.125	22.68
636.315	22.74
636.505	22.74
636.695	22.8
636.885	22.98
637.075	22.88
637.265	23.4
637.455	23.12
637.644	23.36
637.834	23.51
638.024	23.92
638.214	24.17
638.404	23.96
638.593	23.74
638.783	23.86
638.973	23.7
639.163	23.73
639.352	23.37
639.542	23.17
639.732	22.67
639.921	22.84
640.111	22.57
640.301	22.17
640.49	22.74
640.68	22.92
640.87	23.11
641.059	23.08
641.249	23.57
641.438	23.5
641.628	24.18
641.817	24.05
642.007	23.06
642.196	22.9
642.386	23.27
642.575	22.83
642.764	23.09
642.954	22.69
643.143	23.03
643.333	22.67
643.522	22.9
643.711	22.51
643.901	22.83
644.09	23.43
644.279	23.63
644.469	23.06
644.658	23.1
644.847	22.7
645.036	22.56
645.226	22.36
645.415	22.69
645.604	22.71
645.793	22.86
645.982	22.89
646.171	22.7
646.361	22.2
646.55	22.8
646.739	22.54
646.928	22.68
647.117	22.92
647.306	22.99
647.495	22.39
647.684	22.08
647.873	21.58
648.062	21.39
648.251	21.29
648.44	21.32
648.629	20.84
648.818	20.68
649.007	20.79
649.196	20.83
649.384	20.42
649.573	20.71
649.762	20.85
649.951	21.67
650.14	21.71
650.328	21.68
650.517	22.05
650.706	22.48
650.895	23.02
651.083	23.01
651.272	22.96
651.461	23.23
651.65	23.37
651.838	23.38
652.027	22.77
652.216	22.6
652.404	22.75
652.593	22.6
652.781	22.31
652.97	21.7
653.158	21.78
653.347	21.92
653.535	21.88
653.724	22.03
653.912	22.49
654.101	22.96
654.289	23.14
654.478	23.28
654.666	23.11
654.855	23.4
655.043	23.97
655.231	24.11
655.42	23.93
655.608	23.62
655.796	23.12
655.985	22.5
656.173	22.03
656.361	21.88
656.55	21.93
656.738	22.24
656.926	21.83
657.114	21.88
657.302	21.72
657.491	21.55
657.679	22.21
657.867	22.27
658.055	22.84
658.243	23.08
658.431	23.17
658.619	23
658.807	22.91
658.996	23.04
659.184	22.94
659.372	22.88
659.56	23.35
659.748	23.33
659.936	23.33
660.124	22.69
660.311	22.65
660.499	23.15
660.687	23.25
660.875	23.35
661.063	23.26
661.251	23.37
661.439	23.32
661.627	22.97
661.814	22.77
662.002	23.19
662.19	23.76
662.378	23.77
662.565	23.7
662.753	23.66
662.941	23.85
663.129	24.25
663.316	23.67
663.504	23.29
663.692	23.51
663.879	23.24
664.067	22.78
664.254	22.66
664.442	23.08
664.63	22.74
664.817	22.95
665.005	21.99
665.192	21.61
665.38	21.84
665.567	22.16
665.755	22.13
665.942	22.45
666.13	22.72
666.317	22.91
666.504	22.35
666.692	21.58
666.879	22.18
667.067	22.16
667.254	22.65
667.441	23.08
667.629	23.16
667.816	23.65
668.003	23.53
668.19	23.77
668.378	23.87
668.565	24.15
668.752	24.72
668.939	23.94
669.127	23.96
669.314	23.71
669.501	23.51
669.688	23.1
669.875	23.11
670.062	23.45
670.249	23.2
670.436	23.08
670.623	23.25
670.81	23.71
670.997	23.97
671.184	24.94
671.371	24.94
671.558	25.12
671.745	25.55
671.932	24.81
672.119	24.55
672.306	24.87
672.493	24.54
672.68	23.63
672.867	23.2
673.054	22.7
673.24	22.32
673.427	22.35
673.614	22.54
673.801	22.47
673.988	22.99
674.174	23.56
674.361	22.78
674.548	23.51
674.734	24.32
674.921	23.9
675.108	24.53
675.294	24.96
675.481	24.28
675.668	24.18
675.854	24.57
676.041	24.34
676.227	23.54
676.414	23.88
676.601	23.36
676.787	23.4
676.974	23.41
677.16	23.01
677.347	22.48
677.533	22.89
677.719	22.39
677.906	22.02
678.092	22.02
678.279	22.51
678.465	22.81
678.651	22.8
678.838	22.66
679.024	23.14
679.21	23.27
679.397	23.46
679.583	23.65
679.769	23.67
679.955	23.83
680.142	23.88
680.328	23.43
680.514	23.45
680.7	23.7
680.886	24.26
681.073	23.85
681.259	23.79
681.445	23.83
681.631	23.78
681.817	23.93
682.003	24.28
682.189	23.95
682.375	24.5
682.561	24.35
682.747	24.12
682.933	23.44
683.119	23.64
683.305	23.91
683.491	24.08
683.677	24.17
683.863	24.43
684.049	24.04
684.235	23.98
684.42	23.56
684.606	23.25
684.792	24.2
684.978	24.3
685.164	24.47
685.349	24.13
685.535	23.6
685.721	23.34
685.907	22.93
686.092	23.33
686.278	23.89
686.464	24.08
686.649	24.12
686.835	23
687.021	22.56
687.206	22.78
687.392	22.73
687.577	22.73
687.763	22.72
687.948	22.96
688.134	22.76
688.319	23.23
688.505	23.43
688.69	23.3
688.876	23.37
689.061	24.08
689.247	23.66
689.432	23.98
689.618	23.85
689.803	24.51
689.988	23.97
690.174	23.81
690.359	23.48
690.544	23.36
690.73	23.55
690.915	24.1
691.1	24.04
691.285	24.18
691.471	24.41
691.656	24.23
691.841	23.84
692.026	24.83
692.211	24.82
692.396	23.98
692.582	24.05
692.767	23.83
692.952	23.12
693.137	22.69
693.322	22.71
693.507	21.81
693.692	21.92
693.877	21.06
694.062	21.55
694.247	21.71
694.432	21.96
694.617	21.95
694.802	22.23
694.987	22.86
695.172	22.16
695.357	22.54
695.541	23.56
695.726	23.98
695.911	24.53
696.096	24.04
696.281	24.13
696.466	24.66
696.65	24.16
696.835	24.67
697.02	24.6
697.204	25.17
697.389	25.2
697.574	25.31
697.759	25.16
697.943	25.16
698.128	24.73
698.312	24.57
698.497	25.16
698.682	25.22
698.866	25
699.051	24.8
699.235	25.14
699.42	25.09
699.604	25.03
699.789	24.81
699.973	24.76
700.158	25.15
700.342	25.34
700.527	24.48
700.711	24.88
700.895	24.94
701.08	24.8
701.264	24.4
701.448	24.62
701.633	24.54
701.817	24.77
702.001	24.79
702.186	24.52
702.37	24.11
702.554	23.93
702.738	23.6
702.923	24.04
703.107	24.71
703.291	25.45
703.475	25.12
703.659	24.75
703.843	25.19
704.027	25.43
704.212	25.37
704.396	26.03
704.58	25.7
704.764	25.42
704.948	25.02
705.132	24.74
705.316	24.46
705.5	23.55
705.684	22.88
705.868	21.95
706.052	21.89
706.235	21.4
706.419	20.47
706.603	22.02
706.787	22.18
706.971	22.04
707.155	21.66
707.339	21.5
707.522	21.87
707.706	23.05
707.89	23.67
708.074	23.64
708.257	23.57
708.441	24.46
708.625	23.69
708.808	23.15
708.992	23.07
709.176	23
709.359	23.3
709.543	23.04
709.727	22.86
709.91	22.39
710.094	22.56
710.277	22.48
710.461	22.12
710.644	21.71
710.828	22.48
711.011	22.78
711.195	23.7
711.378	23.17
711.562	23.9
711.745	23.39
711.928	24.12
712.112	24.02
712.295	24.45
712.478	24.81
712.662	26.03
712.845	25.87
713.028	25.69
713.212	25.23
713.395	25.74
713.578	25.74
713.761	26.62
713.945	26.93
714.128	26.4
714.311	26.42
714.494	25.43
714.677	24.9
714.86	24.63
715.043	24.91
715.227	24.41
715.41	24.19
715.593	24.33
715.776	23.93
715.959	24.09
716.142	24.56
716.325	24.63
716.508	25.8
716.691	25.97
716.874	26.07
717.057	25.64
717.239	26
717.422	25.2
717.605	24.98
717.788	24.13
717.971	22.58
718.154	21.81
718.337	21.75
718.519	21.24
718.702	20.78
718.885	21.59
719.068	21.78
719.25	21.31
719.433	21.17
719.616	20.73
719.798	21.06
719.981	23.1
720.164	23.77
720.346	23.09
720.529	22.35
720.712	22.15
720.894	21.52
721.077	21.21
721.259	21.01
721.442	22.34
721.624	22.74
721.807	23.1
721.989	22.43
722.172	22.17
722.354	22.65
722.537	23.49
722.719	22.97
722.901	22.88
723.084	22.71
723.266	22.74
723.448	21.86
723.631	22.47
723.813	22.92
723.995	21.99
724.178	22.32
724.36	22.92
724.542	22.34
724.724	22.99
724.907	22.63
725.089	23.19
725.271	24.19
725.453	24.29
725.635	23.6
725.817	23.97
725.999	24.29
726.181	24.77
726.364	24.92
726.546	24.26
726.728	23.96
726.91	25.58
727.092	25.14
727.274	24.13
727.456	23.91
727.638	23.49
727.819	23.62
728.001	23.51
728.183	23.38
728.365	24.05
728.547	25.3
728.729	25.24
728.911	24.47
729.093	25.31
729.274	25.43
729.456	25.99
729.638	25.2
729.82	24.9
730.001	25.2
730.183	25.69
730.365	24.14
730.546	22.64
730.728	23.15
730.91	22.7
731.091	22.64
731.273	22.77
731.455	22.64
731.636	23.66
731.818	23.17
731.999	22.12
732.181	21.58
732.362	21.92
732.544	21.84
732.725	22.44
732.907	22.95
733.088	21.55
733.27	21.23
733.451	20.99
733.633	21.16
733.814	20.79
733.995	22.49
734.177	21.78
734.358	22.06
734.539	24.16
734.721	21.92
734.902	21.29
735.083	22.45
735.264	24.16
735.446	23.88
735.627	23.34
735.808	24.49
735.989	22.28
736.17	23.74
736.351	23.77
736.533	24.01
736.714	26
736.895	26.4
737.076	25
737.257	24.02
737.438	25.3
737.619	25.73
737.8	25.14
737.981	26.16
738.162	23.8
738.343	24.84
738.524	23
738.705	23.25
738.886	23.18
739.067	23.54
739.247	23.41
739.428	22.28
739.609	22.78
739.79	22.26
739.971	21.23
740.151	23.13
740.332	22.93
740.513	24.13
740.694	23.8
740.874	22.31
741.055	23.63
741.236	23.67
741.417	23.25
741.597	22.45
741.778	22.79
741.958	23.79
742.139	23.44
742.32	20.36
742.5	18.98
742.681	18.62
742.861	20.49
743.042	18.99
743.222	18.23
743.403	18.56
743.583	18.56
743.764	20.14
743.944	20.29
744.124	19.82
744.305	21.79
744.485	22.06
744.666	22.47
744.846	22.25
745.026	23.23
745.207	24.1
745.387	24.29
745.567	25.17
745.747	24.55
745.928	24.16
746.108	22.9
746.288	23.37
746.468	24.56
746.648	21.85
746.829	21.36
747.009	22.66
747.189	22.3
747.369	24.07
747.549	24.01
747.729	21.79
747.909	21.77
748.089	24.63
748.269	22.96
748.449	24.19
748.629	25.15
748.809	24.75
748.989	22.85
749.169	22.94
749.349	22.29
749.529	21.63
749.709	23.56
749.889	23.13
750.068	22.52
750.248	24.47
750.428	22.81
750.608	23.99
750.788	25.08
750.967	25.6
751.147	25.4
751.327	25.9
751.507	26.52
751.686	28.56
751.866	29.74
752.046	29.7
752.225	29.18
752.405	29.55
752.585	30.4
752.764	29.86
752.944	29.32
753.123	30.23
753.303	29.78
753.482	28.07
753.662	26.55
753.841	25.55
754.021	26.34
754.2	26.63
754.38	25.47
754.559	24.19
754.739	24.81
754.918	24.88
755.097	23.67
755.277	22.49
755.456	23.3
755.635	22.67
755.815	24.18
755.994	22.54
756.173	23.09
756.352	23.61
756.532	24.66
756.711	25.08
756.89	25.66
757.069	25.45
757.248	27.42
757.427	27.26
757.607	26.55
757.786	26.11
757.965	27.43
758.144	26.68
758.323	25.55
758.502	24.66
758.681	22.79
758.86	22.26
759.039	23.88
759.218	22.16
759.397	24.45
759.576	24.77
759.755	24.47
759.934	23.24
760.113	22.7
760.291	22.59
760.47	22.46
760.649	23.56
760.828	23.92
761.007	22.55
761.186	24.22
761.364	23.66
761.543	23.87
761.722	24.4
761.901	23.85
762.079	24.2
762.258	25.08
762.437	25.06
762.615	25.62
762.794	25.02
762.972	25.33
763.151	23.19
763.33	22.13
763.508	22.14
763.687	20.87
763.865	21.56
764.044	20.69
764.222	20.98
764.401	21.04
764.579	20.45
764.758	21.01
764.936	20.71
765.114	22.24
765.293	22.33
765.471	21.7
765.65	23.22
765.828	23.28
766.006	25.2
766.184	25.63
766.363	26.44
766.541	25.82
766.719	25.55
766.898	25.64
767.076	25.58
767.254	26.24
767.432	28.34
767.61	27.05
767.788	27.6
767.967	27.25
768.145	26.62
768.323	24.84
768.501	26.31
768.679	25.79
768.857	26.23
769.035	23.95
769.213	22.82
769.391	21.8
769.569	22
769.747	21.04
769.925	18.45
770.103	18.71
770.281	20.29
770.459	21.95
770.636	23.82
770.814	25.83
770.992	27.31
771.17	28.58
771.348	26.76
771.525	28.76
771.703	28.5
771.881	30.52
772.059	30.03
772.236	28.86
772.414	25.6
772.592	25.15
772.769	22.74
772.947	24.21
773.125	23.13
773.302	23.66
773.48	21.52
773.657	22.38
773.835	22.16
774.013	20.7
774.19	20.43
774.368	22.17
774.545	21.82
774.723	19.69
774.9	16.95
775.077	17.42
775.255	14.35
775.432	16.14
775.61	14.53
775.787	12.75
775.964	14.04
776.142	17.51
776.319	15.4
776.496	15.3
776.674	15.95
776.851	17.49
777.028	20.73
777.205	25.06
777.382	23.86
777.56	24.6
777.737	25.03
777.914	21.36
778.091	19.84
778.268	21.99
778.445	24.44
778.622	26.78
778.8	26.81
778.977	22.45
779.154	21.89
779.331	20.26
779.508	22.22
779.685	24.09
779.862	25.56
780.038	23.9
780.215	25.51
780.392	17.71
780.569	16.09
780.746	14.76
780.923	16.12
781.1	17.28
781.277	19.44
781.453	15.59
781.63	15.68
781.807	15.85
781.984	16.7
782.16	14.03
782.337	19.21
782.514	22.26
782.691	23.12
782.867	24.63
783.044	23.11
783.221	23.11
783.397	23.74
783.574	23.23
783.75	26.14
783.927	26.85
784.103	29.17
784.28	26.37
784.456	23.07
784.633	21.24
784.809	17.97
784.986	17.51
785.162	17.29
785.339	15.52
785.515	14.87
785.692	13.52
785.868	12.45
786.044	11.14
786.221	16.08
786.397	16.81
786.573	18.69
786.749	19.46
786.926	18.25
787.102	18.86
787.278	21.08
787.454	23.42
787.631	19.22
787.807	20.19
787.983	19.75
788.159	18.14
788.335	17.63
788.511	17.44
788.687	20.07
788.863	24.37
789.039	23.59
789.216	24.24
789.392	25.03
789.568	29.47
789.744	30.41
789.919	32.76
790.095	30.37
790.271	33.27
790.447	35.26
790.623	33.06
790.799	28.99
790.975	32.01
791.151	31.24
791.327	30.02
791.502	30.94
791.678	29.85
791.854	26.31
792.03	28.11
792.205	28.49
792.381	27.02
792.557	27
792.733	26.74
792.908	25.61
793.084	27.65
793.259	26.1
793.435	28.9
793.611	30.25
793.786	27.6
793.962	26.78
794.137	27.27
794.313	25.85
794.488	28.72
794.664	28.59
794.839	28.55
795.015	28.95
795.19	28.16
795.366	25.13
795.541	23.64
795.716	27.89
795.892	28.73
796.067	21.69
796.242	23.5
796.418	22.51
796.593	24.18
796.768	26.68
796.944	24.02
797.119	23.32
797.294	24.68
797.469	25.5
797.644	24.77
797.82	24.53
797.995	28.28
798.17	29.11
798.345	25.25
798.52	25.53
798.695	22.02
798.87	21.47
799.045	20.37
799.22	18.94
799.395	17.47
799.57	15.66
799.745	16.13
799.92	19.26
800.095	14.02
800.27	16.85
800.445	14.26
800.62	17.42
800.795	17.83
800.97	24.13
801.145	23.42
801.319	21.36
801.494	24.39
801.669	25.54
801.844	24.1
802.018	31.63
802.193	31.22
802.368	33.17
802.543	30.44
802.717	30.25
802.892	25.17
803.067	26.12
803.241	27.7
803.416	27.06
803.59	24.1
803.765	23.53
803.94	23.04
804.114	22.86
804.289	19.36
804.463	18.19
804.638	20.89
804.812	26.18
804.986	21.56
805.161	22.55
805.335	24.16
805.51	27.12
805.684	25.52
805.858	23.29
806.033	21.51
806.207	25.59
806.381	28.43
806.556	26.61
806.73	18.7
806.904	18.36
807.078	20.16
807.253	19.95
807.427	16.43
807.601	13.99
807.775	10.19
807.949	11.05
808.123	8.16
808.298	8.72
808.472	4.78
808.646	10.32
808.82	12.71
808.994	13.21
809.168	12.68
809.342	15.44
809.516	18.12
809.69	25.99
809.864	25.86
810.038	26.41
810.212	25.48
810.385	30.29
810.559	28.68
810.733	27.06
810.907	23.65
811.081	23.94
811.255	22.48
811.428	22.87
811.602	17.98
811.776	17.75
811.95	18.15
812.123	17.5
812.297	12.58
812.471	14.47
812.644	20.23
812.818	23.04
812.992	23.34
813.165	30.26
813.339	33.06
813.512	33.43
813.686	29.72
813.86	32.12
814.033	34.55
814.207	40.2
814.38	40.66
814.554	41.29
814.727	39.18
814.9	39.43
815.074	37.33
815.247	32.3
815.421	34.98
815.594	39.57
815.767	39.39
815.941	33.59
816.114	28.37
816.287	32.36
816.46	29.67
816.634	33.43
816.807	30.92
816.98	29.59
817.153	33.71
817.327	34.47
817.5	32.26
817.673	37.08
817.846	39.9
818.019	40.4
818.192	33.3
818.365	27.73
818.538	21.76
818.711	19.13
818.884	17.34
819.057	12.54
819.23	8.21
819.403	10.12
819.576	7.35
819.749	7.98
819.922	11.77
820.095	16.85
820.268	18.63
820.441	21.9
820.614	24.57
820.786	22.66
820.959	24.81
821.132	26.05
821.305	27.18
821.477	25.91
821.65	26.04
821.823	26.7
821.996	25.22
822.168	27.1
822.341	26.91
822.514	26.86
822.686	26.87
822.859	27.13
823.031	27.58
823.204	26.34
823.376	26.71
823.549	25.66
823.722	25.66
823.894	26.21
824.067	25.89
824.239	25.85
824.411	26.79
824.584	27.3
824.756	26.84
824.929	25.94
825.101	27.01
825.273	26
825.446	28.21
825.618	27.94
825.79	28.03
825.963	27.18
826.135	26.27
826.307	24.88
826.479	25.39
826.652	23.82
826.824	23.93
826.996	24.44
827.168	27.13
827.34	26.06
827.512	24.74
827.684	24.88
827.856	23.86
828.029	25.78
828.201	26.83
828.373	23.69
828.545	24.38
828.717	23.27
828.889	23.15
829.061	22.07
829.232	19.9
829.404	18.73
829.576	18.15
829.748	18.43
829.92	17.13
830.092	15.16
830.264	19.84
830.436	21.13
830.607	21.49
830.779	19.91
830.951	19.2
831.123	20.48
831.294	22.91
831.466	16.95
831.638	18.84
831.809	18.08
831.981	14.66
832.153	14.54
832.324	8.91
832.496	16.23
832.667	13.65
832.839	14.4
833.011	18.48
833.182	21.46
833.354	25.29
833.525	24.61
833.697	23.44
833.868	26.93
834.039	23.65
834.211	26.57
834.382	25.64
834.554	27.82
834.725	27.74
834.896	26.03
835.068	25.56
835.239	28.44
835.41	30.05
835.581	29.4
835.753	30.43
835.924	34.22
836.095	36.15
836.266	37.36
836.438	36.65
836.609	37.39
836.78	44.67
836.951	43.31
837.122	35.49
837.293	33.63
837.464	36.62
837.635	28.72
837.806	26.58
837.977	26.72
838.148	22.23
838.319	26.88
838.49	22.25
838.661	20.88
838.832	23.05
839.003	31.22
839.174	31.26
839.345	30.89
839.516	32.75
839.687	36.27
839.857	35.36
840.028	34.45
840.199	32.91
840.37	37.9
840.54	29.49
840.711	30.28
840.882	34.74
841.053	31.86
841.223	29.36
841.394	26.69
841.564	23.6
841.735	25.37
841.906	35.33
842.076	35.28
842.247	23.64
842.417	32.56
842.588	29.67
842.758	27.58
842.929	32.38
843.099	35.61
843.27	39.08
843.44	38.89
843.611	28.72
843.781	10.95
843.951	12.67
844.122	31.07
844.292	16.94
844.462	13.52
844.633	5.77
844.803	-3.9
844.973	-13.92
845.144	-22.93
845.314	-30.88
845.484	-25.05
845.654	-11.78
845.824	-16.22
845.995	-37.17
846.165	-29.6
846.335	-13.97
846.505	-22.44
846.675	-30.41
846.845	-34.13
847.015	-24.97
847.185	-20.49
847.355	-12.19
847.525	-20.2
847.695	-35.2
847.865	-25.6
848.035	-26.91
848.205	-36.99
848.375	-20.66
848.545	-10.1
848.715	7.59
848.884	3.87
849.054	11.11
849.224	10.85
849.394	19.95
849.564	33.65
849.733	37.07
849.903	29.36
850.073	24.6
850.243	20.91
850.412	32.26
850.582	51.25
850.752	54.4
850.921	50.24
851.091	43.88
851.26	61.62
851.43	53.48
851.599	40.19
851.769	55.98
851.939	66.75
852.108	79.37
852.278	65.48
852.447	54.74
852.616	61.96
852.786	60.77
852.955	61.62
853.125	55.45
853.294	44.73
853.463	66.37
853.633	64.82
853.802	76.27
853.971	66.58
854.141	77.71
854.31	50.98
854.479	38.86
854.648	51.97
854.818	59.8
854.987	52.28
855.156	77.91
855.325	40.35
855.494	33.08
855.663	15.39
855.832	27
856.001	13.36
856.171	18.83
856.34	37.99
856.509	19.14
856.678	7.02
856.847	-14.48
857.016	-48.2
857.185	-40.93
857.353	-60.07
857.522	-43.05
857.691	5.85
857.86	10.55
858.029	17.66
858.198	36.21
858.367	30.01
858.535	12.74
858.704	23.65
858.873	50.73
859.042	47.15
859.21	60.92
859.379	53.36
859.548	0.35
859.717	16.93
859.885	-8.01
860.054	-36.39
860.222	-49.1
860.391	-3.34
860.56	19.4
860.728	-57.2
860.897	0.91
861.065	-93.77
861.234	-3.92
861.402	-5.96
861.571	27.26
861.739	52.36
861.908	44.59
862.076	52
862.244	50.79
862.413	39.87
862.581	40.11
862.749	26.81
862.918	17.85
863.086	11.49
863.254	47.53
863.423	47.28
863.591	43.57
863.759	54.56
863.927	47.51
864.096	48.05
864.264	45.46
864.432	50.5
864.6	70.76
864.768	71.64
864.936	60.88
865.104	27.58
865.272	29.68
865.44	37.39
865.608	5.97
865.776	-2.96
865.944	4.51
866.112	-20.85
866.28	-1.07
866.448	0.92
866.616	-8.93
866.784	4.14
866.952	12.88
867.12	-7.96
867.288	-8.97
867.455	4.45
867.623	6.3
867.791	0.78
867.959	6.7
868.127	-28.83
868.294	-4.47
868.462	59.21
868.63	82.36
868.797	37.21
868.965	58.77
869.133	45.76
869.3	57.77
869.468	73.24
869.636	100.14
869.803	82.53
869.971	96.84
870.138	71.29
870.306	39.8
870.473	59.39
870.641	76.53
870.808	83.88
870.975	93.28
871.143	43.56
871.31	49.02
871.478	40.29
871.645	52.72
871.812	20.86
871.98	22.05
872.147	58.27
872.314	21.19
872.482	6.36
872.649	4.32
872.816	7.85
872.983	44.06
873.15	31.89
873.318	21.41
873.485	10.1
873.652	22.04
873.819	6.19
873.986	-1.52
874.153	1.82
874.32	14.68
874.487	0.31
874.654	6.24
874.821	-26.34
874.988	-90.37
875.155	-52.78
875.322	8.84
875.489	8
875.656	47.07
875.823	34.92
875.99	6.15
876.157	-2.97
876.324	29.04
876.49	29.57
876.657	26.8
876.824	27.43
876.991	12.33
877.157	7.2
877.324	2.37
877.491	-19.96
877.658	19.28
877.824	52.76
877.991	43.64
878.157	-3.53
878.324	-11.2
878.491	-12.84
878.657	-15.28
878.824	-16.51
878.99	-21.4
879.157	4.76
879.323	-12.76
879.49	-47.04
879.656	-35.37
879.823	-36.62
879.989	-24.92
880.156	-9.39
880.322	16.99
880.488	65.17
880.655	91.47
880.821	47.42
880.987	21.17
881.154	30.47
881.32	36.34
881.486	36.43
881.652	42.44
881.819	34.17
881.985	33.76
882.151	28.36
882.317	22.62
882.483	25.35
882.649	28.61
882.816	30.29
882.982	34.89
883.148	34.23
883.314	31.53
883.48	30.34
883.646	27.31
883.812	25.3
883.978	24.2
884.144	26.62
884.31	25.86
884.476	28.33
884.642	26.14
884.807	25.8
884.973	26.18
885.139	24.39
885.305	23.45
885.471	22.94
885.637	19.45
885.802	26.64
885.968	24.52
886.134	22.05
886.3	21.18
886.465	26.73
886.631	21.58
886.797	20.34
886.962	26.16
887.128	30.32
887.293	32.78
887.459	43.51
887.625	18.8
887.79	22.41
887.956	23.67
888.121	21.8
888.287	13.07
888.452	6.84
888.618	7.51
888.783	-8.27
