Data from 2937817_Reflection_2.txt Node
Date: Wed Jul 15 17:29:21 EDT 2015
User: robert
Spectrometer: USB4E03001
Autoset integration time: false
Trigger mode: 4
Integration Time (sec): 1.000000E-1
Scans to average: 10
Electric dark correction enabled: true
Nonlinearity correction enabled: false
Boxcar width: 5
Stray light correction enabled: false
XAxis mode: Wavelengths
Stop averaging: false
Number of Pixels in Spectrum: 3648
>>>>>Begin Spectral Data<<<<<
177.566	828.53
177.785	300.94
178.005	305.74
178.225	720.96
178.445	-45.43
178.665	291.96
178.885	81.33
179.105	33.54
179.324	29.34
179.544	-2.48
179.764	-188.06
179.984	121.61
180.204	81.31
180.423	43.82
180.643	84.52
180.863	48.34
181.083	55.35
181.302	53.98
181.522	59.2
181.742	37.87
181.961	42.16
182.181	67.26
182.401	77.39
182.621	73.7
182.84	92.05
183.06	76.96
183.279	184.04
183.499	269.45
183.719	314.45
183.938	539.59
184.158	166.49
184.377	530.96
184.597	7123.91
184.816	-446.9
185.036	-370.33
185.256	4377.33
185.475	493.89
185.695	582.07
185.914	1316.1
186.134	-794.92
186.353	878.13
186.572	642.09
186.792	379.52
187.011	188.6
187.231	134.57
187.45	103.88
187.67	92.27
187.889	78.67
188.108	73.02
188.328	36.26
188.547	36.39
188.766	5.12
188.986	6.74
189.205	48.38
189.424	55.03
189.644	-81.59
189.863	-440.71
190.082	130.69
190.302	152.47
190.521	267.72
190.74	140.48
190.959	220.29
191.178	167.43
191.398	391.4
191.617	711.51
191.836	1339.65
192.055	112.99
192.274	-71.37
192.494	-59.15
192.713	213.58
192.932	-369.91
193.151	-179.86
193.37	-156.81
193.589	-49.76
193.808	-123.96
194.027	-85.63
194.246	-88.85
194.465	-26.04
194.685	-141.71
194.904	-23321.88
195.123	-1703.47
195.342	11502.35
195.561	457.38
195.78	-3229.39
195.999	592.05
196.218	2110.84
196.436	309.47
196.655	557.19
196.874	413.97
197.093	294.65
197.312	280.53
197.531	212.13
197.75	382.13
197.969	757.69
198.188	264.63
198.407	180.43
198.625	128.98
198.844	264.01
199.063	553.71
199.282	-297.91
199.501	-43.97
199.719	-2.69
199.938	-9.02
200.157	228.94
200.376	-280.18
200.594	-258.26
200.813	-66.72
201.032	-317.56
201.251	-221.14
201.469	324.05
201.688	202.12
201.907	145.53
202.125	221.36
202.344	212.35
202.563	157.25
202.781	231.23
203	272.1
203.218	151.37
203.437	133.54
203.656	105.2
203.874	45.99
204.093	129.92
204.311	35.66
204.53	78.21
204.748	139.85
204.967	144.02
205.185	115.11
205.404	105.22
205.622	101.73
205.841	103.15
206.059	91.69
206.278	104.01
206.496	68.79
206.715	53.35
206.933	-17.46
207.151	15.7
207.37	89.44
207.588	76.65
207.806	513.79
208.025	9.98
208.243	103.82
208.461	60.43
208.68	36.82
208.898	93.09
209.116	86.33
209.335	105.87
209.553	70.96
209.771	75.49
209.989	58.91
210.208	46.66
210.426	25.16
210.644	33.64
210.862	32.03
211.081	70.86
211.299	83.74
211.517	84.19
211.735	97.47
211.953	-68.86
212.171	0.77
212.39	-37.77
212.608	-48.9
212.826	-29.49
213.044	22.76
213.262	12.93
213.48	-45.88
213.698	-66.02
213.916	-31.56
214.134	-142.74
214.352	-215.02
214.57	-226.57
214.788	-694.04
215.006	-1227.21
215.224	-843.03
215.442	-703.12
215.66	-731.93
215.878	-998.32
216.096	-1704.8
216.314	542.7
216.532	538.53
216.75	384.24
216.968	310.14
217.185	247.73
217.403	221.12
217.621	113.47
217.839	85.72
218.057	94.06
218.275	86.99
218.492	113.84
218.71	128.62
218.928	200.88
219.146	219.29
219.363	299.55
219.581	1762.1
219.799	3045.95
220.017	-138.16
220.234	-71.05
220.452	-331.69
220.67	-2971.03
220.887	1413.69
221.105	-351.18
221.323	-665.96
221.54	-150.63
221.758	2138.6
221.976	1156.35
222.193	-1132.77
222.411	-1582.86
222.629	410.81
222.846	-132.52
223.064	-28.27
223.281	-37.51
223.499	-47.37
223.716	-52.43
223.934	-513.3
224.151	-115.17
224.369	-60.19
224.586	-59.09
224.804	-177.32
225.021	-186.72
225.239	-116.12
225.456	-122.46
225.674	-197.61
225.891	-144.27
226.108	-60.04
226.326	-46.2
226.543	-42.76
226.76	-37.8
226.978	-33.37
227.195	-19.15
227.413	0.87
227.63	2.91
227.847	5.72
228.064	3.72
228.282	12.05
228.499	11.18
228.716	11.79
228.934	3.82
229.151	3.44
229.368	6.25
229.585	0.82
229.802	0.33
230.02	2.69
230.237	-0.33
230.454	0.25
230.671	-1.99
230.888	-1.11
231.105	1.75
231.323	7.08
231.54	5.58
231.757	5.2
231.974	18.03
232.191	16.59
232.408	16.7
232.625	19.14
232.842	21.97
233.059	9.63
233.276	7.66
233.493	9.11
233.71	7.32
233.927	-0.12
234.144	-10.95
234.361	-15.31
234.578	-13
234.795	-15.83
235.012	-14.53
235.229	-9.93
235.446	-2.35
235.663	3.76
235.879	3.04
236.096	3.32
236.313	10.03
236.53	4.66
236.747	9.26
236.964	9.16
237.181	15.33
237.397	17.17
237.614	8.29
237.831	17.65
238.048	2.25
238.264	-12.55
238.481	-10.88
238.698	-4.63
238.915	-3.94
239.131	-1.73
239.348	7.98
239.565	7.58
239.781	5.63
239.998	3.09
240.215	0.97
240.431	6.77
240.648	1.14
240.865	5.8
241.081	6.82
241.298	11.18
241.514	12.15
241.731	7.79
241.947	7.66
242.164	9.9
242.38	10.68
242.597	12.11
242.814	13.57
243.03	18.41
243.246	16.24
243.463	14.14
243.679	17.06
243.896	13.78
244.112	15.9
244.329	15.3
244.545	14.25
244.762	15.91
244.978	13.69
245.194	12.72
245.411	11.36
245.627	9.41
245.843	11.31
246.06	11.83
246.276	11.69
246.492	11.19
246.709	13.58
246.925	14.12
247.141	14.16
247.357	14.1
247.574	13.31
247.79	13.77
248.006	14.45
248.222	14.07
248.439	11.76
248.655	11.68
248.871	11.55
249.087	9.27
249.303	6.84
249.519	4.84
249.736	4.73
249.952	3.26
250.168	-0.11
250.384	0.92
250.6	3.16
250.816	6.88
251.032	7.45
251.248	4.5
251.464	6.52
251.68	7.94
251.896	8.65
252.112	7.07
252.328	7.31
252.544	10.11
252.76	8.7
252.976	7.18
253.192	5.74
253.408	7.06
253.624	7.19
253.84	7.05
254.056	6.88
254.272	4.43
254.487	2.8
254.703	4.99
254.919	6.06
255.135	6.25
255.351	1.47
255.567	-2.55
255.782	1.39
255.998	3.51
256.214	0.53
256.43	-0.45
256.646	2.1
256.861	6.21
257.077	7.35
257.293	5.21
257.508	2.07
257.724	5.39
257.94	6.56
258.155	4.67
258.371	5.35
258.587	6.57
258.802	9.63
259.018	11.12
259.234	11.31
259.449	9.15
259.665	9.32
259.88	11.24
260.096	11.22
260.312	11.69
260.527	12.26
260.743	12.74
260.958	12.63
261.174	12.74
261.389	11.67
261.605	10.08
261.82	10.45
262.036	10.79
262.251	10.21
262.466	8.95
262.682	7.31
262.897	3.09
263.113	1.04
263.328	0.94
263.543	-4.29
263.759	-5.69
263.974	-3.32
264.189	-2.35
264.405	-1.81
264.62	-0.12
264.835	3.59
265.051	2.11
265.266	5.12
265.481	5.65
265.696	5.9
265.912	9.34
266.127	10.76
266.342	11.22
266.557	12.41
266.773	11.34
266.988	7.39
267.203	8.24
267.418	10.44
267.633	10.79
267.848	12.41
268.064	9.93
268.279	8.98
268.494	9.68
268.709	8.04
268.924	7.76
269.139	7.2
269.354	7.9
269.569	5.69
269.784	3.1
269.999	1.85
270.214	-0.52
270.429	3.62
270.644	3.33
270.859	2.52
271.074	4.76
271.289	3.34
271.504	4.95
271.719	5.14
271.934	3.89
272.149	5.81
272.363	7.37
272.578	7.08
272.793	5.73
273.008	5.39
273.223	6.32
273.438	4.68
273.653	4.69
273.867	3.11
274.082	3.78
274.297	3.86
274.512	3.73
274.726	2.56
274.941	2.56
275.156	3.04
275.371	3.97
275.585	2.16
275.8	2.84
276.015	3.73
276.229	4.69
276.444	4.61
276.659	6.44
276.873	7.17
277.088	6.98
277.302	8.71
277.517	7.73
277.732	7.14
277.946	5.71
278.161	4.58
278.375	5.3
278.59	3.4
278.804	2.05
279.019	1.31
279.233	-2.64
279.448	-3.78
279.662	-4.22
279.877	-1.25
280.091	1.73
280.306	2.23
280.52	1.1
280.735	1.28
280.949	3.8
281.163	4.62
281.378	6.19
281.592	6.67
281.806	7.14
282.021	7.14
282.235	6.03
282.449	4.13
282.664	5.74
282.878	8.79
283.092	6.8
283.307	7.53
283.521	8.36
283.735	7.1
283.949	7.78
284.164	8.9
284.378	8.88
284.592	8.74
284.806	9.64
285.02	9.36
285.234	9.04
285.449	10.55
285.663	9.72
285.877	10
286.091	10.24
286.305	10.33
286.519	11.07
286.733	11.26
286.947	11.24
287.161	9.88
287.375	9.67
287.589	10.78
287.803	10.05
288.017	9.89
288.231	9.44
288.445	9.46
288.659	9.79
288.873	8.92
289.087	8.47
289.301	7.79
289.515	10.19
289.729	9.43
289.943	8.41
290.157	8.88
290.371	7.69
290.584	7.85
290.798	7.83
291.012	8.27
291.226	8.57
291.44	9.57
291.654	12.19
291.867	11.57
292.081	13.36
292.295	12.06
292.509	12.48
292.722	13.18
292.936	13.04
293.15	12.88
293.364	13.37
293.577	12.95
293.791	9.71
294.005	9.25
294.218	7.31
294.432	6.92
294.645	8.97
294.859	7.09
295.073	7.18
295.286	7.15
295.5	7.99
295.713	7.7
295.927	7.24
296.14	11.02
296.354	9.51
296.568	10.69
296.781	11.27
296.994	11.91
297.208	12.07
297.421	12.91
297.635	12.73
297.848	13.12
298.062	12.69
298.275	13.19
298.489	11.16
298.702	11.7
298.915	11.52
299.129	11.07
299.342	10.75
299.555	13.19
299.769	12.11
299.982	11.68
300.195	11.52
300.409	13.63
300.622	13.88
300.835	14.5
301.048	14.63
301.262	17.13
301.475	17.49
301.688	17.17
301.901	16.51
302.115	17.56
302.328	18.35
302.541	16.69
302.754	13.78
302.967	12.05
303.18	11.34
303.393	12.46
303.607	11.68
303.82	11.46
304.033	10.29
304.246	10.88
304.459	12.04
304.672	12.5
304.885	13.31
305.098	14.47
305.311	14.92
305.524	16.81
305.737	15.62
305.95	16.03
306.163	15
306.376	14.54
306.589	13.53
306.802	11.06
307.015	10.7
307.228	12.41
307.44	12.58
307.653	14.48
307.866	13.38
308.079	13.55
308.292	12.04
308.505	13.72
308.718	14.12
308.93	14.58
309.143	16.55
309.356	17.32
309.569	17.08
309.781	17.61
309.994	17.1
310.207	16.95
310.42	16.43
310.632	16.83
310.845	16.95
311.058	17.1
311.27	17.56
311.483	15.45
311.696	15.48
311.908	13.16
312.121	12.51
312.333	11.5
312.546	11.84
312.759	11.91
312.971	10.54
313.184	10.68
313.396	9.77
313.609	5.53
313.821	8.16
314.034	6.61
314.246	9.01
314.459	9.34
314.671	11.32
314.884	12.29
315.096	12.96
315.309	13.36
315.521	12.6
315.733	13.68
315.946	17.19
316.158	16.84
316.371	17.76
316.583	17.63
316.795	17.94
317.008	18.79
317.22	16.91
317.432	18.54
317.644	19.96
317.857	18.28
318.069	18.68
318.281	17.14
318.494	16.17
318.706	14.47
318.918	13.31
319.13	13.26
319.342	10.91
319.555	10.81
319.767	11.05
319.979	8.96
320.191	10.24
320.403	9.13
320.615	10.41
320.827	11.48
321.039	10.46
321.252	10.29
321.464	10.38
321.676	11.45
321.888	11.4
322.1	8.09
322.312	7.12
322.524	6.23
322.736	5.6
322.948	4.3
323.16	3.8
323.372	6.15
323.584	5.92
323.796	7.37
324.007	8.97
324.219	9.91
324.431	11.75
324.643	14.2
324.855	16.17
325.067	19.16
325.279	20.21
325.491	19.36
325.702	20.16
325.914	22.23
326.126	19.66
326.338	18.07
326.55	18.03
326.761	17.61
326.973	16.28
327.185	15.51
327.396	12.84
327.608	12.73
327.82	13.1
328.032	11.43
328.243	10.97
328.455	14.84
328.666	16.06
328.878	16.18
329.09	16.94
329.301	18.4
329.513	18.37
329.725	17.92
329.936	16.94
330.148	18.79
330.359	19.8
330.571	21.75
330.782	20.55
330.994	19.54
331.205	19.71
331.417	21.03
331.628	20.85
331.84	21.74
332.051	24.25
332.262	25.84
332.474	22.87
332.685	23.65
332.897	21.23
333.108	20.78
333.319	20.61
333.531	20.85
333.742	19.52
333.953	19.34
334.165	18.25
334.376	17.52
334.587	17.9
334.799	18.72
335.01	16.67
335.221	17.96
335.432	18.62
335.644	19.81
335.855	19.78
336.066	20.88
336.277	20.07
336.488	19.39
336.7	19
336.911	18.92
337.122	19.58
337.333	21.54
337.544	21.67
337.755	21.41
337.966	22.25
338.177	23.15
338.388	22.58
338.599	23.9
338.811	26.41
339.022	28.29
339.233	26.94
339.444	27.51
339.655	26.33
339.866	25.61
340.076	25.14
340.287	23.77
340.498	22.49
340.709	23.67
340.92	23.42
341.131	22.64
341.342	21.52
341.553	21.93
341.764	22.42
341.975	23.42
342.185	22.94
342.396	24.62
342.607	24.5
342.818	24.96
343.029	23.47
343.239	24.54
343.45	25.33
343.661	25.89
343.872	26.34
344.082	27.1
344.293	25.99
344.504	27.07
344.714	24.91
344.925	25.43
345.136	25.14
345.346	25.78
345.557	23.83
345.768	24.54
345.978	23.58
346.189	22.98
346.399	20.62
346.61	21.93
346.821	21.79
347.031	22.15
347.242	21.46
347.452	21.39
347.663	20.66
347.873	22.14
348.084	19.94
348.294	21.12
348.504	20.97
348.715	21.01
348.925	19.37
349.136	18.32
349.346	19.63
349.557	21.71
349.767	22.29
349.977	22.79
350.188	22.08
350.398	20.71
350.608	19.3
350.819	22.27
351.029	21.39
351.239	21.94
351.449	22.52
351.66	22.25
351.87	20.1
352.08	19.02
352.29	18.71
352.501	18.48
352.711	20.88
352.921	20.41
353.131	18.84
353.341	20.88
353.552	21.3
353.762	22.02
353.972	21.87
354.182	21.45
354.392	21.85
354.602	22.71
354.812	22.94
355.022	22.71
355.232	23.76
355.442	23.79
355.652	23.21
355.862	22.91
356.072	22.59
356.282	22.21
356.492	22.67
356.702	22.58
356.912	23.5
357.122	23.66
357.332	23.88
357.542	23.34
357.752	23
357.962	23.51
358.171	22.52
358.381	23.08
358.591	22.67
358.801	23
359.011	22.9
359.221	22.68
359.43	23.33
359.64	22.64
359.85	22.26
360.06	22.01
360.269	22.35
360.479	23.45
360.689	22.77
360.899	23.08
361.108	23.24
361.318	23.33
361.528	22.89
361.737	22.9
361.947	23.29
362.156	23.34
362.366	23.82
362.576	23.21
362.785	23.37
362.995	24.12
363.204	24.08
363.414	23.25
363.623	23.95
363.833	23.37
364.042	22.45
364.252	23.06
364.461	23.07
364.671	22.96
364.88	22.94
365.09	22.6
365.299	21.33
365.509	21.72
365.718	22.36
365.927	21.45
366.137	20.36
366.346	20.34
366.555	19.51
366.765	19.56
366.974	19.59
367.183	19.94
367.393	19.47
367.602	19.6
367.811	18.37
368.021	17.54
368.23	16
368.439	16.54
368.648	15.87
368.857	16.12
369.067	16.36
369.276	16.17
369.485	15.97
369.694	16.15
369.903	16.6
370.112	16.97
370.321	17.48
370.531	18.23
370.74	17.94
370.949	17.74
371.158	16.35
371.367	16.86
371.576	16.86
371.785	17.28
371.994	16.74
372.203	16.76
372.412	16.52
372.621	16.34
372.83	17.15
373.039	18.14
373.248	18.97
373.457	19.81
373.666	19.04
373.874	18.52
374.083	17.3
374.292	17.99
374.501	17.87
374.71	18.69
374.919	18.33
375.128	18.4
375.336	18.66
375.545	18.87
375.754	18.54
375.963	18.43
376.171	17.82
376.38	18.5
376.589	17.45
376.798	17.11
377.006	16.6
377.215	17.28
377.424	16.7
377.632	15.95
377.841	15.5
378.05	16.09
378.258	15.6
378.467	15.33
378.675	15.1
378.884	15.14
379.093	14.82
379.301	13.57
379.51	13.29
379.718	13.35
379.927	13.1
380.135	12.36
380.344	11.76
380.552	11.32
380.761	12.18
380.969	11.98
381.177	12.35
381.386	12.69
381.594	13.21
381.803	12.37
382.011	11.66
382.219	11.4
382.428	11.06
382.636	11.37
382.845	11.91
383.053	11.01
383.261	10.5
383.469	10.32
383.678	10.37
383.886	10.16
384.094	10.98
384.302	11.57
384.511	10.75
384.719	11.39
384.927	11.06
385.135	10.86
385.343	10.95
385.552	11.03
385.76	10.36
385.968	10.07
386.176	10.27
386.384	10.09
386.592	9.85
386.8	10.68
387.008	10.54
387.216	10.61
387.424	11.25
387.633	11.44
387.841	10.88
388.049	11.2
388.257	11.47
388.465	11.79
388.672	11.19
388.88	11.28
389.088	11.13
389.296	10.76
389.504	10.57
389.712	9.73
389.92	9.26
390.128	9.88
390.336	9.83
390.544	9.49
390.751	9.4
390.959	9.44
391.167	9.02
391.375	8.77
391.583	9.01
391.79	8.72
391.998	8.88
392.206	8.88
392.414	8.86
392.621	9.12
392.829	8.8
393.037	8.93
393.244	8.91
393.452	8.93
393.66	9.02
393.867	9.52
394.075	9.7
394.283	9.91
394.49	9.92
394.698	9.98
394.905	9.63
395.113	9.44
395.32	8.76
395.528	8.73
395.735	8.8
395.943	8.48
396.15	7.33
396.358	7.23
396.565	6.92
396.773	7.09
396.98	6.66
397.188	6.33
397.395	6.59
397.602	7.09
397.81	7.15
398.017	7.21
398.225	7.3
398.432	7.68
398.639	7.5
398.847	7.62
399.054	7.56
399.261	7.64
399.468	8.07
399.676	8.36
399.883	8.22
400.09	8.22
400.297	8.17
400.505	7.99
400.712	7.98
400.919	8.13
401.126	7.62
401.333	7.51
401.54	7.61
401.748	7.31
401.955	7.31
402.162	7.09
402.369	7.01
402.576	6.88
402.783	7.03
402.99	7.02
403.197	6.91
403.404	7.25
403.611	7.38
403.818	6.96
404.025	7.6
404.232	7.54
404.439	7.65
404.646	7.65
404.853	7.65
405.06	7.74
405.267	7.64
405.474	7.77
405.681	7.64
405.887	7.51
406.094	7.49
406.301	6.82
406.508	6.5
406.715	6.46
406.922	6.32
407.128	6.1
407.335	6.06
407.542	6.16
407.749	6.17
407.955	6.15
408.162	6.14
408.369	6.33
408.575	6.27
408.782	6.44
408.989	6.32
409.195	6.47
409.402	6.63
409.609	6.58
409.815	6.51
410.022	6.56
410.228	6.65
410.435	6.62
410.642	6.68
410.848	7.07
411.055	7.1
411.261	7.06
411.468	6.83
411.674	6.71
411.881	6.48
412.087	6.37
412.294	6.43
412.5	6.3
412.706	6.53
412.913	6.64
413.119	6.2
413.326	6.28
413.532	6.33
413.738	6.42
413.945	6.16
414.151	6.23
414.357	6.49
414.564	5.88
414.77	5.86
414.976	5.75
415.182	5.67
415.389	5.84
415.595	5.78
415.801	5.76
416.007	5.88
416.214	6.15
416.42	6.56
416.626	6.18
416.832	6.62
417.038	6.71
417.244	6.48
417.45	6.35
417.657	6.63
417.863	6.62
418.069	6.77
418.275	6.61
418.481	6.66
418.687	6.41
418.893	6.59
419.099	6.53
419.305	6.6
419.511	6.77
419.717	6.87
419.923	6.57
420.129	6.38
420.335	6.4
420.541	6.58
420.746	6.63
420.952	6.59
421.158	6.49
421.364	6.29
421.57	6.18
421.776	6.03
421.982	6.12
422.187	6.16
422.393	6.18
422.599	6.05
422.805	5.71
423.01	5.71
423.216	5.75
423.422	5.77
423.628	5.91
423.833	5.89
424.039	5.99
424.245	5.87
424.45	5.82
424.656	5.94
424.862	5.92
425.067	6.16
425.273	6.12
425.478	6.13
425.684	6.3
425.889	6.41
426.095	6.53
426.301	6.48
426.506	6.51
426.712	6.61
426.917	6.57
427.123	6.57
427.328	6.46
427.533	6.39
427.739	6.49
427.944	6.3
428.15	6.11
428.355	6.09
428.561	6.11
428.766	5.9
428.971	5.97
429.177	5.74
429.382	5.81
429.587	5.81
429.793	5.92
429.998	5.82
430.203	5.92
430.408	6.1
430.614	5.91
430.819	5.86
431.024	5.89
431.229	5.81
431.434	6.12
431.64	5.99
431.845	6.08
432.05	6
432.255	5.96
432.46	5.75
432.665	5.57
432.87	5.62
433.076	5.62
433.281	5.93
433.486	6.03
433.691	5.91
433.896	5.88
434.101	5.7
434.306	5.62
434.511	5.73
434.716	5.79
434.921	5.57
435.126	5.64
435.331	5.65
435.535	5.27
435.74	5.15
435.945	5.03
436.15	5.13
436.355	5.39
436.56	5.66
436.765	5.5
436.97	5.52
437.174	5.76
437.379	5.75
437.584	5.75
437.789	5.75
437.993	5.73
438.198	5.81
438.403	5.67
438.608	5.64
438.812	5.43
439.017	5.41
439.222	5.41
439.426	5.4
439.631	5.63
439.836	5.65
440.04	5.79
440.245	5.88
440.45	5.84
440.654	5.98
440.859	5.93
441.063	5.98
441.268	5.91
441.472	6.12
441.677	6.13
441.881	5.95
442.086	6.08
442.29	6.21
442.495	6.2
442.699	6.39
442.904	6.31
443.108	6.23
443.312	6.25
443.517	6.53
443.721	6.4
443.925	6.35
444.13	6.42
444.334	6.17
444.538	5.98
444.743	6.03
444.947	5.87
445.151	6.08
445.356	6.13
445.56	6.08
445.764	5.97
445.968	5.93
446.173	5.98
446.377	5.9
446.581	6.01
446.785	5.98
446.989	5.85
447.193	5.96
447.398	5.77
447.602	5.75
447.806	5.68
448.01	5.68
448.214	5.67
448.418	5.72
448.622	5.68
448.826	5.49
449.03	5.53
449.234	5.54
449.438	5.41
449.642	5.36
449.846	5.38
450.05	5.42
450.254	5.3
450.458	5.23
450.662	5.19
450.866	5.18
451.069	5.41
451.273	5.54
451.477	5.65
451.681	5.42
451.885	5.36
452.089	5.34
452.292	5.37
452.496	5.49
452.7	5.26
452.904	4.97
453.107	5.02
453.311	4.98
453.515	4.54
453.719	4.35
453.922	4.48
454.126	4.5
454.33	4.5
454.533	4.36
454.737	4.24
454.94	4.59
455.144	4.7
455.348	4.52
455.551	4.44
455.755	4.9
455.958	4.9
456.162	4.97
456.365	5.03
456.569	5.01
456.772	5.16
456.976	5.26
457.179	5.14
457.383	5.16
457.586	5.42
457.79	5.34
457.993	5.18
458.196	5.29
458.4	5.36
458.603	5.48
458.807	5.55
459.01	5.55
459.213	5.4
459.417	5.38
459.62	5.35
459.823	5.24
460.026	5.33
460.23	5.34
460.433	5.32
460.636	5.28
460.839	5.35
461.042	5.29
461.246	5.14
461.449	5.16
461.652	5.37
461.855	5.59
462.058	5.71
462.261	5.68
462.464	5.65
462.668	5.81
462.871	5.89
463.074	5.74
463.277	5.72
463.48	5.76
463.683	5.74
463.886	5.53
464.089	5.25
464.292	5.05
464.495	5.24
464.698	5.24
464.901	5.17
465.104	5.18
465.306	5.11
465.509	5.19
465.712	5.28
465.915	5.34
466.118	5.41
466.321	5.61
466.524	5.69
466.726	5.44
466.929	5.62
467.132	5.42
467.335	5.35
467.538	5.28
467.74	5.14
467.943	5.12
468.146	5.1
468.348	5.05
468.551	5.14
468.754	5.17
468.956	5.33
469.159	5.23
469.362	5.42
469.564	5.47
469.767	5.62
469.969	5.76
470.172	5.9
470.375	5.99
470.577	5.98
470.78	5.72
470.982	5.72
471.185	5.58
471.387	5.51
471.59	5.54
471.792	5.33
471.995	5.28
472.197	5.15
472.399	4.96
472.602	4.83
472.804	4.97
473.007	5.02
473.209	4.89
473.411	4.85
473.614	4.97
473.816	4.87
474.018	5.03
474.22	4.93
474.423	4.99
474.625	5.23
474.827	5.24
475.03	5
475.232	5.26
475.434	5.36
475.636	5.34
475.838	5.29
476.04	5.34
476.243	5.46
476.445	5.56
476.647	5.57
476.849	5.56
477.051	5.55
477.253	5.49
477.455	5.35
477.657	5.36
477.859	5.37
478.061	5.29
478.263	5.32
478.465	5.31
478.667	5.12
478.869	5.1
479.071	5
479.273	5.32
479.475	5.52
479.677	5.49
479.879	5.35
480.081	5.43
480.283	5.43
480.485	5.33
480.686	5.21
480.888	5.29
481.09	5.43
481.292	5.42
481.494	5.41
481.695	5.27
481.897	5.18
482.099	5.36
482.301	5.41
482.502	5.47
482.704	5.46
482.906	5.5
483.107	5.52
483.309	5.54
483.511	5.61
483.712	5.56
483.914	5.58
484.115	5.67
484.317	5.67
484.519	5.65
484.72	5.65
484.922	5.71
485.123	5.69
485.325	5.71
485.526	5.67
485.728	5.63
485.929	5.63
486.131	5.67
486.332	5.65
486.534	5.69
486.735	5.77
486.936	5.74
487.138	5.7
487.339	5.66
487.541	5.65
487.742	5.66
487.943	5.64
488.144	5.66
488.346	5.66
488.547	5.51
488.748	5.54
488.95	5.49
489.151	5.53
489.352	5.57
489.553	5.65
489.755	5.67
489.956	5.7
490.157	5.72
490.358	5.64
490.559	5.51
490.76	5.63
490.961	5.49
491.163	5.45
491.364	5.51
491.565	5.52
491.766	5.49
491.967	5.54
492.168	5.48
492.369	5.5
492.57	5.53
492.771	5.54
492.972	5.6
493.173	5.6
493.374	5.63
493.575	5.53
493.776	5.36
493.976	5.36
494.177	5.27
494.378	5.31
494.579	5.27
494.78	5.34
494.981	5.51
495.182	5.6
495.382	5.66
495.583	5.8
495.784	5.76
495.985	5.99
496.185	6.03
496.386	6
496.587	5.9
496.788	5.97
496.988	5.94
497.189	5.98
497.39	5.78
497.59	5.59
497.791	5.51
497.992	5.5
498.192	5.43
498.393	5.45
498.593	5.47
498.794	5.43
498.994	5.38
499.195	5.34
499.395	5.24
499.596	5.35
499.796	5.61
499.997	5.63
500.197	5.78
500.398	5.86
500.598	5.76
500.799	5.7
500.999	5.76
501.199	5.74
501.4	5.58
501.6	5.72
501.801	5.74
502.001	5.51
502.201	5.59
502.402	5.63
502.602	5.49
502.802	5.44
503.002	5.66
503.203	5.91
503.403	5.92
503.603	6.27
503.803	6.06
504.003	6.07
504.204	6.17
504.404	6.04
504.604	5.97
504.804	5.92
505.004	6.1
505.204	6.09
505.404	6.02
505.604	6.01
505.804	5.99
506.005	6.09
506.205	6.15
506.405	6.3
506.605	6.47
506.805	6.47
507.005	6.58
507.204	6.67
507.404	6.72
507.604	6.89
507.804	6.99
508.004	6.84
508.204	6.99
508.404	7.03
508.604	7.07
508.804	7.15
509.003	7.33
509.203	7.45
509.403	7.49
509.603	7.52
509.803	7.42
510.002	7.5
510.202	7.67
510.402	7.74
510.602	7.73
510.801	7.84
511.001	7.88
511.201	7.84
511.4	7.94
511.6	7.86
511.8	7.86
511.999	8
512.199	8.01
512.398	8
512.598	7.91
512.797	8.02
512.997	8.11
513.197	7.93
513.396	7.98
513.596	8.07
513.795	8.27
513.994	8.45
514.194	8.48
514.393	8.56
514.593	8.71
514.792	8.96
514.992	8.95
515.191	9.07
515.39	9.29
515.59	9.43
515.789	9.57
515.988	9.61
516.188	9.67
516.387	9.77
516.586	9.92
516.786	10.04
516.985	10.06
517.184	10.2
517.383	10.22
517.582	10.3
517.782	10.33
517.981	10.29
518.18	10.37
518.379	10.38
518.578	10.43
518.777	10.36
518.976	10.41
519.176	10.53
519.375	10.57
519.574	10.63
519.773	10.55
519.972	10.72
520.171	10.83
520.37	10.82
520.569	10.89
520.768	10.89
520.967	10.95
521.166	11
521.365	11.02
521.564	11.05
521.762	10.98
521.961	11.17
522.16	11.17
522.359	11.11
522.558	11.25
522.757	11.28
522.956	11.41
523.154	11.41
523.353	11.49
523.552	11.56
523.751	11.63
523.949	11.72
524.148	11.86
524.347	11.87
524.546	11.88
524.744	11.97
524.943	12.22
525.142	12.3
525.34	12.52
525.539	12.5
525.737	12.49
525.936	12.54
526.135	12.57
526.333	12.72
526.532	12.87
526.73	12.99
526.929	13.03
527.127	13.1
527.326	13.16
527.524	13.19
527.723	13.42
527.921	13.55
528.12	13.61
528.318	13.72
528.516	13.74
528.715	13.74
528.913	13.77
529.112	13.81
529.31	13.81
529.508	13.88
529.707	13.9
529.905	13.81
530.103	13.84
530.301	13.95
530.5	14.01
530.698	14.13
530.896	14.18
531.094	14.23
531.293	14.34
531.491	14.41
531.689	14.49
531.887	14.59
532.085	14.72
532.283	14.76
532.481	14.88
532.68	14.93
532.878	14.9
533.076	14.96
533.274	15.07
533.472	15.08
533.67	15.08
533.868	14.98
534.066	15.05
534.264	14.98
534.462	15.02
534.66	15.05
534.858	15.04
535.056	14.96
535.253	14.98
535.451	15.11
535.649	15.13
535.847	15.23
536.045	15.35
536.243	15.34
536.441	15.57
536.638	15.55
536.836	15.47
537.034	15.49
537.232	15.6
537.43	15.67
537.627	15.55
537.825	15.62
538.023	15.63
538.22	15.67
538.418	15.85
538.616	15.8
538.813	15.93
539.011	16.06
539.209	16.26
539.406	16.41
539.604	16.54
539.801	16.73
539.999	16.84
540.196	16.95
540.394	17.1
540.591	17.13
540.789	17.25
540.986	17.31
541.184	17.36
541.381	17.52
541.579	17.56
541.776	17.57
541.974	17.63
542.171	17.62
542.368	17.68
542.566	17.7
542.763	17.74
542.96	17.75
543.158	17.79
543.355	17.78
543.552	17.61
543.75	17.57
543.947	17.63
544.144	17.62
544.341	17.72
544.539	17.69
544.736	17.78
544.933	17.93
545.13	17.99
545.327	18.03
545.524	18.11
545.722	18.22
545.919	18.29
546.116	18.45
546.313	18.47
546.51	18.64
546.707	18.81
546.904	18.77
547.101	18.78
547.298	18.75
547.495	18.88
547.692	18.88
547.889	18.93
548.086	19.04
548.283	18.9
548.48	19.05
548.677	19.07
548.874	18.96
549.07	19.08
549.267	19.17
549.464	19.3
549.661	19.45
549.858	19.61
550.055	19.68
550.251	19.88
550.448	20.16
550.645	20.18
550.842	20.25
551.038	20.52
551.235	20.47
551.432	20.54
551.628	20.53
551.825	20.5
552.022	20.57
552.218	20.66
552.415	20.51
552.612	20.52
552.808	20.56
553.005	20.65
553.201	20.61
553.398	20.77
553.594	20.76
553.791	20.88
553.987	20.95
554.184	20.85
554.38	20.95
554.577	21.09
554.773	21.13
554.97	21.16
555.166	21.13
555.362	21.21
555.559	21.04
555.755	21.11
555.952	21.2
556.148	21.18
556.344	21.43
556.541	21.45
556.737	21.43
556.933	21.38
557.129	21.71
557.326	21.72
557.522	21.81
557.718	22.09
557.914	21.99
558.11	22.15
558.307	22.05
558.503	22.22
558.699	22.23
558.895	22.26
559.091	22.29
559.287	22.04
559.483	22.08
559.679	22.12
559.876	22.32
560.072	22.5
560.268	22.39
560.464	22.69
560.66	22.59
560.856	22.6
561.052	22.78
561.247	22.92
561.443	23.01
561.639	23.08
561.835	23.17
562.031	23.09
562.227	23.06
562.423	23.15
562.619	23.12
562.815	23.21
563.01	23.28
563.206	23.28
563.402	23.36
563.598	23.48
563.793	23.58
563.989	23.72
564.185	23.82
564.381	23.99
564.576	24.18
564.772	24.31
564.968	24.66
565.163	24.84
565.359	24.91
565.555	25.17
565.75	25.33
565.946	25.44
566.141	25.23
566.337	25.41
566.532	25.54
566.728	25.63
566.923	25.71
567.119	25.52
567.314	25.51
567.51	25.66
567.705	25.59
567.901	25.55
568.096	25.75
568.292	25.83
568.487	25.66
568.682	25.8
568.878	25.71
569.073	25.63
569.268	25.58
569.464	25.78
569.659	25.91
569.854	25.87
570.05	26.06
570.245	25.88
570.44	26.03
570.635	26.19
570.831	26.12
571.026	26.34
571.221	26.53
571.416	26.73
571.611	26.8
571.806	26.57
572.002	26.55
572.197	26.52
572.392	26.8
572.587	26.83
572.782	26.87
572.977	26.78
573.172	26.74
573.367	26.83
573.562	27.05
573.757	26.93
573.952	27.11
574.147	27.32
574.342	27.23
574.537	27.07
574.732	27.11
574.927	27.11
575.121	27.16
575.316	27.04
575.511	27.04
575.706	26.84
575.901	26.85
576.096	26.93
576.29	26.93
576.485	26.97
576.68	27.12
576.875	27.14
577.069	27.27
577.264	27.22
577.459	27.61
577.654	27.48
577.848	27.53
578.043	27.72
578.238	27.58
578.432	27.5
578.627	27.8
578.821	27.61
579.016	27.7
579.21	27.62
579.405	27.73
579.6	27.41
579.794	27.59
579.989	27.67
580.183	27.74
580.378	28.23
580.572	28.48
580.766	28.04
580.961	28.33
581.155	28.24
581.35	28.21
581.544	28.36
581.738	28.5
581.933	28.35
582.127	28.27
582.321	28.13
582.516	27.73
582.71	27.57
582.904	27.82
583.099	27.56
583.293	27.7
583.487	27.85
583.681	28.02
583.875	28.29
584.07	28.21
584.264	28.09
584.458	28.27
584.652	28.6
584.846	28.9
585.04	29.04
585.234	28.9
585.428	29.11
585.623	29.16
585.817	28.93
586.011	28.79
586.205	29.25
586.399	29.54
586.593	29.31
586.787	29.01
586.981	28.7
587.174	29.01
587.368	29.48
587.562	29.17
587.756	29.11
587.95	29.4
588.144	29.36
588.338	29.18
588.532	29.27
588.725	29.51
588.919	29.4
589.113	29.59
589.307	29.27
589.501	29.08
589.694	29.27
589.888	29.12
590.082	29.14
590.275	29.34
590.469	29.45
590.663	29.36
590.856	29.26
591.05	29.54
591.244	29.65
591.437	29.82
591.631	30.11
591.824	30.15
592.018	30.51
592.212	30.55
592.405	30.39
592.599	30.21
592.792	30.22
592.986	30.21
593.179	30.32
593.372	30.22
593.566	30.3
593.759	30.02
593.953	30.03
594.146	30.16
594.339	30.17
594.533	30.09
594.726	30.23
594.92	30.45
595.113	30.62
595.306	30.58
595.499	30.83
595.693	30.76
595.886	30.92
596.079	31
596.272	30.93
596.466	30.96
596.659	31.11
596.852	31.14
597.045	31.05
597.238	30.96
597.431	30.9
597.624	30.73
597.818	30.74
598.011	30.66
598.204	30.65
598.397	30.62
598.59	30.63
598.783	30.7
598.976	30.58
599.169	30.47
599.362	30.56
599.555	30.59
599.748	30.39
599.941	30.23
600.134	30.45
600.326	30.38
600.519	30.3
600.712	29.89
600.905	29.85
601.098	29.96
601.291	30.29
601.483	30.59
601.676	30.64
601.869	31.12
602.062	31.32
602.255	31.37
602.447	31.47
602.64	31.51
602.833	31.74
603.025	31.96
603.218	32.06
603.411	31.94
603.603	31.8
603.796	31.78
603.989	31.56
604.181	31.65
604.374	31.74
604.566	31.66
604.759	31.72
604.951	31.85
605.144	31.88
605.336	31.89
605.529	31.96
605.721	31.81
605.914	31.88
606.106	31.89
606.299	31.68
606.491	31.49
606.683	31.63
606.876	31.46
607.068	31.28
607.26	30.91
607.453	30.91
607.645	30.72
607.837	30.79
608.03	30.83
608.222	30.9
608.414	31.24
608.606	31.1
608.799	30.85
608.991	30.89
609.183	31.1
609.375	31.33
609.567	31.21
609.759	31.44
609.952	31.43
610.144	31.4
610.336	31.36
610.528	31.11
610.72	31.23
610.912	31.32
611.104	31.4
611.296	31.42
611.488	31.19
611.68	30.98
611.872	30.76
612.064	30.74
612.256	30.61
612.448	30.76
612.64	30.84
612.832	30.62
613.023	30.79
613.215	30.92
613.407	30.82
613.599	31.01
613.791	31.22
613.983	31.17
614.174	31.24
614.366	31.38
614.558	31.42
614.75	31.36
614.941	31.84
615.133	31.76
615.325	31.77
615.516	31.62
615.708	31.86
615.9	31.98
616.091	32.14
616.283	32.44
616.475	32.5
616.666	32.23
616.858	32.05
617.049	31.98
617.241	32.36
617.432	32.52
617.624	32.69
617.815	32.51
618.007	32.39
618.198	32.22
618.39	31.91
618.581	31.84
618.773	31.91
618.964	31.95
619.155	31.9
619.347	31.66
619.538	31.51
619.729	31.65
619.921	31.59
620.112	31.7
620.303	31.71
620.494	31.53
620.686	31.55
620.877	31.83
621.068	32.05
621.259	32.14
621.451	32.16
621.642	32.1
621.833	32.14
622.024	32.27
622.215	32.13
622.406	32.34
622.597	32.41
622.788	32.61
622.98	32.55
623.171	32.41
623.362	32.65
623.553	32.58
623.744	32.68
623.935	32.24
624.126	32.32
624.317	32.63
624.508	33.02
624.698	33.29
624.889	33.23
625.08	33.01
625.271	33.03
625.462	32.71
625.653	32.66
625.844	32.72
626.034	33.13
626.225	32.96
626.416	32.78
626.607	32.53
626.798	32.24
626.988	32.3
627.179	32.53
627.37	32.76
627.56	32.91
627.751	33.27
627.942	33.37
628.132	32.95
628.323	33.08
628.514	33.05
628.704	32.87
628.895	33.1
629.085	33.04
629.276	32.94
629.466	32.82
629.657	32.45
629.847	32.12
630.038	31.99
630.228	32.41
630.419	32.21
630.609	32.29
630.8	32.65
630.99	32.54
631.181	32.51
631.371	32.61
631.561	32.74
631.752	33.31
631.942	33.68
632.132	33.76
632.323	33.67
632.513	34.05
632.703	34.14
632.893	34.16
633.084	34.36
633.274	34.3
633.464	34.32
633.654	34.36
633.844	34.14
634.034	33.87
634.225	33.78
634.415	33.46
634.605	33.23
634.795	33.13
634.985	33.34
635.175	33.42
635.365	33.54
635.555	33.49
635.745	33.6
635.935	33.59
636.125	33.21
636.315	32.97
636.505	33.61
636.695	33.88
636.885	34.17
637.075	33.89
637.265	33.51
637.455	33.62
637.644	33.65
637.834	33.25
638.024	33.56
638.214	34.08
638.404	34.37
638.593	34.09
638.783	33.68
638.973	33.27
639.163	33.3
639.352	33.52
639.542	33.26
639.732	32.87
639.921	33.26
640.111	33.14
640.301	33.21
640.49	33.28
640.68	33.34
640.87	33.31
641.059	33.65
641.249	33.61
641.438	33.78
641.628	33.93
641.817	34.1
642.007	33.92
642.196	33.63
642.386	33.42
642.575	33.46
642.764	33.29
642.954	33.37
643.143	33.3
643.333	32.79
643.522	32.72
643.711	32.55
643.901	32.99
644.09	32.74
644.279	32.77
644.469	32.57
644.658	32.42
644.847	32.42
645.036	32.45
645.226	33.09
645.415	33.67
645.604	33.7
645.793	33.9
645.982	33.66
646.171	33.62
646.361	33.78
646.55	33.77
646.739	33.9
646.928	33.93
647.117	34.16
647.306	33.72
647.495	33.27
647.684	33.3
647.873	33.04
648.062	32.76
648.251	32.85
648.44	32.88
648.629	33.37
648.818	33.24
649.007	33.27
649.196	33.02
649.384	32.84
649.573	33.41
649.762	33.1
649.951	33.55
650.14	33.71
650.328	33.71
650.517	33.2
650.706	32.92
650.895	32.89
651.083	33.04
651.272	33.2
651.461	33.47
651.65	33.12
651.838	33.36
652.027	33.46
652.216	33.61
652.404	34.01
652.593	34.33
652.781	34.22
652.97	34.13
653.158	34.23
653.347	34.46
653.535	34.42
653.724	34.75
653.912	34.68
654.101	34.05
654.289	33.73
654.478	33.3
654.666	33.39
654.855	33.09
655.043	32.98
655.231	32.47
655.42	32.26
655.608	32.39
655.796	32.38
655.985	32.41
656.173	33.16
656.361	33.27
656.55	33.34
656.738	33.36
656.926	33.94
657.114	34.56
657.302	34.74
657.491	34.76
657.679	34.46
657.867	33.94
658.055	34.1
658.243	33.9
658.431	34.43
658.619	34.39
658.807	34.3
658.996	34.3
659.184	34.11
659.372	34.2
659.56	34.44
659.748	34.22
659.936	34.37
660.124	34.19
660.311	34.15
660.499	34.09
660.687	34.29
660.875	34.35
661.063	34.32
661.251	34.64
661.439	34.68
661.627	34.41
661.814	35.08
662.002	35.08
662.19	35.45
662.378	35.57
662.565	35.26
662.753	34.99
662.941	34.95
663.129	35.38
663.316	35.09
663.504	35.17
663.692	34.99
663.879	34.59
664.067	34.34
664.254	34.16
664.442	34.36
664.63	34.69
664.817	34.9
665.005	35.18
665.192	34.78
665.38	34.34
665.567	33.85
665.755	33.58
665.942	33.8
666.13	33.75
666.317	33.5
666.504	32.88
666.692	32.67
666.879	32.67
667.067	32.14
667.254	32.17
667.441	32.86
667.629	33.15
667.816	33.72
668.003	33.41
668.19	34.08
668.378	34.5
668.565	34.92
668.752	34.92
668.939	35.06
669.127	35.58
669.314	35.18
669.501	34.93
669.688	35.2
669.875	34.91
670.062	34.98
670.249	35.06
670.436	35.32
670.623	34.98
670.81	34.63
670.997	34.68
671.184	34.77
671.371	35.09
671.558	34.9
671.745	35.3
671.932	35.61
672.119	35.76
672.306	35.97
672.493	35.81
672.68	36.09
672.867	36.41
673.054	35.63
673.24	35.42
673.427	35.44
673.614	35.36
673.801	34.24
673.988	34.73
674.174	34.76
674.361	34.08
674.548	33.81
674.734	33.91
674.921	34.25
675.108	35.16
675.294	34.92
675.481	34.72
675.668	35.17
675.854	35.81
676.041	35.47
676.227	35.52
676.414	35.78
676.601	35.49
676.787	35.08
676.974	34.93
677.16	34.65
677.347	35.06
677.533	35.39
677.719	35.15
677.906	34.8
678.092	34.74
678.279	34.87
678.465	34.78
678.651	35.18
678.838	35.79
679.024	35.95
679.21	36.22
679.397	36.41
679.583	36.35
679.769	36.68
679.955	36.87
680.142	36.75
680.328	36.91
680.514	36.54
680.7	36.57
680.886	36.28
681.073	36.13
681.259	36.2
681.445	35.98
681.631	36.25
681.817	36.27
682.003	36.18
682.189	36.25
682.375	35.93
682.561	36.34
682.747	36.05
682.933	36.18
683.119	35.79
683.305	35.99
683.491	35.83
683.677	34.95
683.863	34.74
684.049	34.86
684.235	34.67
684.42	34.3
684.606	33.91
684.792	34.64
684.978	34.41
685.164	34.57
685.349	34.37
685.535	34.63
685.721	34.86
685.907	34.87
686.092	34.59
686.278	34.68
686.464	34.87
686.649	35.37
686.835	35.05
687.021	34.78
687.206	34.95
687.392	34.33
687.577	34.28
687.763	34.32
687.948	34.52
688.134	34.64
688.319	34.83
688.505	35.15
688.69	35.1
688.876	35.07
689.061	35.55
689.247	35.33
689.432	35.2
689.618	35.22
689.803	36.04
689.988	35.55
690.174	36.14
690.359	35.86
690.544	35.31
690.73	35.46
690.915	35.09
691.1	34.65
691.285	34.92
691.471	35.73
691.656	35.47
691.841	35.41
692.026	35.57
692.211	35.13
692.396	35.62
692.582	36.95
692.767	36.86
692.952	37.52
693.137	37.65
693.322	37.13
693.507	36.86
693.692	36.89
693.877	35.84
694.062	35.61
694.247	35.66
694.432	35.22
694.617	33.78
694.802	33.16
694.987	32.65
695.172	32.85
695.357	33.63
695.541	33.58
695.726	33.71
695.911	34.53
696.096	34.68
696.281	34.77
696.466	34.52
696.65	35.21
696.835	35.33
697.02	35.08
697.204	35.53
697.389	35.19
697.574	35.16
697.759	35.32
697.943	35.18
698.128	35.19
698.312	35.63
698.497	35.95
698.682	35.71
698.866	35.78
699.051	36.13
699.235	35.62
699.42	35.68
699.604	35.93
699.789	35.59
699.973	35.48
700.158	35.29
700.342	35.19
700.527	35.15
700.711	35.38
700.895	35.44
701.08	35.38
701.264	36.03
701.448	35.59
701.633	35.13
701.817	35.52
702.001	35.82
702.186	36.14
702.37	35.82
702.554	36
702.738	35.46
702.923	35.71
703.107	35.47
703.291	34.26
703.475	34.73
703.659	34.53
703.843	34.08
704.027	33.6
704.212	33.86
704.396	33.64
704.58	32.91
704.764	33.56
704.948	33.26
705.132	33.15
705.316	34.94
705.5	35.15
705.684	36.15
705.868	36.46
706.052	36.83
706.235	36.98
706.419	36.47
706.603	37.06
706.787	36.66
706.971	37.25
707.155	38.59
707.339	37.66
707.522	37.74
707.706	37.11
707.89	36.87
708.074	36.36
708.257	35.94
708.441	36.66
708.625	35.96
708.808	35.99
708.992	34.67
709.176	34.3
709.359	33.4
709.543	33.4
709.727	33.95
709.91	33.95
710.094	34.37
710.277	34.51
710.461	33.83
710.644	34.05
710.828	33.92
711.011	35.03
711.195	33.95
711.378	34.43
711.562	34.66
711.745	33.41
711.928	33.84
712.112	34.52
712.295	35.24
712.478	35.91
712.662	36.65
712.845	36.34
713.028	35.61
713.212	36.33
713.395	37.02
713.578	36.66
713.761	36.96
713.945	37.74
714.128	37.19
714.311	36.29
714.494	36.22
714.677	35.6
714.86	35.31
715.043	37.06
715.227	37.86
715.41	37.57
715.593	36.94
715.776	37.32
715.959	36.21
716.142	35.74
716.325	35.93
716.508	35.78
716.691	35.86
716.874	37.16
717.057	35.94
717.239	34.39
717.422	34.43
717.605	35.48
717.788	35.41
717.971	35.86
718.154	36.13
718.337	36.51
718.519	36.15
718.702	36.57
718.885	36.65
719.068	37.33
719.25	37.72
719.433	37.03
719.616	37.17
719.798	37.24
719.981	37.79
720.164	36.96
720.346	37.49
720.529	38.58
720.712	37.87
720.894	37.52
721.077	36.04
721.259	36.09
721.442	36.07
721.624	36.18
721.807	35.73
721.989	35.39
722.172	36.52
722.354	34.76
722.537	34.99
722.719	35.09
722.901	34.58
723.084	35.43
723.266	35.68
723.448	36.8
723.631	36.43
723.813	36.99
723.995	36.04
724.178	35.79
724.36	36.18
724.542	34.68
724.724	34.89
724.907	35.33
725.089	35.77
725.271	34.82
725.453	33.82
725.635	33.05
725.817	32.54
725.999	33.4
726.181	33
726.364	32.54
726.546	32.56
726.728	32.94
726.91	33.08
727.092	32.65
727.274	34.23
727.456	34.28
727.638	34.87
727.819	35.93
728.001	34.87
728.183	35.8
728.365	36.75
728.547	37.08
728.729	37.17
728.911	37.51
729.093	37.57
729.274	36.84
729.456	37.28
729.638	38.07
729.82	36.93
730.001	37.53
730.183	35.98
730.365	35.23
730.546	34.34
730.728	34.06
730.91	32.71
731.091	32.13
731.273	31.53
731.455	31.63
731.636	31.15
731.818	31.85
731.999	32.68
732.181	32.83
732.362	32.57
732.544	34.04
732.725	33.57
732.907	34.64
733.088	35.04
733.27	36.35
733.451	36.24
733.633	36.84
733.814	37.29
733.995	36.34
734.177	36.86
734.358	38.35
734.539	37.26
734.721	38.29
734.902	37.97
735.083	37.93
735.264	37.19
735.446	37.58
735.627	36.45
735.808	35.39
735.989	36.03
736.17	36.17
736.351	35.48
736.533	35.62
736.714	34.96
736.895	35.16
737.076	34.97
737.257	34.32
737.438	34.27
737.619	34.76
737.8	35.1
737.981	35.17
738.162	36.18
738.343	35.3
738.524	35.73
738.705	35.72
738.886	35.46
739.067	35.86
739.247	35.81
739.428	35.2
739.609	34.74
739.79	34.62
739.971	34.37
740.151	33.18
740.332	34.02
740.513	34.87
740.694	34.13
740.874	33.58
741.055	33.39
741.236	33.89
741.417	34.08
741.597	35.11
741.778	35.27
741.958	32.97
742.139	33.47
742.32	32.88
742.5	31.98
742.681	32.9
742.861	34.14
743.042	34.29
743.222	35.06
743.403	35.33
743.583	34.07
743.764	33.5
743.944	36.99
744.124	38
744.305	37.82
744.485	36.49
744.666	35.05
744.846	34.24
745.026	33.5
745.207	32.97
745.387	32.51
745.567	32.96
745.747	35.37
745.928	33.42
746.108	32.67
746.288	34.03
746.468	35.77
746.648	37.42
746.829	36.47
747.009	36.86
747.189	35.73
747.369	36.24
747.549	37.24
747.729	34.36
747.909	33.31
748.089	33.83
748.269	33.32
748.449	33.53
748.629	32.66
748.809	33.85
748.989	33.01
749.169	33.53
749.349	33.15
749.529	33.11
749.709	34.97
749.889	35.18
750.068	33.69
750.248	34.75
750.428	34.45
750.608	35.57
750.788	34.9
750.967	35.52
751.147	34.55
751.327	34.08
751.507	32.61
751.686	32.54
751.866	32.15
752.046	33.37
752.225	31.81
752.405	32.27
752.585	33.69
752.764	33.94
752.944	32.83
753.123	34.01
753.303	34.61
753.482	35.76
753.662	34.95
753.841	37.06
754.021	36.6
754.2	37.75
754.38	35.96
754.559	34.47
754.739	34.14
754.918	35.58
755.097	35.52
755.277	34.44
755.456	33.04
755.635	32.44
755.815	30.54
755.994	30.43
756.173	28.8
756.352	30.24
756.532	29.17
756.711	29.76
756.89	29.03
757.069	28.5
757.248	29.53
757.427	31.18
757.607	32.42
757.786	33.47
757.965	33.46
758.144	34.67
758.323	33.71
758.502	34.61
758.681	34.33
758.86	33.92
759.039	33.53
759.218	32.57
759.397	31.66
759.576	30.3
759.755	29.95
759.934	29.77
760.113	29.73
760.291	30.43
760.47	30.2
760.649	30.13
760.828	32.21
761.007	33.52
761.186	35.36
761.364	34.92
761.543	35.76
761.722	35.1
761.901	35.66
762.079	37.08
762.258	36.03
762.437	36.31
762.615	36.28
762.794	36.63
762.972	36.19
763.151	35.1
763.33	34.3
763.508	34.55
763.687	34.67
763.865	34.69
764.044	33.61
764.222	34.39
764.401	33.63
764.579	32.96
764.758	32.07
764.936	32.16
765.114	32.74
765.293	34.14
765.471	33.81
765.65	33.67
765.828	33.58
766.006	33.31
766.184	32.39
766.363	33.43
766.541	34.65
766.719	33.57
766.898	31.04
767.076	31.09
767.254	30.61
767.432	30.49
767.61	31.01
767.788	30.29
767.967	29.31
768.145	30.77
768.323	31.16
768.501	30.05
768.679	31.09
768.857	34.24
769.035	33.36
769.213	34.63
769.391	34.57
769.569	35.66
769.747	36.06
769.925	36.29
770.103	35.81
770.281	33.61
770.459	34.46
770.636	33.55
770.814	33.37
770.992	33.96
771.17	32.21
771.348	30.39
771.525	30.79
771.703	32.12
771.881	34.13
772.059	34.69
772.236	38.15
772.414	38.17
772.592	38.98
772.769	37.38
772.947	34.56
773.125	34.34
773.302	37.92
773.48	35.43
773.657	34.38
773.835	31.38
774.013	31.23
774.19	28.82
774.368	30.67
774.545	29.56
774.723	33.19
774.9	35.54
775.077	35.02
775.255	34.33
775.432	33.67
775.61	34.54
775.787	36.7
775.964	36.88
776.142	34.71
776.319	30.77
776.496	28.3
776.674	26
776.851	24.75
777.028	29.43
777.205	27.85
777.382	30.12
777.56	28.07
777.737	27.5
777.914	27.84
778.091	29.62
778.268	31.15
778.445	34.9
778.622	34.28
778.8	33.74
778.977	28.02
779.154	25.69
779.331	25.99
779.508	26.59
779.685	26.62
779.862	25.27
780.038	25.79
780.215	26.57
780.392	26.41
780.569	27.37
780.746	28.53
780.923	30.23
781.1	30.7
781.277	30.07
781.453	30.89
781.63	32.32
781.807	33.53
781.984	29.84
782.16	29.89
782.337	29.55
782.514	29.66
782.691	29.78
782.867	29.44
783.044	32.22
783.221	30.3
783.397	28.78
783.574	27.38
783.75	26.53
783.927	29.66
784.103	31.5
784.28	32.93
784.456	31.53
784.633	31.62
784.809	32.01
784.986	30.47
785.162	32.96
785.339	32.79
785.515	33.28
785.692	32.78
785.868	29.6
786.044	27.69
786.221	25.48
786.397	27.11
786.573	23.73
786.749	22.84
786.926	25.39
787.102	21.81
787.278	24.69
787.454	23.59
787.631	26.18
787.807	29.66
787.983	29.87
788.159	28.52
788.335	27.94
788.511	30.61
788.687	30.08
788.863	28.34
789.039	32.05
789.216	30.33
789.392	30.66
789.568	31.34
789.744	29.71
789.919	27.75
790.095	29.57
790.271	27.56
790.447	25.39
790.623	25.12
790.799	28.71
790.975	26.04
791.151	27.11
791.327	25.82
791.502	22.43
791.678	24.16
791.854	25.74
792.03	27.73
792.205	31.26
792.381	30.25
792.557	29.96
792.733	27.08
792.908	29.75
793.084	30.69
793.259	32.56
793.435	33.95
793.611	35.13
793.786	32.69
793.962	32.16
794.137	31.05
794.313	31.87
794.488	34.63
794.664	34.78
794.839	30.87
795.015	31.99
795.19	32.31
795.366	29.24
795.541	27.06
795.716	32.57
795.892	32.04
796.067	32.02
796.242	33.91
796.418	34.61
796.593	30.76
796.768	30.44
796.944	28.01
797.119	26.98
797.294	29.15
797.469	29.07
797.644	30.16
797.82	30.4
797.995	32.42
798.17	35.54
798.345	34.97
798.52	37.41
798.695	40.68
798.87	40.78
799.045	40.47
799.22	40.34
799.395	42.78
799.57	40.27
799.745	38.4
799.92	35.64
800.095	31.02
800.27	30.58
800.445	33.11
800.62	31.75
800.795	30.84
800.97	32.8
801.145	27.59
801.319	25.02
801.494	22.81
801.669	27.17
801.844	29.79
802.018	30.09
802.193	30.08
802.368	30.97
802.543	23.04
802.717	24.08
802.892	25.11
803.067	25.83
803.241	26.92
803.416	28.88
803.59	25.71
803.765	22.55
803.94	25.48
804.114	23.98
804.289	21.17
804.463	25.77
804.638	26.55
804.812	24.48
804.986	29.33
805.161	31.19
805.335	33.86
805.51	32.2
805.684	30.52
805.858	29.64
806.033	24.41
806.207	25.98
806.381	29.42
806.556	28.22
806.73	28.88
806.904	27.54
807.078	27.22
807.253	19.76
807.427	18.72
807.601	21.6
807.775	17.57
807.949	19.8
808.123	18.45
808.298	14
808.472	15.04
808.646	13.95
808.82	14.31
808.994	7.14
809.168	8.41
809.342	11.72
809.516	13.74
809.69	17.31
809.864	24.03
810.038	20.87
810.212	26.3
810.385	23.28
810.559	24.09
810.733	23.15
810.907	26.82
811.081	29.52
811.255	29.24
811.428	29.72
811.602	27.43
811.776	23.3
811.95	21.08
812.123	15.63
812.297	16.58
812.471	15.87
812.644	20.27
812.818	19.32
812.992	14.03
813.165	17.84
813.339	16.26
813.512	20.65
813.686	20.94
813.86	26.79
814.033	29.9
814.207	30.15
814.38	29.05
814.554	23.74
814.727	28.78
814.9	30.86
815.074	31.28
815.247	34.89
815.421	35.74
815.594	38.25
815.767	40.43
815.941	43.28
816.114	43.74
816.287	43.55
816.46	42.62
816.634	40.48
816.807	40.9
816.98	38.34
817.153	33.54
817.327	31.28
817.5	32.47
817.673	33.45
817.846	30.63
818.019	32.28
818.192	29.71
818.365	36.47
818.538	33.62
818.711	31.41
818.884	32.75
819.057	31.33
819.23	35.13
819.403	36.59
819.576	32.22
819.749	31.45
819.922	34.28
820.095	40.63
820.268	36.18
820.441	34.94
820.614	35.99
820.786	36.01
820.959	38.06
821.132	34.83
821.305	34.58
821.477	36.17
821.65	36.97
821.823	35.22
821.996	33.86
822.168	34.55
822.341	35.4
822.514	35.93
822.686	35.97
822.859	35.99
823.031	36.8
823.204	36.29
823.376	36.27
823.549	36.69
823.722	37.02
823.894	37.43
824.067	37.77
824.239	38.41
824.411	38.26
824.584	38.04
824.756	37.26
824.929	36.92
825.101	37.79
825.273	37.79
825.446	36.95
825.618	37.26
825.79	36.67
825.963	36.18
826.135	34.42
826.307	35.12
826.479	35.93
826.652	36.67
826.824	36.35
826.996	35.97
827.168	34.77
827.34	34.41
827.512	33.93
827.684	35.38
827.856	35.62
828.029	35.48
828.201	33.62
828.373	33.29
828.545	34.41
828.717	34.03
828.889	34.27
829.061	33.53
829.232	34.52
829.404	34.79
829.576	32.99
829.748	31.82
829.92	33.6
830.092	35.03
830.264	33.76
830.436	32.74
830.607	32.45
830.779	32.16
830.951	36.12
831.123	34.52
831.294	33.81
831.466	29.49
831.638	27.83
831.809	28.31
831.981	28.26
832.153	24.9
832.324	27.49
832.496	31.93
832.667	28.32
832.839	22.05
833.011	26.92
833.182	25.6
833.354	30.95
833.525	33.74
833.697	29.2
833.868	28.11
834.039	33.84
834.211	30.32
834.382	28.21
834.554	28.8
834.725	29.58
834.896	25.52
835.068	25.43
835.239	26.07
835.41	23.87
835.581	25.2
835.753	23.57
835.924	18.76
836.095	19.57
836.266	15.92
836.438	17.83
836.609	19.01
836.78	21.39
836.951	22.07
837.122	17.98
837.293	18.87
837.464	22.22
837.635	25.48
837.806	23.3
837.977	19.3
838.148	26.45
838.319	31.15
838.49	30.54
838.661	30.8
838.832	35.46
839.003	40.29
839.174	41.85
839.345	36.43
839.516	41.09
839.687	49.15
839.857	50.64
840.028	45.87
840.199	33.49
840.37	31.74
840.54	34.25
840.711	24.48
840.882	24.94
841.053	18.71
841.223	16.36
841.394	13.17
841.564	11.7
841.735	12.16
841.906	7.8
842.076	5.5
842.247	4.34
842.417	-1.04
842.588	-0.6
842.758	-5.94
842.929	2.91
843.099	4.39
843.27	0.29
843.44	-4.54
843.611	-3.74
843.781	-1.41
843.951	2.75
844.122	8.98
844.292	6.93
844.462	10.86
844.633	21.99
844.803	4.03
844.973	-10.02
845.144	-36.88
845.314	-14.45
845.484	-23.46
845.654	-25.3
845.824	-56.39
845.995	-57.8
846.165	-35.95
846.335	-75.39
846.505	-159.78
846.675	-72.55
846.845	-70.79
847.015	-59.94
847.185	-66.69
847.355	-66.29
847.525	-75.46
847.695	-41.03
847.865	-130.42
848.035	-210
848.205	-130.15
848.375	-68.47
848.545	-111.05
848.715	-59.26
848.884	-19.46
849.054	-28.72
849.224	-35.85
849.394	-57.71
849.564	2.79
849.733	43.89
849.903	42.53
850.073	35.98
850.243	-37.33
850.412	-44.12
850.582	-53.9
850.752	-101.65
850.921	-179.85
851.091	-64.47
851.26	-48.38
851.43	-71.73
851.599	-63.26
851.769	-12.98
851.939	14.24
852.108	11.69
852.278	31.79
852.447	38.84
852.616	101.37
852.786	150.89
852.955	57.2
853.125	30.47
853.294	14.65
853.463	-28.64
853.633	-74.99
853.802	-41.38
853.971	5.99
854.141	25.82
854.31	34.8
854.479	37.69
854.648	23.51
854.818	31.64
854.987	50.78
855.156	46.82
855.325	53.29
855.494	58.99
855.663	51.76
855.832	58.47
856.001	32.04
856.171	16.9
856.34	15.78
856.509	33.74
856.678	43.59
856.847	14.39
857.016	26.02
857.185	9.32
857.353	24.28
857.522	34.39
857.691	18.35
857.86	40.65
858.029	39.81
858.198	31.54
858.367	30.21
858.535	1.06
858.704	16.9
858.873	47.45
859.042	46.55
859.21	6.2
859.379	33.22
859.548	21.12
859.717	-34.4
859.885	-75.69
860.054	-101.64
860.222	27.32
860.391	70.31
860.56	10.14
860.728	-23.3
860.897	-12.33
861.065	29.17
861.234	22.51
861.402	13.6
861.571	38.29
861.739	31.41
861.908	46.84
862.076	49.88
862.244	36.69
862.413	36.42
862.581	33.1
862.749	4.56
862.918	-5.07
863.086	-12.43
863.254	22.87
863.423	10.22
863.591	32.42
863.759	3.06
863.927	-21.33
864.096	-22.22
864.264	-22.12
864.432	-15.57
864.6	37.13
864.768	19.62
864.936	21.15
865.104	27.31
865.272	-6.7
865.44	-5.75
865.608	17.8
865.776	26.1
865.944	24.68
866.112	19.74
866.28	32.68
866.448	18.13
866.616	34.08
866.784	29.46
866.952	28.75
867.12	55.41
867.288	31.51
867.455	-127.6
867.623	-18.26
867.791	223.85
867.959	209.29
868.127	128.07
868.294	178.71
868.462	258.17
868.63	195.23
868.797	731.27
868.965	12120.34
869.133	-626.53
869.3	-224.28
869.468	-356.45
869.636	-136.71
869.803	-476.61
869.971	-242.12
870.138	-63.71
870.306	32.91
870.473	15.65
870.641	38.98
870.808	57.12
870.975	2.18
871.143	-35.73
871.31	-5.33
871.478	2
871.645	25.9
871.812	23.1
871.98	44.85
872.147	41.24
872.314	45.98
872.482	45.54
872.649	60.75
872.816	61.48
872.983	48.74
873.15	36.37
873.318	33.01
873.485	7.34
873.652	4.01
873.819	-19.49
873.986	-14.67
874.153	-5.8
874.32	-8.77
874.487	-35.95
874.654	-61.26
874.821	-65.7
874.988	-43.18
875.155	-10.34
875.322	-23.11
875.489	11.87
875.656	22.03
875.823	16.84
875.99	33.71
876.157	22.57
876.324	32.57
876.49	44.04
876.657	35.65
876.824	48.76
876.991	32.86
877.157	36.73
877.324	31.76
877.491	26.5
877.658	10.5
877.824	11.11
877.991	31.91
878.157	32.01
878.324	52.78
878.491	81.52
878.657	71.83
878.824	106.87
878.99	137.31
879.157	122.29
879.323	145.73
879.49	107.93
879.656	133.84
879.823	103.04
879.989	69.87
880.156	51.36
880.322	47.16
880.488	37.71
880.655	15.46
880.821	21.84
880.987	32.96
881.154	30.7
881.32	26.89
881.486	19.01
881.652	26.31
881.819	23.48
881.985	29.94
882.151	28.74
882.317	29.26
882.483	30.19
882.649	31.62
882.816	29.27
882.982	25.91
883.148	27.33
883.314	29.9
883.48	29.86
883.646	29.29
883.812	27.76
883.978	28.37
884.144	31.11
884.31	27.31
884.476	25.63
884.642	24.26
884.807	24
884.973	25.96
885.139	24.6
885.305	24.95
885.471	29.3
885.637	27.23
885.802	23.31
885.968	18.4
886.134	25.58
886.3	20.78
886.465	24.91
886.631	27.38
886.797	17.86
886.962	15.93
887.128	12.81
887.293	10.89
887.459	17.67
887.625	18.55
887.79	10.91
887.956	9.44
888.121	16.56
888.287	11.59
888.452	16.36
888.618	43.16
888.783	48.18
