Data from 2937863_Reflection_1.txt Node
Date: Wed Jul 15 15:18:38 EDT 2015
User: robert
Spectrometer: USB4E03001
Autoset integration time: false
Trigger mode: 4
Integration Time (sec): 1.000000E-1
Scans to average: 10
Electric dark correction enabled: true
Nonlinearity correction enabled: false
Boxcar width: 5
Stray light correction enabled: false
XAxis mode: Wavelengths
Stop averaging: false
Number of Pixels in Spectrum: 3648
>>>>>Begin Spectral Data<<<<<
177.566	60.37
177.785	15.75
178.005	507.77
178.225	-119.44
178.445	172.73
178.665	16.32
178.885	78.88
179.105	85.79
179.324	77.51
179.544	69.51
179.764	55.21
179.984	7.09
180.204	-12.08
180.423	-170.31
180.643	-444.22
180.863	-797.73
181.083	-81.7
181.302	-15.85
181.522	6.04
181.742	-73.2
181.961	-56.56
182.181	-131.62
182.401	-71.02
182.621	-65.94
182.84	-64.37
183.06	-50.18
183.279	-74.25
183.499	-67.12
183.719	-112.32
183.938	-211.07
184.158	-143.87
184.377	-113.09
184.597	-52.47
184.816	-49.97
185.036	-58.3
185.256	-80.79
185.475	-24.64
185.695	21.48
185.914	8.18
186.134	-26.29
186.353	-68.56
186.572	-30.67
186.792	-84.05
187.011	316.81
187.231	1115.75
187.45	-52.96
187.67	11.93
187.889	6.75
188.108	-68.13
188.328	-156.01
188.547	-38.68
188.766	-9.9
188.986	-47.49
189.205	-27.42
189.424	11.5
189.644	24.39
189.863	-1.66
190.082	-21.43
190.302	-49.72
190.521	0.61
190.74	-14.06
190.959	-4.75
191.178	1.11
191.398	48.2
191.617	57.76
191.836	21.72
192.055	-38.57
192.274	34.55
192.494	359.07
192.713	183.54
192.932	76.5
193.151	87.44
193.37	-180.87
193.589	-141.91
193.808	105.53
194.027	-137.25
194.246	-144.38
194.465	49.58
194.685	-2.71
194.904	-35.46
195.123	-133.92
195.342	-18.16
195.561	-344.01
195.78	-101.49
195.999	-3.33
196.218	-8.9
196.436	948.68
196.655	170.39
196.874	239.43
197.093	243.43
197.312	325.55
197.531	269.3
197.75	174
197.969	200.84
198.188	101.83
198.407	111.24
198.625	134.6
198.844	93.87
199.063	116.3
199.282	6590
199.501	97.07
199.719	33.61
199.938	84.7
200.157	142.75
200.376	105.63
200.594	138.16
200.813	172.53
201.032	123.61
201.251	100.91
201.469	55.09
201.688	36.91
201.907	34.45
202.125	29.26
202.344	27.25
202.563	19.82
202.781	-5.33
203	-18.82
203.218	-25.64
203.437	-52.95
203.656	-32.91
203.874	-4.49
204.093	-6.92
204.311	-19.57
204.53	-10.3
204.748	-50.78
204.967	-30.23
205.185	-8.52
205.404	19.26
205.622	-15.79
205.841	35.34
206.059	10.55
206.278	-33.14
206.496	45.52
206.715	174.77
206.933	135.23
207.151	248.27
207.37	616.35
207.588	395.93
207.806	-998.48
208.025	28026.32
208.243	877.13
208.461	-178.78
208.68	-109.58
208.898	-72.94
209.116	-142.73
209.335	-33.54
209.553	3.24
209.771	-8.84
209.989	17.14
210.208	21.04
210.426	30.9
210.644	54.42
210.862	57.61
211.081	35.06
211.299	49.32
211.517	71.26
211.735	85.19
211.953	54.78
212.171	82.19
212.39	62.06
212.608	94.58
212.826	74.5
213.044	10.21
213.262	-62.7
213.48	-68.97
213.698	-47.84
213.916	-132.91
214.134	17.71
214.352	17.32
214.57	6.4
214.788	33.17
215.006	12.85
215.224	-40.89
215.442	-55.26
215.66	-51.6
215.878	-56.02
216.096	-144.53
216.314	-104.63
216.532	-89.29
216.75	-75.15
216.968	-117.31
217.185	-80.87
217.403	-93.82
217.621	-10.96
217.839	-4.62
218.057	4.65
218.275	-16.97
218.492	2.13
218.71	3.24
218.928	7.07
219.146	15.64
219.363	20.51
219.581	26.61
219.799	43.69
220.017	-1.96
220.234	-12.59
220.452	-4.29
220.67	1.04
220.887	4.31
221.105	3.09
221.323	4.06
221.54	-10.4
221.758	-13.89
221.976	-50.51
222.193	-36.46
222.411	-16.75
222.629	-8.98
222.846	-14.85
223.064	-8.76
223.281	-21.5
223.499	-30.29
223.716	-12.4
223.934	-1.04
224.151	-45.11
224.369	-42.85
224.586	-20.42
224.804	-98.26
225.021	-63.58
225.239	-68.8
225.456	-12.22
225.674	10.48
225.891	30.72
226.108	22.19
226.326	17.51
226.543	32.67
226.76	40.33
226.978	21.53
227.195	12.92
227.413	15.39
227.63	20.65
227.847	16.67
228.064	11.27
228.282	6.07
228.499	0.71
228.716	3.05
228.934	4.71
229.151	5
229.368	7.5
229.585	12.14
229.802	9.02
230.02	6.6
230.237	6.1
230.454	7.59
230.671	10.47
230.888	12.57
231.105	11.56
231.323	12.14
231.54	13.78
231.757	13.56
231.974	15.73
232.191	18.64
232.408	19.26
232.625	18.36
232.842	15.66
233.059	17.21
233.276	21.73
233.493	18.54
233.71	12.49
233.927	9.93
234.144	11.96
234.361	4.9
234.578	4.57
234.795	6.18
235.012	10.84
235.229	15.85
235.446	14.35
235.663	13.62
235.879	16.2
236.096	19.63
236.313	19.03
236.53	15.09
236.747	14.18
236.964	16.67
237.181	17.56
237.397	10.07
237.614	9.08
237.831	13.18
238.048	13.44
238.264	19.08
238.481	16.32
238.698	12.3
238.915	12.08
239.131	12.65
239.348	8.17
239.565	9.58
239.781	16.31
239.998	16.04
240.215	12.86
240.431	8.41
240.648	6.93
240.865	8.33
241.081	12.05
241.298	14.4
241.514	16.5
241.731	16.4
241.947	18.13
242.164	17.03
242.38	17.06
242.597	17.86
242.814	19.08
243.03	22.03
243.246	23.24
243.463	23.39
243.679	24.96
243.896	25.06
244.112	25.58
244.329	22.43
244.545	21.69
244.762	21.01
244.978	21.18
245.194	20.39
245.411	17.72
245.627	17
245.843	15.59
246.06	13.1
246.276	12.39
246.492	14.34
246.709	14.93
246.925	14.42
247.141	13.9
247.357	12.84
247.574	12.85
247.79	12.6
248.006	13.12
248.222	12.67
248.439	12.12
248.655	12.06
248.871	11.38
249.087	11.19
249.303	11.17
249.519	11.46
249.736	11.28
249.952	11.48
250.168	8.83
250.384	6.36
250.6	6.53
250.816	9.94
251.032	7.7
251.248	7.67
251.464	8.07
251.68	8.37
251.896	8.55
252.112	10.54
252.328	8.69
252.544	10.33
252.76	8.11
252.976	9.45
253.192	7.68
253.408	8.24
253.624	5.47
253.84	6.11
254.056	7.6
254.272	7.77
254.487	5.35
254.703	11.59
254.919	13.39
255.135	17.82
255.351	16.72
255.567	19.11
255.782	17.8
255.998	21.26
256.214	17.99
256.43	13.58
256.646	12.55
256.861	13.18
257.077	9.99
257.293	6.2
257.508	5.82
257.724	3.76
257.94	3.15
258.155	4.99
258.371	4.97
258.587	5.71
258.802	6.54
259.018	7
259.234	6.42
259.449	5.91
259.665	7.89
259.88	8.53
260.096	9.31
260.312	9.15
260.527	9.67
260.743	9.08
260.958	9.59
261.174	9.15
261.389	9
261.605	8.94
261.82	9.72
262.036	8.7
262.251	7.09
262.466	7.09
262.682	6.46
262.897	5.78
263.113	5.64
263.328	4.98
263.543	9.12
263.759	8.43
263.974	7.65
264.189	8.87
264.405	8.54
264.62	9.77
264.835	10.25
265.051	9.89
265.266	10.79
265.481	10.5
265.696	9.78
265.912	7.65
266.127	8.03
266.342	11.67
266.557	11.24
266.773	12.28
266.988	12.93
267.203	12.48
267.418	12.91
267.633	12.38
267.848	12.93
268.064	14.04
268.279	14.49
268.494	14.76
268.709	13.82
268.924	14.14
269.139	13.96
269.354	12.58
269.569	12.59
269.784	13.3
269.999	12.53
270.214	10.94
270.429	11.11
270.644	11.33
270.859	12.02
271.074	11.97
271.289	10.5
271.504	10.41
271.719	10.08
271.934	10.37
272.149	9.11
272.363	9.18
272.578	10.1
272.793	9.03
273.008	8.83
273.223	7.85
273.438	7.51
273.653	7.1
273.867	6.24
274.082	7.19
274.297	6.85
274.512	7.51
274.726	7.42
274.941	8.08
275.156	7.2
275.371	5.95
275.585	5.94
275.8	4.77
276.015	4.55
276.229	6.06
276.444	5.76
276.659	4.58
276.873	4.22
277.088	5.98
277.302	5.52
277.517	6.69
277.732	6.93
277.946	9.82
278.161	9.87
278.375	11.59
278.59	10.97
278.804	11.76
279.019	11.12
279.233	11.63
279.448	9.38
279.662	9.44
279.877	9.99
280.091	11.34
280.306	9.18
280.52	11.79
280.735	11.24
280.949	10.54
281.163	9.43
281.378	11.29
281.592	10.87
281.806	12.74
282.021	12.98
282.235	13.37
282.449	12.71
282.664	13.39
282.878	13.51
283.092	14.2
283.307	16.06
283.521	15.69
283.735	14.38
283.949	14.73
284.164	14.45
284.378	13.97
284.592	13.11
284.806	12.26
285.02	11.27
285.234	11.01
285.449	10.35
285.663	10.74
285.877	12.39
286.091	13.26
286.305	12.07
286.519	11.58
286.733	12.08
286.947	12.04
287.161	14.09
287.375	15.24
287.589	14.67
287.803	13.55
288.017	11.45
288.231	10.93
288.445	10.82
288.659	13.26
288.873	15.47
289.087	14.43
289.301	15.5
289.515	12.65
289.729	9.93
289.943	9.78
290.157	10.41
290.371	9.95
290.584	10.59
290.798	9.56
291.012	8.11
291.226	6.23
291.44	5.99
291.654	5.32
291.867	7.89
292.081	11.07
292.295	10.5
292.509	9.83
292.722	10.9
292.936	9.71
293.15	10.63
293.364	9.59
293.577	8.07
293.791	8.56
294.005	9.72
294.218	8.82
294.432	8.47
294.645	8.87
294.859	11.6
295.073	12.19
295.286	12.01
295.5	12.01
295.713	12.38
295.927	13.06
296.14	13.25
296.354	12.76
296.568	12.45
296.781	11.07
296.994	11.72
297.208	10.36
297.421	9.64
297.635	9.96
297.848	10.15
298.062	11.38
298.275	11.42
298.489	11.74
298.702	11.54
298.915	12.07
299.129	13.01
299.342	12.08
299.555	12.88
299.769	13.28
299.982	14.5
300.195	14.07
300.409	14.06
300.622	15.24
300.835	15.22
301.048	15.94
301.262	15.95
301.475	15.3
301.688	16.04
301.901	16.19
302.115	16.77
302.328	15.74
302.541	15.99
302.754	14.87
302.967	14.91
303.18	14.88
303.393	13.75
303.607	13.26
303.82	14.66
304.033	14.19
304.246	14.2
304.459	12.07
304.672	12.08
304.885	11.73
305.098	12.65
305.311	11.28
305.524	11.76
305.737	11.19
305.95	9.97
306.163	8.26
306.376	8.48
306.589	6.62
306.802	8.39
307.015	9.18
307.228	10.65
307.44	11.51
307.653	11.2
307.866	9.85
308.079	11.47
308.292	12.54
308.505	14.05
308.718	14.72
308.93	14.78
309.143	15.28
309.356	15.17
309.569	14.39
309.781	12.43
309.994	12.33
310.207	14.4
310.42	13.42
310.632	13.18
310.845	13
311.058	11.57
311.27	13.03
311.483	12.96
311.696	11.37
311.908	10.94
312.121	11.01
312.333	11.59
312.546	9.3
312.759	8.46
312.971	8.56
313.184	9.36
313.396	10.37
313.609	9.08
313.821	9.56
314.034	11.39
314.246	13.3
314.459	13.84
314.671	13.4
314.884	13.07
315.096	14.85
315.309	14.62
315.521	12.7
315.733	12.09
315.946	11.68
316.158	10.75
316.371	10.78
316.583	8.6
316.795	8.73
317.008	8.72
317.22	9.92
317.432	9.41
317.644	9.54
317.857	9.82
318.069	10.31
318.281	11.03
318.494	11
318.706	8.49
318.918	8.16
319.13	9.72
319.342	9.43
319.555	8.81
319.767	7.33
319.979	8.07
320.191	8.26
320.403	7.65
320.615	7.9
320.827	7.01
321.039	8.12
321.252	9.25
321.464	8.16
321.676	9.62
321.888	10.78
322.1	12.3
322.312	10.29
322.524	10.32
322.736	10.59
322.948	11.83
323.16	11.8
323.372	10.4
323.584	9.26
323.796	7.18
324.007	6.78
324.219	6.74
324.431	7.91
324.643	8.5
324.855	9.33
325.067	8.86
325.279	7.83
325.491	8.03
325.702	8.79
325.914	9.97
326.126	10.44
326.338	9.41
326.55	8.21
326.761	5.59
326.973	6.63
327.185	5
327.396	6.24
327.608	5.5
327.82	5.1
328.032	6.44
328.243	5.99
328.455	7.11
328.666	7.73
328.878	9.15
329.09	10.27
329.301	10.09
329.513	10.92
329.725	9.37
329.936	7.9
330.148	9.97
330.359	8.58
330.571	9.64
330.782	8.51
330.994	7.9
331.205	6.9
331.417	6.62
331.628	6.98
331.84	6.63
332.051	7.24
332.262	9.85
332.474	8.48
332.685	8.72
332.897	8.51
333.108	10.46
333.319	9.36
333.531	8.26
333.742	7.73
333.953	6.84
334.165	8.07
334.376	8.55
334.587	8.42
334.799	8.12
335.01	8.46
335.221	7.01
335.432	5.68
335.644	7.01
335.855	8.94
336.066	9.63
336.277	8.35
336.488	7.24
336.7	6.33
336.911	6.07
337.122	7.06
337.333	6.29
337.544	5.79
337.755	6.21
337.966	6.94
338.177	6.54
338.388	7.01
338.599	8.44
338.811	8.22
339.022	9.97
339.233	10.2
339.444	9.14
339.655	9.7
339.866	10.68
340.076	10.22
340.287	10.07
340.498	9.14
340.709	8.55
340.92	9.42
341.131	10.32
341.342	9.98
341.553	8.14
341.764	9.5
341.975	8.15
342.185	8.35
342.396	8.77
342.607	9.15
342.818	9.32
343.029	8.61
343.239	7.09
343.45	6.56
343.661	6.93
343.872	7.74
344.082	6.27
344.293	7.22
344.504	6.42
344.714	6.62
344.925	5.73
345.136	4.69
345.346	6.44
345.557	6.92
345.768	6.25
345.978	5.88
346.189	7.46
346.399	7.43
346.61	7.48
346.821	7.37
347.031	8.03
347.242	7.69
347.452	7.85
347.663	7.06
347.873	7.43
348.084	7.51
348.294	6.9
348.504	6.33
348.715	7.04
348.925	7.36
349.136	7.14
349.346	5.94
349.557	6.72
349.767	7.82
349.977	7.21
350.188	6.5
350.398	6.43
350.608	5.35
350.819	5.22
351.029	4.02
351.239	3.32
351.449	5.17
351.66	4.78
351.87	5.46
352.08	5.2
352.29	5.08
352.501	6.42
352.711	7.78
352.921	7.97
353.131	7.1
353.341	7.61
353.552	8.52
353.762	7.77
353.972	7.78
354.182	6.3
354.392	6.93
354.602	7.52
354.812	7.46
355.022	6.27
355.232	6.66
355.442	7.83
355.652	8.24
355.862	7.8
356.072	8.75
356.282	9.84
356.492	10.18
356.702	9.29
356.912	9.27
357.122	8.05
357.332	7.67
357.542	8.1
357.752	7.85
357.962	8.37
358.171	8.72
358.381	7.74
358.591	7.62
358.801	7.31
359.011	7.72
359.221	6.67
359.43	7.53
359.64	8.82
359.85	8.82
360.06	8.49
360.269	7.67
360.479	7.37
360.689	7.11
360.899	7.08
361.108	7.44
361.318	6.98
361.528	7.3
361.737	7.28
361.947	6.53
362.156	6.77
362.366	6.7
362.576	6.7
362.785	6.61
362.995	6.9
363.204	6.46
363.414	5.92
363.623	6.88
363.833	7.45
364.042	8.09
364.252	7.55
364.461	6.94
364.671	7.58
364.88	7.66
365.09	8.1
365.299	7.29
365.509	7.48
365.718	8.27
365.927	7.86
366.137	8.1
366.346	7.64
366.555	7.97
366.765	8.22
366.974	7.58
367.183	7.55
367.393	6.64
367.602	7
367.811	6.35
368.021	5.87
368.23	5.61
368.439	5.72
368.648	4.37
368.857	4.64
369.067	4.13
369.276	4.22
369.485	4.47
369.694	4.61
369.903	4.79
370.112	5.61
370.321	5.38
370.531	5.3
370.74	3.5
370.949	3.79
371.158	3.43
371.367	3.59
371.576	3.7
371.785	3.24
371.994	3.95
372.203	4.1
372.412	3.99
372.621	4.14
372.83	3.59
373.039	4.31
373.248	4.67
373.457	5.41
373.666	5.81
373.874	5.51
374.083	5.93
374.292	6.22
374.501	6.12
374.71	6.07
374.919	5.88
375.128	5.98
375.336	6.55
375.545	6.48
375.754	6.16
375.963	6.45
376.171	6.66
376.38	6.65
376.589	6.29
376.798	5.83
377.006	5.91
377.215	6.33
377.424	6.75
377.632	7.26
377.841	7.39
378.05	7.52
378.258	6.93
378.467	7.52
378.675	6.79
378.884	6.82
379.093	7.34
379.301	7.41
379.51	7.19
379.718	6.67
379.927	5.76
380.135	5.84
380.344	5.87
380.552	5.53
380.761	4.24
380.969	4.21
381.177	4.38
381.386	4.31
381.594	4.54
381.803	4.06
382.011	4.3
382.219	4.11
382.428	4.09
382.636	4
382.845	4.58
383.053	4.89
383.261	5.49
383.469	4.88
383.678	5.25
383.886	4.85
384.094	5.46
384.302	5.78
384.511	5.79
384.719	5.98
384.927	6.13
385.135	5.48
385.343	5.47
385.552	5.51
385.76	5.51
385.968	4.98
386.176	5.16
386.384	4.64
386.592	4.27
386.8	4.19
387.008	4.09
387.216	3.94
387.424	4.06
387.633	4.03
387.841	3.68
388.049	3.44
388.257	3.59
388.465	2.96
388.672	3.07
388.88	3.65
389.088	3.73
389.296	3.74
389.504	3.6
389.712	3.67
389.92	3.72
390.128	3.63
390.336	4.07
390.544	3.95
390.751	3.78
390.959	3.78
391.167	3.35
391.375	3.48
391.583	3
391.79	2.83
391.998	2.82
392.206	2.71
392.414	2.75
392.621	2.7
392.829	2.86
393.037	3.4
393.244	3.26
393.452	3.41
393.66	3.46
393.867	3.89
394.075	4.07
394.283	4.09
394.49	3.77
394.698	3.91
394.905	3.67
395.113	3.53
395.32	3.19
395.528	3.45
395.735	3.08
395.943	2.86
396.15	2.89
396.358	3.05
396.565	3.28
396.773	4.03
396.98	4.13
397.188	4.58
397.395	4.77
397.602	5.1
397.81	5.1
398.017	5.63
398.225	5.7
398.432	5.43
398.639	5.46
398.847	5.34
399.054	5.19
399.261	4.79
399.468	4.59
399.676	3.87
399.883	3.57
400.09	3.66
400.297	3.66
400.505	4.02
400.712	4.2
400.919	4.18
401.126	4.17
401.333	4.05
401.54	4.37
401.748	4.15
401.955	4.54
402.162	4.6
402.369	4.64
402.576	4.28
402.783	3.9
402.99	3.53
403.197	3.28
403.404	3.27
403.611	3.28
403.818	3.56
404.025	3.58
404.232	3.68
404.439	3.73
404.646	3.84
404.853	3.93
405.06	3.94
405.267	3.92
405.474	4.18
405.681	4.41
405.887	4.37
406.094	3.98
406.301	4.18
406.508	4.06
406.715	4.12
406.922	3.91
407.128	3.79
407.335	3.86
407.542	4.05
407.749	3.77
407.955	3.39
408.162	3.38
408.369	3.56
408.575	3.33
408.782	3.34
408.989	3.36
409.195	3.47
409.402	3.27
409.609	3.14
409.815	3.13
410.022	3.01
410.228	3.53
410.435	3.66
410.642	3.84
410.848	4.12
411.055	4.19
411.261	4.05
411.468	3.91
411.674	4.38
411.881	4.41
412.087	4.45
412.294	4.42
412.5	4.1
412.706	4
412.913	4.08
413.119	4
413.326	3.83
413.532	3.92
413.738	3.82
413.945	3.66
414.151	3.78
414.357	3.85
414.564	3.82
414.77	3.88
414.976	3.63
415.182	3.17
415.389	3.14
415.595	3.31
415.801	3.63
416.007	3.74
416.214	3.94
416.42	3.83
416.626	3.87
416.832	3.89
417.038	3.8
417.244	3.81
417.45	4.02
417.657	3.97
417.863	3.91
418.069	3.73
418.275	3.73
418.481	3.49
418.687	3.38
418.893	3.28
419.099	3.39
419.305	3.28
419.511	3.39
419.717	3.41
419.923	3.32
420.129	3.39
420.335	3.3
420.541	3.25
420.746	3.3
420.952	3.44
421.158	3.47
421.364	3.4
421.57	3.41
421.776	3.34
421.982	3.23
422.187	3.19
422.393	3.12
422.599	3.17
422.805	3.18
423.01	3.18
423.216	3.14
423.422	3.19
423.628	3.27
423.833	3.38
424.039	3.46
424.245	3.42
424.45	3.55
424.656	3.65
424.862	3.77
425.067	4.02
425.273	3.87
425.478	3.81
425.684	3.66
425.889	3.57
426.095	3.61
426.301	3.51
426.506	3.45
426.712	3.29
426.917	3.17
427.123	2.95
427.328	2.57
427.533	2.66
427.739	2.73
427.944	2.81
428.15	2.87
428.355	2.52
428.561	2.76
428.766	2.81
428.971	3.06
429.177	3.02
429.382	2.77
429.587	2.61
429.793	2.95
429.998	2.77
430.203	2.84
430.408	2.71
430.614	2.69
430.819	2.52
431.024	2.73
431.229	2.52
431.434	2.72
431.64	2.62
431.845	2.75
432.05	2.35
432.255	2.49
432.46	2.44
432.665	2.69
432.87	2.98
433.076	3.14
433.281	3.04
433.486	3.11
433.691	2.99
433.896	3.14
434.101	3.34
434.306	3.39
434.511	3.45
434.716	3.39
434.921	3.31
435.126	3.26
435.331	3.09
435.535	3.05
435.74	2.85
435.945	2.78
436.15	2.83
436.355	2.65
436.56	2.88
436.765	2.74
436.97	2.8
437.174	2.85
437.379	2.91
437.584	2.98
437.789	2.94
437.993	3.29
438.198	3.21
438.403	3.37
438.608	3.19
438.812	3.05
439.017	2.98
439.222	3.03
439.426	2.81
439.631	2.65
439.836	2.61
440.04	2.69
440.245	2.56
440.45	2.66
440.654	2.4
440.859	2.52
441.063	2.53
441.268	2.5
441.472	2.45
441.677	2.52
441.881	2.55
442.086	2.47
442.29	2.31
442.495	2.26
442.699	2.21
442.904	2.4
443.108	2.39
443.312	2.33
443.517	2.43
443.721	2.46
443.925	2.48
444.13	2.33
444.334	2.27
444.538	2.45
444.743	2.63
444.947	2.57
445.151	2.61
445.356	2.63
445.56	2.73
445.764	2.85
445.968	2.8
446.173	2.81
446.377	2.74
446.581	2.83
446.785	2.86
446.989	2.62
447.193	2.68
447.398	2.5
447.602	2.57
447.806	2.49
448.01	2.32
448.214	2.31
448.418	2.33
448.622	2.54
448.826	2.47
449.03	2.4
449.234	2.54
449.438	2.48
449.642	2.4
449.846	2.31
450.05	2.34
450.254	2.37
450.458	2.47
450.662	2.35
450.866	2.38
451.069	2.4
451.273	2.4
451.477	2.43
451.681	2.6
451.885	2.84
452.089	3
452.292	2.76
452.496	2.86
452.7	2.68
452.904	2.9
453.107	2.63
453.311	2.75
453.515	2.69
453.719	2.61
453.922	2.61
454.126	2.43
454.33	2.11
454.533	2.28
454.737	2.22
454.94	2.37
455.144	2.16
455.348	2.4
455.551	2.31
455.755	2.36
455.958	2.38
456.162	2.39
456.365	2.66
456.569	2.88
456.772	2.94
456.976	3.07
457.179	3
457.383	3.02
457.586	2.97
457.79	2.96
457.993	2.88
458.196	2.86
458.4	2.85
458.603	2.73
458.807	2.65
459.01	2.65
459.213	2.39
459.417	2.28
459.62	2.34
459.823	2.39
460.026	2.39
460.23	2.41
460.433	2.47
460.636	2.42
460.839	2.37
461.042	2.45
461.246	2.32
461.449	2.39
461.652	2.61
461.855	2.41
462.058	2.42
462.261	2.39
462.464	2.47
462.668	2.26
462.871	2.13
463.074	2.23
463.277	2.14
463.48	2.14
463.683	2.18
463.886	1.95
464.089	2.13
464.292	2.23
464.495	2.08
464.698	1.93
464.901	1.97
465.104	2.11
465.306	2.14
465.509	2
465.712	2.23
465.915	2.11
466.118	2.14
466.321	2.3
466.524	2.21
466.726	2.47
466.929	2.54
467.132	2.6
467.335	2.49
467.538	2.5
467.74	2.41
467.943	2.35
468.146	2.51
468.348	2.67
468.551	2.52
468.754	2.48
468.956	2.37
469.159	2.37
469.362	2.25
469.564	2.17
469.767	2.21
469.969	2.42
470.172	2.43
470.375	2.38
470.577	2.3
470.78	2.27
470.982	2.36
471.185	2.32
471.387	2.29
471.59	2.41
471.792	2.49
471.995	2.5
472.197	2.36
472.399	2.36
472.602	2.55
472.804	2.55
473.007	2.45
473.209	2.28
473.411	2.33
473.614	2.41
473.816	2.46
474.018	2.3
474.22	2.35
474.423	2.46
474.625	2.24
474.827	1.91
475.03	2.01
475.232	2.21
475.434	2.21
475.636	2.27
475.838	2.29
476.04	2.39
476.243	2.67
476.445	2.58
476.647	2.49
476.849	2.63
477.051	2.73
477.253	2.56
477.455	2.42
477.657	2.43
477.859	2.33
478.061	2.31
478.263	1.92
478.465	1.82
478.667	1.74
478.869	1.81
479.071	1.87
479.273	1.75
479.475	1.84
479.677	2.02
479.879	2.13
480.081	2.13
480.283	2
480.485	2.2
480.686	2.25
480.888	2.28
481.09	2.31
481.292	2.35
481.494	2.45
481.695	2.37
481.897	2.35
482.099	2.23
482.301	2.31
482.502	2.37
482.704	2.47
482.906	2.51
483.107	2.59
483.309	2.58
483.511	2.51
483.712	2.57
483.914	2.63
484.115	2.56
484.317	2.54
484.519	2.57
484.72	2.59
484.922	2.54
485.123	2.53
485.325	2.47
485.526	2.41
485.728	2.42
485.929	2.42
486.131	2.3
486.332	2.32
486.534	2.42
486.735	2.35
486.936	2.33
487.138	2.43
487.339	2.44
487.541	2.43
487.742	2.45
487.943	2.47
488.144	2.37
488.346	2.49
488.547	2.51
488.748	2.46
488.95	2.48
489.151	2.48
489.352	2.42
489.553	2.33
489.755	2.32
489.956	2.41
490.157	2.4
490.358	2.49
490.559	2.47
490.76	2.53
490.961	2.58
491.163	2.53
491.364	2.51
491.565	2.46
491.766	2.5
491.967	2.47
492.168	2.47
492.369	2.44
492.57	2.33
492.771	2.27
492.972	2.21
493.173	2.13
493.374	2.2
493.575	2.19
493.776	2.24
493.976	2.1
494.177	2.06
494.378	1.91
494.579	1.93
494.78	2.02
494.981	1.93
495.182	1.97
495.382	2.02
495.583	2
495.784	1.87
495.985	1.75
496.185	2
496.386	2.24
496.587	2.32
496.788	2.21
496.988	2.28
497.189	2.36
497.39	2.38
497.59	2.54
497.791	2.53
497.992	2.56
498.192	2.6
498.393	2.56
498.593	2.33
498.794	2.37
498.994	2.55
499.195	2.56
499.395	2.54
499.596	2.47
499.796	2.27
499.997	2.25
500.197	2.29
500.398	2.27
500.598	2.25
500.799	2.55
500.999	2.53
501.199	2.43
501.4	2.34
501.6	2.53
501.801	2.44
502.001	2.51
502.201	2.64
502.402	2.66
502.602	2.85
502.802	2.85
503.002	2.68
503.203	2.55
503.403	2.66
503.603	2.58
503.803	2.36
504.003	2.56
504.204	2.55
504.404	2.47
504.604	2.46
504.804	2.34
505.004	2.34
505.204	2.39
505.404	2.59
505.604	2.59
505.804	2.82
506.005	2.91
506.205	2.88
506.405	2.85
506.605	2.7
506.805	2.79
507.005	2.85
507.204	2.91
507.404	2.86
507.604	2.81
507.804	2.87
508.004	2.57
508.204	2.56
508.404	2.59
508.604	2.65
508.804	2.77
509.003	2.72
509.203	2.69
509.403	2.66
509.603	2.67
509.803	2.7
510.002	2.55
510.202	2.84
510.402	2.87
510.602	2.88
510.801	2.75
511.001	2.69
511.201	2.79
511.4	2.83
511.6	2.89
511.8	2.88
511.999	2.75
512.199	2.82
512.398	2.79
512.598	2.82
512.797	2.77
512.997	2.77
513.197	2.82
513.396	2.83
513.596	2.87
513.795	2.78
513.994	2.8
514.194	2.93
514.393	2.87
514.593	2.74
514.792	2.56
514.992	2.62
515.191	2.81
515.39	2.91
515.59	2.88
515.789	2.85
515.988	2.69
516.188	2.61
516.387	2.41
516.586	2.46
516.786	2.57
516.985	2.66
517.184	2.66
517.383	2.6
517.582	2.42
517.782	2.44
517.981	2.51
518.18	2.75
518.379	2.82
518.578	3.04
518.777	3.15
518.976	3.14
519.176	3.19
519.375	3.13
519.574	3.25
519.773	3.38
519.972	3.31
520.171	3.31
520.37	3.17
520.569	3.25
520.768	3.11
520.967	2.95
521.166	2.76
521.365	2.76
521.564	2.7
521.762	2.69
521.961	2.7
522.16	2.81
522.359	2.76
522.558	2.92
522.757	2.88
522.956	3.04
523.154	3.12
523.353	3.23
523.552	3.16
523.751	3.34
523.949	3.27
524.148	3.26
524.347	3.12
524.546	3.15
524.744	3.09
524.943	3.09
525.142	3.04
525.34	3.06
525.539	3.06
525.737	3.08
525.936	3.13
526.135	3.09
526.333	3.15
526.532	3.22
526.73	3.2
526.929	3.25
527.127	3.3
527.326	3.3
527.524	3.38
527.723	3.44
527.921	3.48
528.12	3.45
528.318	3.51
528.516	3.54
528.715	3.55
528.913	3.61
529.112	3.66
529.31	3.66
529.508	3.65
529.707	3.61
529.905	3.64
530.103	3.59
530.301	3.62
530.5	3.66
530.698	3.56
530.896	3.6
531.094	3.6
531.293	3.61
531.491	3.6
531.689	3.71
531.887	3.8
532.085	3.82
532.283	3.99
532.481	3.96
532.68	3.87
532.878	3.95
533.076	3.92
533.274	3.98
533.472	3.95
533.67	3.99
533.868	3.96
534.066	3.92
534.264	3.95
534.462	3.84
534.66	3.95
534.858	4.06
535.056	4.1
535.253	4.18
535.451	4.12
535.649	4.06
535.847	4.07
536.045	4.14
536.243	4.26
536.441	4.29
536.638	4.31
536.836	4.31
537.034	4.28
537.232	4.29
537.43	4.32
537.627	4.4
537.825	4.44
538.023	4.4
538.22	4.38
538.418	4.41
538.616	4.35
538.813	4.42
539.011	4.39
539.209	4.48
539.406	4.54
539.604	4.69
539.801	4.68
539.999	4.76
540.196	4.88
540.394	5.02
540.591	4.88
540.789	4.97
540.986	4.98
541.184	4.95
541.381	4.9
541.579	4.84
541.776	4.79
541.974	4.84
542.171	4.79
542.368	4.84
542.566	4.84
542.763	4.94
542.96	4.92
543.158	5.03
543.355	5.12
543.552	5.17
543.75	5.37
543.947	5.5
544.144	5.51
544.341	5.64
544.539	5.67
544.736	5.71
544.933	5.76
545.13	5.85
545.327	5.74
545.524	5.79
545.722	5.87
545.919	5.86
546.116	5.89
546.313	5.99
546.51	6.02
546.707	6.11
546.904	6.05
547.101	6.11
547.298	6.19
547.495	6.41
547.692	6.5
547.889	6.59
548.086	6.69
548.283	6.54
548.48	6.7
548.677	6.7
548.874	6.64
549.07	6.69
549.267	6.72
549.464	6.79
549.661	6.89
549.858	6.86
550.055	6.83
550.251	6.88
550.448	7.16
550.645	6.94
550.842	7.09
551.038	7.18
551.235	7.46
551.432	7.53
551.628	7.6
551.825	7.69
552.022	7.78
552.218	7.87
552.415	7.91
552.612	7.91
552.808	8
553.005	8.13
553.201	8.28
553.398	8.17
553.594	8.13
553.791	8.23
553.987	8.21
554.184	8.22
554.38	8.32
554.577	8.32
554.773	8.4
554.97	8.5
555.166	8.47
555.362	8.48
555.559	8.52
555.755	8.68
555.952	8.61
556.148	8.65
556.344	8.71
556.541	8.84
556.737	9.12
556.933	9.2
557.129	9.44
557.326	9.44
557.522	9.41
557.718	9.68
557.914	9.68
558.11	9.85
558.307	9.79
558.503	10
558.699	9.96
558.895	9.62
559.091	9.51
559.287	9.31
559.483	9.45
559.679	9.72
559.876	9.63
560.072	9.71
560.268	9.65
560.464	9.8
560.66	9.79
560.856	9.9
561.052	10.27
561.247	10.47
561.443	10.66
561.639	10.7
561.835	10.51
562.031	10.54
562.227	10.64
562.423	10.72
562.619	10.93
562.815	11.1
563.01	11.16
563.206	11.04
563.402	11.13
563.598	11.17
563.793	11.27
563.989	11.26
564.185	11.36
564.381	11.37
564.576	11.5
564.772	11.37
564.968	11.36
565.163	11.4
565.359	11.47
565.555	11.71
565.75	11.68
565.946	11.73
566.141	11.82
566.337	11.95
566.532	12.1
566.728	12.04
566.923	12.06
567.119	12.05
567.314	11.97
567.51	12.01
567.705	11.99
567.901	12.15
568.096	12.38
568.292	12.58
568.487	12.88
568.682	13.01
568.878	13.12
569.073	13.32
569.268	13.6
569.464	13.81
569.659	13.85
569.854	13.88
570.05	14.08
570.245	14.01
570.44	14.08
570.635	13.76
570.831	13.61
571.026	13.87
571.221	13.85
571.416	13.75
571.611	13.81
571.806	14.04
572.002	14.01
572.197	13.75
572.392	13.66
572.587	13.76
572.782	13.88
572.977	14.12
573.172	14.02
573.367	14.29
573.562	14.36
573.757	14.34
573.952	14.13
574.147	14.07
574.342	14.43
574.537	14.67
574.732	14.67
574.927	14.79
575.121	14.76
575.316	14.98
575.511	14.88
575.706	15
575.901	15.11
576.096	15.17
576.29	15.36
576.485	15.26
576.68	15.13
576.875	15.12
577.069	15.02
577.264	14.94
577.459	14.93
577.654	14.75
577.848	14.5
578.043	14.49
578.238	14.72
578.432	14.8
578.627	14.87
578.821	14.95
579.016	14.87
579.21	15.05
579.405	15.21
579.6	14.9
579.794	15.19
579.989	15.22
580.183	15.37
580.378	15.41
580.572	15.41
580.766	15.3
580.961	15.36
581.155	15.47
581.35	15.42
581.544	15.5
581.738	16.01
581.933	16.06
582.127	16.29
582.321	16.13
582.516	15.72
582.71	15.91
582.904	15.97
583.099	16
583.293	16.2
583.487	16.17
583.681	16.03
583.875	15.6
584.07	15.29
584.264	15.11
584.458	15.28
584.652	15.57
584.846	15.36
585.04	15.81
585.234	15.89
585.428	15.94
585.623	15.84
585.817	16.08
586.011	16.47
586.205	16.58
586.399	16.77
586.593	16.73
586.787	16.85
586.981	16.8
587.174	16.21
587.368	16.45
587.562	16.56
587.756	16.61
587.95	16.61
588.144	16.15
588.338	16.12
588.532	16.25
588.725	16.07
588.919	16.03
589.113	16.09
589.307	16.54
589.501	16.3
589.694	15.88
589.888	16.24
590.082	16.13
590.275	16.56
590.469	16.52
590.663	16.38
590.856	16.66
591.05	16.54
591.244	16.43
591.437	16.29
591.631	16.31
591.824	16.6
592.018	16.3
592.212	16.24
592.405	16.23
592.599	16.56
592.792	16.77
592.986	16.88
593.179	17
593.372	17.21
593.566	17.27
593.759	17.55
593.953	17.52
594.146	17.69
594.339	17.82
594.533	17.79
594.726	17.88
594.92	17.9
595.113	17.86
595.306	17.94
595.499	17.88
595.693	17.94
595.886	17.91
596.079	17.88
596.272	17.93
596.466	17.98
596.659	18.02
596.852	17.68
597.045	17.71
597.238	17.89
597.431	17.9
597.624	17.95
597.818	17.87
598.011	17.6
598.204	17.83
598.397	17.81
598.59	17.61
598.783	17.76
598.976	17.95
599.169	17.77
599.362	17.44
599.555	17.68
599.748	17.77
599.941	17.71
600.134	17.86
600.326	17.79
600.519	17.99
600.712	18.16
600.905	17.85
601.098	18.12
601.291	18.22
601.483	18.11
601.676	18.12
601.869	18.07
602.062	18.32
602.255	18.53
602.447	18.34
602.64	18.25
602.833	18.49
603.025	18.43
603.218	18.34
603.411	18.42
603.603	18.8
603.796	19.06
603.989	19.15
604.181	19.21
604.374	19.18
604.566	19.27
604.759	19.26
604.951	19.14
605.144	19.23
605.336	19.42
605.529	19.41
605.721	19.19
605.914	18.72
606.106	18.66
606.299	18.58
606.491	18.68
606.683	18.7
606.876	18.66
607.068	18.72
607.26	18.94
607.453	18.63
607.645	18.67
607.837	18.82
608.03	19.11
608.222	19.34
608.414	19.1
608.606	19.06
608.799	19.24
608.991	19.04
609.183	19.05
609.375	19.06
609.567	19.08
609.759	19.01
609.952	19.09
610.144	18.92
610.336	18.62
610.528	18.84
610.72	18.91
610.912	19
611.104	19.58
611.296	19.5
611.488	19.24
611.68	19.16
611.872	19.34
612.064	19.13
612.256	19.08
612.448	19.3
612.64	19.5
612.832	19.13
613.023	18.91
613.215	18.53
613.407	18.58
613.599	18.89
613.791	19.08
613.983	18.92
614.174	19.18
614.366	19.13
614.558	19.01
614.75	18.81
614.941	19.24
615.133	19.09
615.325	18.95
615.516	18.78
615.708	18.89
615.9	19.02
616.091	19.08
616.283	19.09
616.475	19.36
616.666	19.58
616.858	19.51
617.049	19.22
617.241	19.35
617.432	19.6
617.624	19.6
617.815	19.37
618.007	19.21
618.198	19.29
618.39	19.37
618.581	19.45
618.773	19.74
618.964	19.82
619.155	20.03
619.347	19.85
619.538	19.64
619.729	19.77
619.921	19.84
620.112	20.06
620.303	20.07
620.494	19.78
620.686	19.78
620.877	19.15
621.068	19.16
621.259	18.9
621.451	19.24
621.642	19.27
621.833	19.51
622.024	19.7
622.215	19.67
622.406	19.85
622.597	19.9
622.788	20.01
622.98	20.24
623.171	20.32
623.362	20.49
623.553	20.49
623.744	20.19
623.935	20.01
624.126	20.18
624.317	20.31
624.508	20.14
624.698	20.36
624.889	20.04
625.08	19.92
625.271	19.65
625.462	19.52
625.653	19.28
625.844	19.49
626.034	19.59
626.225	19.38
626.416	19.33
626.607	19.26
626.798	19.45
626.988	19.69
627.179	20.04
627.37	20.01
627.56	20.03
627.751	20.2
627.942	20.12
628.132	20.08
628.323	20.02
628.514	20.01
628.704	20.04
628.895	20.01
629.085	19.99
629.276	19.74
629.466	20.04
629.657	20.17
629.847	20.14
630.038	20.52
630.228	20.51
630.419	20.47
630.609	20.3
630.8	20.41
630.99	20.32
631.181	20.36
631.371	20.57
631.561	20.66
631.752	20.9
631.942	20.92
632.132	21.03
632.323	21.19
632.513	21.31
632.703	21.52
632.893	21.42
633.084	21.19
633.274	21.19
633.464	21.02
633.654	20.74
633.844	20.58
634.034	20.59
634.225	20.3
634.415	20.08
634.605	20.11
634.795	20.04
634.985	20.22
635.175	20.62
635.365	20.47
635.555	20.79
635.745	20.97
635.935	20.6
636.125	20.47
636.315	20.29
636.505	20.47
636.695	20.43
636.885	20.44
637.075	20.51
637.265	20.46
637.455	20.49
637.644	19.68
637.834	19.41
638.024	19.78
638.214	19.97
638.404	19.89
638.593	19.96
638.783	20.23
638.973	20.15
639.163	19.77
639.352	19.44
639.542	19.7
639.732	20.12
639.921	20.22
640.111	20.31
640.301	20.3
640.49	20.8
640.68	20.73
640.87	20.45
641.059	20.51
641.249	21.2
641.438	20.98
641.628	20.98
641.817	21.16
642.007	21.37
642.196	21.3
642.386	20.92
642.575	20.91
642.764	20.86
642.954	21.05
643.143	21.15
643.333	20.75
643.522	21.33
643.711	21.34
643.901	21.28
644.09	21.03
644.279	20.86
644.469	21.35
644.658	21.05
644.847	21.11
645.036	21.03
645.226	21.08
645.415	21.21
645.604	21
645.793	20.92
645.982	21.1
646.171	21.38
646.361	21.51
646.55	21.13
646.739	21.07
646.928	21.03
647.117	21.08
647.306	21.07
647.495	21.03
647.684	20.69
647.873	20.87
648.062	20.73
648.251	20.44
648.44	20.72
648.629	20.81
648.818	21.37
649.007	20.97
649.196	20.57
649.384	20.82
649.573	20.5
649.762	20.69
649.951	20.39
650.14	20.54
650.328	20.5
650.517	20.01
650.706	20.22
650.895	19.95
651.083	20.59
651.272	20.96
651.461	20.54
651.65	20.75
651.838	20.52
652.027	20.63
652.216	20.67
652.404	20.73
652.593	20.64
652.781	20.51
652.97	20.25
653.158	20.26
653.347	20.14
653.535	20.13
653.724	20.29
653.912	20.42
654.101	20.57
654.289	20.38
654.478	20.57
654.666	21.32
654.855	21.49
655.043	21.53
655.231	21.35
655.42	21.46
655.608	21.89
655.796	21.91
655.985	21.94
656.173	21.86
656.361	21.97
656.55	21.63
656.738	21.4
656.926	21.47
657.114	21.73
657.302	21.39
657.491	20.94
657.679	20.8
657.867	20.44
658.055	20.53
658.243	20.2
658.431	20.26
658.619	20.39
658.807	20.66
658.996	20.79
659.184	21.01
659.372	21.06
659.56	21.09
659.748	21.02
659.936	21.26
660.124	21.41
660.311	21.94
660.499	21.63
660.687	21.86
660.875	21.55
661.063	21.04
661.251	21.24
661.439	21.61
661.627	21.71
661.814	21.81
662.002	21.66
662.19	21.19
662.378	20.92
662.565	20.82
662.753	20.94
662.941	20.96
663.129	20.8
663.316	20.52
663.504	20.83
663.692	20.95
663.879	21.25
664.067	21.12
664.254	20.95
664.442	20.74
664.63	20.95
664.817	20.54
665.005	20.62
665.192	21.02
665.38	21.32
665.567	20.98
665.755	21.29
665.942	20.72
666.13	21.02
666.317	21.29
666.504	21.31
666.692	21.13
666.879	21.08
667.067	20.65
667.254	20.68
667.441	19.66
667.629	18.79
667.816	18.59
668.003	19
668.19	19.28
668.378	19.41
668.565	20.01
668.752	20.61
668.939	21.19
669.127	21.49
669.314	21.58
669.501	22.1
669.688	22.33
669.875	22.19
670.062	21.87
670.249	21.01
670.436	20.94
670.623	20.28
670.81	20.18
670.997	19.81
671.184	20.01
671.371	20.54
671.558	20.66
671.745	21.14
671.932	21.29
672.119	21.63
672.306	22.21
672.493	22.26
672.68	22.52
672.867	22.19
673.054	22.57
673.24	21.94
673.427	21.45
673.614	21.07
673.801	20.7
673.988	21.15
674.174	20.75
674.361	21.18
674.548	21.45
674.734	21.28
674.921	21.47
675.108	21.64
675.294	21.56
675.481	21.27
675.668	21.22
675.854	21.66
676.041	21.24
676.227	21.55
676.414	21.27
676.601	21.43
676.787	21.49
676.974	21.13
677.16	20.57
677.347	21.31
677.533	21.79
677.719	21.82
677.906	21.87
678.092	21.99
678.279	21.86
678.465	21.57
678.651	21.47
678.838	21.4
679.024	21.6
679.21	21.55
679.397	21.47
679.583	21.48
679.769	21.67
679.955	21.6
680.142	21.75
680.328	22.09
680.514	22.22
680.7	21.93
680.886	21.89
681.073	22.32
681.259	22.73
681.445	22.9
681.631	22.78
681.817	22.6
682.003	22.81
682.189	22.77
682.375	22.68
682.561	22.29
682.747	22.41
682.933	22.53
683.119	22.04
683.305	21.37
683.491	20.8
683.677	20.65
683.863	20.66
684.049	20.35
684.235	20.26
684.42	20.02
684.606	20.87
684.792	21.16
684.978	21.36
685.164	21.63
685.349	21.58
685.535	22.13
685.721	22.16
685.907	22.54
686.092	22.45
686.278	22.34
686.464	22.34
686.649	21.77
686.835	21.35
687.021	21.62
687.206	21.68
687.392	21.99
687.577	21.88
687.763	22.12
687.948	22.68
688.134	22.33
688.319	22.49
688.505	22.26
688.69	22.66
688.876	23.18
689.061	23.09
689.247	23.09
689.432	23.16
689.618	23.19
689.803	22.9
689.988	22.24
690.174	22.89
690.359	23.01
690.544	23.53
690.73	23.45
690.915	23.63
691.1	23.07
691.285	23.03
691.471	22.76
691.656	22.28
691.841	22.27
692.026	22.29
692.211	22.33
692.396	22.42
692.582	22.6
692.767	23.17
692.952	22.75
693.137	22.78
693.322	23.06
693.507	23.18
693.692	23.97
693.877	23.68
694.062	23.5
694.247	22.87
694.432	22.42
694.617	21.26
694.802	20.56
694.987	20.33
695.172	20.75
695.357	20.52
695.541	20.1
695.726	19.87
695.911	20.62
696.096	20.54
696.281	21.39
696.466	21.51
696.65	22.07
696.835	21.99
697.02	22.3
697.204	22.67
697.389	22.35
697.574	23.03
697.759	23.18
697.943	23
698.128	22.8
698.312	22.58
698.497	22.48
698.682	22.37
698.866	22.8
699.051	22.96
699.235	22.36
699.42	22.48
699.604	22.21
699.789	22.07
699.973	21.58
700.158	21.9
700.342	22.11
700.527	22.44
700.711	22.65
700.895	21.87
701.08	21.46
701.264	21.61
701.448	22.11
701.633	22.45
701.817	22.63
702.001	23.67
702.186	23.4
702.37	22.88
702.554	22.62
702.738	22.38
702.923	23.12
703.107	23.09
703.291	23.25
703.475	22.3
703.659	22.33
703.843	21.91
704.027	21.5
704.212	21.56
704.396	21.8
704.58	21.95
704.764	22.42
704.948	21.58
705.132	21.84
705.316	22.18
705.5	22.32
705.684	21.68
705.868	22.18
706.052	22.17
706.235	22.55
706.419	22.33
706.603	21.58
706.787	22.04
706.971	22.03
707.155	21.75
707.339	21.09
707.522	21.18
707.706	21.78
707.89	20.98
708.074	20.71
708.257	21.19
708.441	21.38
708.625	21.86
708.808	21.18
708.992	21.22
709.176	21.74
709.359	22.14
709.543	22.76
709.727	22.53
709.91	22.79
710.094	23.12
710.277	22.62
710.461	22.62
710.644	23.43
710.828	23.06
711.011	22.96
711.195	22.64
711.378	23.07
711.562	23.06
711.745	23.13
711.928	23.42
712.112	23.1
712.295	22.72
712.478	22.27
712.662	22
712.845	22.55
713.028	23.84
713.212	24.04
713.395	23.99
713.578	23.43
713.761	23.21
713.945	23.66
714.128	23.77
714.311	24.32
714.494	24.44
714.677	23.94
714.86	24.07
715.043	22.98
715.227	23.08
715.41	22.85
715.593	23.25
715.776	23.39
715.959	22.68
716.142	22.91
716.325	22.95
716.508	23.07
716.691	23.7
716.874	23.85
717.057	23.4
717.239	22.62
717.422	22.64
717.605	22.32
717.788	23
717.971	23.33
718.154	22.59
718.337	20.87
718.519	21.23
718.702	20.2
718.885	19.36
719.068	20.16
719.25	20.61
719.433	19.71
719.616	19.97
719.798	18.4
719.981	18.11
720.164	18.18
720.346	19.84
720.529	20.69
720.712	20.97
720.894	21.74
721.077	21.79
721.259	21.92
721.442	22.78
721.624	22.92
721.807	23.28
721.989	22.76
722.172	23
722.354	22.91
722.537	22.13
722.719	22
722.901	22.61
723.084	22.34
723.266	22.69
723.448	22.22
723.631	21.7
723.813	22.27
723.995	22.88
724.178	23.07
724.36	23.28
724.542	23.64
724.724	23.2
724.907	21.67
725.089	21.92
725.271	21.35
725.453	21.58
725.635	21.03
725.817	19.75
725.999	18.51
726.181	18.22
726.364	18.41
726.546	17.87
726.728	19.33
726.91	20.39
727.092	20.22
727.274	21.18
727.456	22.03
727.638	22.49
727.819	23.29
728.001	24.17
728.183	24.43
728.365	24.01
728.547	23.81
728.729	23.13
728.911	22.17
729.093	22.73
729.274	22.81
729.456	22.97
729.638	22.52
729.82	22.55
730.001	22.32
730.183	20.86
730.365	21.05
730.546	21.6
730.728	21.3
730.91	21.63
731.091	21.46
731.273	20.9
731.455	19.68
731.636	20.01
731.818	20.26
731.999	21.13
732.181	22.63
732.362	21.96
732.544	20.66
732.725	20.8
732.907	19.82
733.088	19.22
733.27	19.02
733.451	18.97
733.633	18.77
733.814	19.12
733.995	18.72
734.177	19.45
734.358	19.36
734.539	19.96
734.721	21.07
734.902	21.65
735.083	22.11
735.264	22.51
735.446	23.96
735.627	25.07
735.808	25.02
735.989	24.85
736.17	24.64
736.351	25.95
736.533	26.55
736.714	24.89
736.895	24.93
737.076	25.16
737.257	24.69
737.438	22.84
737.619	21.98
737.8	21.68
737.981	22.34
738.162	21.91
738.343	20.36
738.524	20.66
738.705	21.78
738.886	21.92
739.067	22.99
739.247	23.23
739.428	23.65
739.609	24.02
739.79	24.23
739.971	24.25
740.151	24.8
740.332	25.11
740.513	23.86
740.694	24.96
740.874	25.85
741.055	24.73
741.236	26.42
741.417	26.6
741.597	26.63
741.778	25.41
741.958	25.2
742.139	24.13
742.32	25.87
742.5	26.91
742.681	25.31
742.861	24.04
743.042	23.07
743.222	21.01
743.403	20.86
743.583	22.34
743.764	23.31
743.944	23.5
744.124	25.37
744.305	23.91
744.485	23.95
744.666	23.59
744.846	25.14
745.026	26.53
745.207	25.94
745.387	26.56
745.567	25.71
745.747	26.93
745.928	27.02
746.108	26.12
746.288	25.8
746.468	25.25
746.648	26.79
746.829	25.66
747.009	24.98
747.189	26.21
747.369	25.9
747.549	25.66
747.729	24
747.909	22.59
748.089	23.68
748.269	25.49
748.449	25.01
748.629	23.53
748.809	24.34
748.989	23.4
749.169	22.61
749.349	22.01
749.529	21.58
749.709	22.04
749.889	22.07
750.068	21.86
750.248	21.31
750.428	22.26
750.608	23.19
750.788	22.77
750.967	24.08
751.147	24.47
751.327	25.75
751.507	25.14
751.686	24.95
751.866	26.31
752.046	24.38
752.225	23.47
752.405	23.58
752.585	23.33
752.764	22.97
752.944	22.42
753.123	22.99
753.303	22.43
753.482	23.08
753.662	22.64
753.841	21.28
754.021	21.62
754.2	23.18
754.38	22.54
754.559	21.17
754.739	20.72
754.918	20.96
755.097	20.4
755.277	19.66
755.456	19.85
755.635	20.49
755.815	22.47
755.994	22.14
756.173	20.38
756.352	20.77
756.532	21.43
756.711	22.04
756.89	22.69
757.069	22.92
757.248	24.25
757.427	23.22
757.607	23.34
757.786	21.89
757.965	22.79
758.144	23.59
758.323	22.66
758.502	22.94
758.681	23.28
758.86	23.78
759.039	23.54
759.218	21.99
759.397	22.87
759.576	23.15
759.755	22.84
759.934	21.79
760.113	22.23
760.291	22.52
760.47	22.89
760.649	22.66
760.828	21.12
761.007	20.58
761.186	21.66
761.364	21.24
761.543	20.87
761.722	20.45
761.901	21.72
762.079	22.97
762.258	23.74
762.437	22.58
762.615	23.07
762.794	23.92
762.972	24.23
763.151	24.5
763.33	25.52
763.508	25.34
763.687	26.59
763.865	26.1
764.044	24.68
764.222	24.85
764.401	24.71
764.579	24.78
764.758	25.06
764.936	23.91
765.114	23.14
765.293	22.56
765.471	23.14
765.65	22.99
765.828	22.99
766.006	22.67
766.184	20.86
766.363	20.89
766.541	20.79
766.719	19.29
766.898	20.93
767.076	21.8
767.254	21.22
767.432	20.07
767.61	19.08
767.788	18.63
767.967	19.03
768.145	19.71
768.323	20.68
768.501	20.41
768.679	19.99
768.857	19.9
769.035	18.9
769.213	20
769.391	20.73
769.569	20.97
769.747	21.08
769.925	21.88
770.103	23.3
770.281	23.47
770.459	21.84
770.636	24
770.814	23.85
770.992	24.45
771.17	22.78
771.348	22.84
771.525	22.6
771.703	22.45
771.881	21.29
772.059	19.89
772.236	19.83
772.414	19.78
772.592	17.63
772.769	16.06
772.947	17.72
773.125	18.77
773.302	17.61
773.48	18.78
773.657	19.26
773.835	19.63
774.013	20.97
774.19	22.72
774.368	22.92
774.545	21.54
774.723	22.66
774.9	19.91
775.077	19.61
775.255	20.55
775.432	21.59
775.61	22.49
775.787	22.52
775.964	22.56
776.142	20.74
776.319	21.62
776.496	22.68
776.674	22.64
776.851	22.63
777.028	21.04
777.205	22
777.382	19.93
777.56	17.75
777.737	16.33
777.914	15.14
778.091	11.59
778.268	11.31
778.445	13.41
778.622	16.14
778.8	17.39
778.977	19.58
779.154	18.59
779.331	18.23
779.508	21.8
779.685	22.97
779.862	21.31
780.038	26.23
780.215	24.98
780.392	26.2
780.569	24.49
780.746	24.72
780.923	23.61
781.1	23.52
781.277	23.62
781.453	23.8
781.63	24.06
781.807	24.89
781.984	23.32
782.16	26.22
782.337	24.82
782.514	22.47
782.691	23.18
782.867	23.7
783.044	24.79
783.221	25.28
783.397	23.78
783.574	26.62
783.75	27.64
783.927	26.95
784.103	25.4
784.28	23.67
784.456	25.81
784.633	23.01
784.809	23.04
784.986	20.94
785.162	19.15
785.339	19.97
785.515	17.74
785.692	19.76
785.868	18.14
786.044	20.4
786.221	22.28
786.397	22.12
786.573	24.56
786.749	25.01
786.926	25.61
787.102	25.64
787.278	22.36
787.454	20.42
787.631	21.41
787.807	23.63
787.983	21.59
788.159	19.46
788.335	19.88
788.511	19.06
788.687	17.5
788.863	19.43
789.039	20.29
789.216	22.85
789.392	24.96
789.568	22.1
789.744	21.76
789.919	22.74
790.095	22.5
790.271	22.83
790.447	24.67
790.623	25.71
790.799	24.95
790.975	23.94
791.151	22.78
791.327	24.25
791.502	23.51
791.678	18.29
791.854	18.49
792.03	22.22
792.205	24.04
792.381	21.01
792.557	21.1
792.733	19.21
792.908	18.74
793.084	21.04
793.259	19.23
793.435	21.14
793.611	27.08
793.786	26.71
793.962	24.93
794.137	22.85
794.313	23.96
794.488	23.86
794.664	26.86
794.839	29.55
795.015	28.27
795.19	29.24
795.366	28.14
795.541	25.24
795.716	24.4
795.892	21.71
796.067	23.2
796.242	24.27
796.418	25.4
796.593	24.35
796.768	25.62
796.944	24.95
797.119	23.22
797.294	25.5
797.469	28.41
797.644	31.26
797.82	36.17
797.995	34.52
798.17	32.72
798.345	32.14
798.52	32.72
798.695	30.92
798.87	28.78
799.045	27.35
799.22	27.67
799.395	27.06
799.57	23.88
799.745	22.88
799.92	23.03
800.095	24.04
800.27	22.35
800.445	19.88
800.62	20.85
800.795	24.63
800.97	29.38
801.145	28.07
801.319	28.36
801.494	28
801.669	26.15
801.844	27.59
802.018	26.76
802.193	29.94
802.368	31.49
802.543	31.23
802.717	28.55
802.892	24.66
803.067	23.41
803.241	20.22
803.416	20.13
803.59	20.47
803.765	20.18
803.94	22.41
804.114	21.88
804.289	21.03
804.463	23.4
804.638	26.33
804.812	22.47
804.986	20.87
805.161	24.88
805.335	26.44
805.51	26.91
805.684	24.11
805.858	22.69
806.033	21.11
806.207	23.84
806.381	25.22
806.556	25.07
806.73	30.96
806.904	31.28
807.078	26.59
807.253	23.74
807.427	21.57
807.601	20.51
807.775	17.69
807.949	19.87
808.123	15.16
808.298	9.91
808.472	9.55
808.646	8.52
808.82	11.09
808.994	11.26
809.168	12.57
809.342	17.14
809.516	16.97
809.69	21.81
809.864	18.33
810.038	20.89
810.212	19.75
810.385	17.16
810.559	15.47
810.733	12.69
810.907	11.73
811.081	10.6
811.255	9.35
811.428	12.27
811.602	9.84
811.776	10.46
811.95	10.86
812.123	18.11
812.297	18.83
812.471	15.29
812.644	13.9
812.818	16.51
812.992	23.74
813.165	20.53
813.339	21.02
813.512	19.58
813.686	20.7
813.86	22.48
814.033	16.75
814.207	16.44
814.38	24.12
814.554	25.59
814.727	26.77
814.9	24.25
815.074	31.2
815.247	32.51
815.421	37.84
815.594	40.3
815.767	36.83
815.941	36.05
816.114	34.49
816.287	30.94
816.46	33.16
816.634	31.03
816.807	29.99
816.98	24.9
817.153	18.87
817.327	13.14
817.5	8.53
817.673	6.18
817.846	9.49
818.019	13.07
818.192	11.62
818.365	11.13
818.538	15.07
818.711	14.14
818.884	16.28
819.057	18.17
819.23	22.76
819.403	22.34
819.576	23.88
819.749	22.92
819.922	20.42
820.095	20.3
820.268	19.35
820.441	19.86
820.614	21.05
820.786	21.28
820.959	21.27
821.132	20.88
821.305	22.38
821.477	22.87
821.65	22
821.823	22.52
821.996	23.28
822.168	24.25
822.341	24.25
822.514	24.69
822.686	24.9
822.859	25.48
823.031	25.33
823.204	25.43
823.376	25.08
823.549	25.08
823.722	25.28
823.894	25.88
824.067	26.02
824.239	26.17
824.411	25.63
824.584	24.92
824.756	25.18
824.929	25.27
825.101	24.26
825.273	24.23
825.446	24.85
825.618	24.31
825.79	22.96
825.963	20.39
826.135	19.3
826.307	20.44
826.479	20.31
826.652	18.97
826.824	19.37
826.996	20.6
827.168	21.78
827.34	21.58
827.512	21.18
827.684	21.42
827.856	22.89
828.029	23.03
828.201	21.32
828.373	23.59
828.545	24.13
828.717	22.2
828.889	22.23
829.061	21.04
829.232	20.87
829.404	22.46
829.576	23.29
829.748	23.94
829.92	25.53
830.092	28.32
830.264	27.54
830.436	27.08
830.607	28.77
830.779	27.37
830.951	26.84
831.123	26.8
831.294	26.06
831.466	23.46
831.638	23.57
831.809	21.31
831.981	17.6
832.153	13.99
832.324	15.39
832.496	19.95
832.667	18.89
832.839	21.04
833.011	20.87
833.182	24.25
833.354	30.95
833.525	29.85
833.697	33.88
833.868	33.63
834.039	34.24
834.211	35.94
834.382	34.95
834.554	35.46
834.725	34.84
834.896	34.36
835.068	31.86
835.239	27.82
835.41	28.08
835.581	23.61
835.753	23.59
835.924	25.72
836.095	25.37
836.266	23.4
836.438	22.7
836.609	19.61
836.78	20.32
836.951	20.62
837.122	24.63
837.293	25.86
837.464	24.87
837.635	26.17
837.806	24.32
837.977	24.22
838.148	22.6
838.319	24.31
838.49	27.13
838.661	26.64
838.832	27.15
839.003	24.85
839.174	21.22
839.345	25.16
839.516	18.84
839.687	16.68
839.857	12.33
840.028	12.15
840.199	11.84
840.37	7.19
840.54	5.77
840.711	8.25
840.882	8.83
841.053	14.6
841.223	12.74
841.394	14.43
841.564	11.27
841.735	9.23
841.906	12.45
842.076	15.8
842.247	20.18
842.417	22.51
842.588	18.25
842.758	12.09
842.929	1.12
843.099	8.46
843.27	4.48
843.44	-1.63
843.611	4.92
843.781	5.93
843.951	6.2
844.122	6
844.292	4.44
844.462	5.41
844.633	13.92
844.803	14.42
844.973	0.24
845.144	-0.13
845.314	20.08
845.484	22.14
845.654	16.54
845.824	10.52
845.995	12.26
846.165	10.48
846.335	11.74
846.505	5.36
846.675	21.36
846.845	22.76
847.015	28.43
847.185	23.89
847.355	21.21
847.525	27.54
847.695	28.69
847.865	31.64
848.035	34.69
848.205	36.04
848.375	34.55
848.545	29.09
848.715	31.84
848.884	41.86
849.054	42.16
849.224	39.22
849.394	25.04
849.564	16.5
849.733	11.8
849.903	18.59
850.073	21.22
850.243	22.62
850.412	5.03
850.582	-4.79
850.752	-29.74
850.921	-27.29
851.091	-20.75
851.26	-7.35
851.43	-7.27
851.599	3.94
851.769	-11.02
851.939	-18.45
852.108	-18.41
852.278	1.2
852.447	16.98
852.616	14.28
852.786	7.79
852.955	4.84
853.125	-3.17
853.294	2.28
853.463	8.08
853.633	20.68
853.802	30.15
853.971	47.95
854.141	44.32
854.31	41.23
854.479	49.13
854.648	59.57
854.818	53.66
854.987	49.07
855.156	56.79
855.325	44.53
855.494	28.69
855.663	15.91
855.832	-14.05
856.001	-20.17
856.171	-42.76
856.34	-41.16
856.509	-55.23
856.678	-37.38
856.847	-15.72
857.016	3.82
857.185	14.01
857.353	11.73
857.522	32.79
857.691	37.08
857.86	38.94
858.029	37.68
858.198	37.83
858.367	43.39
858.535	49.8
858.704	47.43
858.873	34.89
859.042	48.8
859.21	39.12
859.379	25.04
859.548	43.96
859.717	47.71
859.885	30.85
860.054	40.18
860.222	19.31
860.391	14.12
860.56	17.23
860.728	3.34
860.897	0.54
861.065	7.06
861.234	9.29
861.402	-3.68
861.571	-0.32
861.739	21.14
861.908	3.8
862.076	3.71
862.244	8.54
862.413	7.62
862.581	9.18
862.749	-23.55
862.918	-15.07
863.086	-58.27
863.254	-69.46
863.423	-78.76
863.591	-69.16
863.759	-53.75
863.927	-26.21
864.096	-23.08
864.264	-46.22
864.432	-43.28
864.6	-28
864.768	-28.09
864.936	-14.46
865.104	2.17
865.272	-9.63
865.44	-30.46
865.608	-39.98
865.776	-48.35
865.944	-78.78
866.112	-50.56
866.28	-34.91
866.448	-34.17
866.616	-23.77
866.784	2.04
866.952	-8.99
867.12	-9.94
867.288	7.89
867.455	6.96
867.623	4.31
867.791	28.82
867.959	4.93
868.127	20.01
868.294	32.45
868.462	28.05
868.63	23.36
868.797	45.72
868.965	60.92
869.133	50.28
869.3	48
869.468	54.67
869.636	56.3
869.803	64.47
869.971	51.57
870.138	49.1
870.306	46.4
870.473	37.7
870.641	23.17
870.808	17.74
870.975	19.1
871.143	14.65
871.31	-20.7
871.478	-33.83
871.645	-31.95
871.812	2.03
871.98	2.4
872.147	19.78
872.314	1.15
872.482	8.12
872.649	-13.29
872.816	-10.3
872.983	14.48
873.15	19.1
873.318	26.1
873.485	24.87
873.652	15.46
873.819	6.61
873.986	-9.29
874.153	-0.18
874.32	-7.29
874.487	0.25
874.654	-4.51
874.821	-14.54
874.988	1.12
875.155	-15.87
875.322	11.01
875.489	21.82
875.656	35.98
875.823	30.63
875.99	41.06
876.157	36.9
876.324	43.37
876.49	42.9
876.657	58.49
876.824	42.44
876.991	36.19
877.157	36.89
877.324	35.54
877.491	29.04
877.658	24.4
877.824	23.67
877.991	28.6
878.157	21.56
878.324	28.52
878.491	16.06
878.657	9.17
878.824	19.32
878.99	-0.24
879.157	6.92
879.323	26.48
879.49	30.48
879.656	26.23
879.823	19.56
879.989	9.9
880.156	-7.1
880.322	-8.7
880.488	22.07
880.655	26.9
880.821	32.83
880.987	25.79
881.154	33.44
881.32	33.8
881.486	30.24
881.652	29.72
881.819	28.23
881.985	33.13
882.151	29.3
882.317	23.64
882.483	20.33
882.649	19.68
882.816	17.8
882.982	13.03
883.148	16.45
883.314	17.17
883.48	18.16
883.646	22.96
883.812	19.42
883.978	21.57
884.144	24.12
884.31	24.33
884.476	25.42
884.642	26.14
884.807	26.94
884.973	25.92
885.139	26.65
885.305	23.79
885.471	22.81
885.637	22.2
885.802	20.48
885.968	18.9
886.134	18.14
886.3	18.78
886.465	18.08
886.631	16
886.797	11.04
886.962	10.01
887.128	19.16
887.293	20.95
887.459	25.81
887.625	26.74
887.79	32.8
887.956	28.14
888.121	28.55
888.287	31.4
888.452	31.19
888.618	45.9
888.783	49.21
