Data from 2937838_Reflection_1.txt Node
Date: Wed Jul 15 16:25:03 EDT 2015
User: robert
Spectrometer: USB4E03001
Autoset integration time: false
Trigger mode: 4
Integration Time (sec): 1.000000E-1
Scans to average: 10
Electric dark correction enabled: true
Nonlinearity correction enabled: false
Boxcar width: 5
Stray light correction enabled: false
XAxis mode: Wavelengths
Stop averaging: false
Number of Pixels in Spectrum: 3648
>>>>>Begin Spectral Data<<<<<
177.566	116.48
177.785	128.97
178.005	140.74
178.225	182.37
178.445	158.94
178.665	107.97
178.885	-682.2
179.105	141.15
179.324	78.01
179.544	44.01
179.764	27.12
179.984	-42.62
180.204	-70.21
180.423	-39.09
180.643	-136.07
180.863	-98.65
181.083	-143.39
181.302	-167.03
181.522	-318.57
181.742	-401.26
181.961	-826.91
182.181	447.08
182.401	365.36
182.621	449.08
182.84	194.72
183.06	136.1
183.279	131.12
183.499	132.03
183.719	186.81
183.938	161.08
184.158	140.15
184.377	1107.78
184.597	-1771.95
184.816	-888.34
185.036	-839.48
185.256	-153.09
185.475	-328.33
185.695	-477.39
185.914	-350.52
186.134	-12507.14
186.353	483.54
186.572	821.85
186.792	536.43
187.011	2581.36
187.231	187.94
187.45	208.82
187.67	142.83
187.889	243.48
188.108	328.74
188.328	167.25
188.547	-247.07
188.766	-583.28
188.986	1651.85
189.205	400
189.424	292.72
189.644	-44.68
189.863	-33.9
190.082	-116.26
190.302	39.76
190.521	45.59
190.74	-12.43
190.959	22.93
191.178	55.94
191.398	41.63
191.617	42.99
191.836	27.57
192.055	29.28
192.274	-17.96
192.494	38.3
192.713	-38.7
192.932	-18.36
193.151	9.66
193.37	30.54
193.589	78.52
193.808	85.93
194.027	79.9
194.246	98.76
194.465	87.19
194.685	112.42
194.904	126.24
195.123	146.84
195.342	191.71
195.561	168.84
195.78	-590.55
195.999	-143.28
196.218	-37.31
196.436	-7.97
196.655	61.73
196.874	30.24
197.093	8.74
197.312	-2.4
197.531	229.12
197.75	-141.75
197.969	-3111.94
198.188	288.96
198.407	150.87
198.625	135.22
198.844	119.65
199.063	179.7
199.282	269.22
199.501	-1459.14
199.719	-45.07
199.938	-52.65
200.157	-79.61
200.376	206.91
200.594	100.39
200.813	-4.47
201.032	0.49
201.251	25.57
201.469	13.26
201.688	-25.12
201.907	-64.19
202.125	-992.86
202.344	1017.5
202.563	1882.93
202.781	-2570.76
203	773.67
203.218	367.5
203.437	666.2
203.656	6068.85
203.874	-1189.48
204.093	1340.35
204.311	-22847.06
204.53	-345.95
204.748	55.34
204.967	112.46
205.185	96.05
205.404	9.1
205.622	33.98
205.841	87.17
206.059	93.58
206.278	131.27
206.496	136.3
206.715	184.92
206.933	91.12
207.151	38.45
207.37	10.97
207.588	1.55
207.806	-36.66
208.025	-31.92
208.243	-4791.16
208.461	-984.82
208.68	2214.79
208.898	-236.28
209.116	-707.66
209.335	-449.11
209.553	4223.03
209.771	-541.59
209.989	-114.75
210.208	-145.26
210.426	-392.52
210.644	-92.12
210.862	114.09
211.081	-159.39
211.299	1310
211.517	91.16
211.735	-105.35
211.953	237.27
212.171	53.33
212.39	-861.19
212.608	-94.21
212.826	362.54
213.044	111.53
213.262	-174.3
213.48	178.1
213.698	237.76
213.916	97.73
214.134	680.68
214.352	304.13
214.57	240.4
214.788	158.55
215.006	145.75
215.224	122.81
215.442	148.5
215.66	715.44
215.878	213.07
216.096	282.49
216.314	-732.86
216.532	-1245.31
216.75	7.65
216.968	106.88
217.185	100.59
217.403	106.95
217.621	78.23
217.839	52.99
218.057	97.7
218.275	-190.29
218.492	53.56
218.71	52.5
218.928	75.44
219.146	61.31
219.363	48.52
219.581	-2.26
219.799	-20.32
220.017	43.79
220.234	87.23
220.452	97.67
220.67	74.23
220.887	93.47
221.105	121.94
221.323	151.86
221.54	124.06
221.758	105.27
221.976	138.9
222.193	135.77
222.411	82.37
222.629	62.65
222.846	84.55
223.064	75.84
223.281	77.13
223.499	54.66
223.716	42.71
223.934	29.55
224.151	41.26
224.369	33.72
224.586	47.76
224.804	46.54
225.021	63.31
225.239	43.78
225.456	37.75
225.674	43.43
225.891	46.12
226.108	48.34
226.326	44.7
226.543	38.4
226.76	31.42
226.978	17.88
227.195	29.74
227.413	25.18
227.63	16.12
227.847	28.39
228.064	21.91
228.282	18.89
228.499	21.77
228.716	22.46
228.934	21.61
229.151	18.15
229.368	23.29
229.585	20.8
229.802	17.51
230.02	18.59
230.237	14.27
230.454	13.41
230.671	16.94
230.888	14.83
231.105	12.65
231.323	13.4
231.54	10.21
231.757	1.82
231.974	7.97
232.191	14.28
232.408	17.43
232.625	19.38
232.842	19.25
233.059	14.99
233.276	15.91
233.493	14.3
233.71	11.82
233.927	18.49
234.144	16.86
234.361	7.71
234.578	3.35
234.795	12.95
235.012	12.38
235.229	14.71
235.446	15.75
235.663	16.26
235.879	19.58
236.096	16.44
236.313	13.01
236.53	19.05
236.747	19.9
236.964	14.83
237.181	-4.92
237.397	-15.54
237.614	-16.41
237.831	-15.94
238.048	-10.14
238.264	-0.45
238.481	-0.33
238.698	7.42
238.915	6.78
239.131	12.69
239.348	18.44
239.565	22.7
239.781	26.57
239.998	27.81
240.215	29.07
240.431	23.43
240.648	18.62
240.865	18.3
241.081	16.64
241.298	17.98
241.514	15.97
241.731	15.71
241.947	13.49
242.164	13.94
242.38	14.33
242.597	12.92
242.814	12.2
243.03	11.42
243.246	11.16
243.463	10.13
243.679	8.66
243.896	8.06
244.112	8.6
244.329	9.6
244.545	10.02
244.762	7.28
244.978	7.4
245.194	9.73
245.411	10.42
245.627	11.81
245.843	13.32
246.06	13
246.276	12.24
246.492	11.53
246.709	11.02
246.925	10.44
247.141	11.73
247.357	11.86
247.574	11.73
247.79	11.93
248.006	11.92
248.222	11.73
248.439	11.04
248.655	10.87
248.871	10.71
249.087	10.47
249.303	11.3
249.519	11.82
249.736	13.21
249.952	13.1
250.168	13.99
250.384	15.57
250.6	16.67
250.816	18.11
251.032	20.5
251.248	17.94
251.464	21.27
251.68	19.4
251.896	18.27
252.112	18.15
252.328	18.3
252.544	18.52
252.76	17.63
252.976	15.4
253.192	14.82
253.408	14.2
253.624	17.64
253.84	16.4
254.056	13.77
254.272	16.08
254.487	10.47
254.703	9.91
254.919	7.4
255.135	3.43
255.351	8.73
255.567	7.02
255.782	3.7
255.998	2.5
256.214	5.05
256.43	11.5
256.646	8.08
256.861	9.65
257.077	12.71
257.293	16.97
257.508	16.07
257.724	13.75
257.94	12.77
258.155	11.75
258.371	9.78
258.587	9.43
258.802	8.19
259.018	7.31
259.234	8.13
259.449	7.89
259.665	6.02
259.88	7.49
260.096	7.71
260.312	7.83
260.527	8.61
260.743	8.91
260.958	7.87
261.174	7.78
261.389	7.72
261.605	7.02
261.82	6.36
262.036	5.31
262.251	4.32
262.466	3.71
262.682	2.76
262.897	2.12
263.113	2.64
263.328	1.84
263.543	0.06
263.759	2.91
263.974	3.52
264.189	2.78
264.405	3.27
264.62	5.56
264.835	5.27
265.051	6.44
265.266	9.02
265.481	7.91
265.696	9.73
265.912	11.44
266.127	11.04
266.342	10.5
266.557	10.61
266.773	11.48
266.988	8.76
267.203	9
267.418	8.85
267.633	7.85
267.848	8.07
268.064	9.26
268.279	9.25
268.494	8.03
268.709	8.03
268.924	7.09
269.139	7.46
269.354	8.36
269.569	7.47
269.784	8.63
269.999	9.6
270.214	9.17
270.429	8.43
270.644	8.7
270.859	8.02
271.074	8.43
271.289	9.21
271.504	9.76
271.719	9.01
271.934	8.87
272.149	8.52
272.363	7.14
272.578	8.66
272.793	8.94
273.008	8.56
273.223	8.88
273.438	8.77
273.653	8.9
273.867	7.34
274.082	8.2
274.297	7.76
274.512	7.48
274.726	7.63
274.941	6.36
275.156	6.24
275.371	6.25
275.585	5.98
275.8	5.58
276.015	6.09
276.229	8.35
276.444	9.02
276.659	10.61
276.873	11.33
277.088	11.22
277.302	11.31
277.517	10.9
277.732	10.09
277.946	11.42
278.161	12.43
278.375	11.18
278.59	10.87
278.804	10.23
279.019	9.33
279.233	8.53
279.448	9.04
279.662	9.03
279.877	7.88
280.091	10.17
280.306	10.66
280.52	11.02
280.735	10.71
280.949	10.04
281.163	9.59
281.378	8.64
281.592	7.93
281.806	7.97
282.021	7.9
282.235	9.13
282.449	8.41
282.664	7.37
282.878	7.46
283.092	8.57
283.307	7.83
283.521	8.32
283.735	9.72
283.949	8.91
284.164	9.25
284.378	8.81
284.592	9.26
284.806	8.7
285.02	8.83
285.234	8.1
285.449	7.13
285.663	6.98
285.877	5.79
286.091	6.43
286.305	9.44
286.519	9.85
286.733	10.42
286.947	9.1
287.161	9.41
287.375	8.04
287.589	8.02
287.803	8.41
288.017	8.51
288.231	10.51
288.445	8.61
288.659	6.41
288.873	5.32
289.087	4.23
289.301	4.91
289.515	5.9
289.729	6.23
289.943	5.95
290.157	6.61
290.371	7.49
290.584	6.25
290.798	7.37
291.012	7.56
291.226	8.11
291.44	8.7
291.654	8.39
291.867	7.83
292.081	9.13
292.295	9.27
292.509	8.66
292.722	9.15
292.936	9.53
293.15	8.06
293.364	8.78
293.577	8.37
293.791	9.92
294.005	10.74
294.218	10.81
294.432	11.63
294.645	11.35
294.859	11.85
295.073	11.48
295.286	11.33
295.5	10.91
295.713	10.74
295.927	9.98
296.14	9.03
296.354	9.2
296.568	8.8
296.781	8.56
296.994	8.39
297.208	7.7
297.421	7.12
297.635	6.94
297.848	8.19
298.062	7.49
298.275	7.62
298.489	7.43
298.702	7.52
298.915	7.12
299.129	6.37
299.342	6.44
299.555	7.72
299.769	7.76
299.982	6.78
300.195	5.37
300.409	5.79
300.622	7.31
300.835	7.25
301.048	7.02
301.262	8.25
301.475	9.31
301.688	8.42
301.901	7.05
302.115	7.89
302.328	9.37
302.541	10.39
302.754	11.04
302.967	9.88
303.18	9.47
303.393	8.9
303.607	8.12
303.82	7.63
304.033	8.66
304.246	9.18
304.459	8.56
304.672	8.8
304.885	8.15
305.098	7.79
305.311	6.68
305.524	7.41
305.737	6.61
305.95	5.93
306.163	5.98
306.376	6.35
306.589	5.56
306.802	4.95
307.015	5.16
307.228	6.83
307.44	6.74
307.653	7.96
307.866	8.84
308.079	7.28
308.292	7.12
308.505	6.56
308.718	7.29
308.93	7.99
309.143	8.15
309.356	7.22
309.569	5.93
309.781	5.83
309.994	6.25
310.207	5.63
310.42	7.87
310.632	8.26
310.845	8.34
311.058	8.5
311.27	8.38
311.483	9.5
311.696	10.81
311.908	12.1
312.121	10.83
312.333	10.66
312.546	10.71
312.759	11.62
312.971	12.02
313.184	13.15
313.396	11.53
313.609	12.17
313.821	11.11
314.034	10.58
314.246	10.39
314.459	11.69
314.671	12
314.884	11.99
315.096	10.73
315.309	10.1
315.521	9.02
315.733	9.53
315.946	9.27
316.158	9.68
316.371	9.5
316.583	8.56
316.795	9.4
317.008	8.4
317.22	8.78
317.432	9.63
317.644	11.05
317.857	11.33
318.069	12.28
318.281	12.93
318.494	11.94
318.706	12.38
318.918	10.94
319.13	10.22
319.342	9.96
319.555	7.61
319.767	8.66
319.979	8.81
320.191	9.25
320.403	8.5
320.615	6.36
320.827	9.19
321.039	8.8
321.252	9.4
321.464	9.47
321.676	11.61
321.888	13.96
322.1	11.74
322.312	12.35
322.524	13.21
322.736	12.97
322.948	14.82
323.16	14.41
323.372	15.14
323.584	16.36
323.796	16.71
324.007	16.28
324.219	15.8
324.431	15.55
324.643	15.2
324.855	14.32
325.067	15.01
325.279	14.15
325.491	13.72
325.702	11.85
325.914	11.3
326.126	11.6
326.338	11.78
326.55	12.07
326.761	11.86
326.973	12.3
327.185	11.74
327.396	11.37
327.608	11.74
327.82	11.94
328.032	13.02
328.243	13.5
328.455	12.01
328.666	12.92
328.878	13.21
329.09	13.68
329.301	13
329.513	14.82
329.725	13.39
329.936	13.12
330.148	11.78
330.359	11.43
330.571	12.39
330.782	13.16
330.994	11.74
331.205	11.98
331.417	12.74
331.628	12.85
331.84	9.93
332.051	12.31
332.262	12.04
332.474	12.26
332.685	12.27
332.897	10.8
333.108	12.83
333.319	12.64
333.531	13.15
333.742	12.98
333.953	13
334.165	13.87
334.376	14.81
334.587	14.7
334.799	13.94
335.01	14.56
335.221	15.65
335.432	15.03
335.644	14.23
335.855	13.63
336.066	13.97
336.277	13.79
336.488	13.99
336.7	13.46
336.911	13.71
337.122	14.42
337.333	14.55
337.544	12.36
337.755	11.94
337.966	12.42
338.177	11.94
338.388	11.32
338.599	11.1
338.811	11.29
339.022	10.16
339.233	10.25
339.444	10.26
339.655	9.89
339.866	11.73
340.076	11.3
340.287	11.33
340.498	10.82
340.709	10.65
340.92	11.25
341.131	10.79
341.342	11.18
341.553	10.49
341.764	10.17
341.975	9.78
342.185	9.57
342.396	10.53
342.607	11.2
342.818	12
343.029	11.94
343.239	11.44
343.45	12.09
343.661	11.76
343.872	12.54
344.082	13.47
344.293	13.46
344.504	13.47
344.714	11.74
344.925	11.42
345.136	10.86
345.346	10.64
345.557	11.59
345.768	11.46
345.978	11.64
346.189	10.94
346.399	10.87
346.61	10.34
346.821	10.03
347.031	10.3
347.242	9.69
347.452	10.72
347.663	10.36
347.873	8.82
348.084	8.91
348.294	8.18
348.504	8.87
348.715	10.01
348.925	11.2
349.136	12
349.346	11.85
349.557	12.57
349.767	11.6
349.977	12.05
350.188	12.3
350.398	11.93
350.608	12.17
350.819	12.31
351.029	11.95
351.239	12.4
351.449	12.54
351.66	13.8
351.87	13.16
352.08	13.21
352.29	12.91
352.501	13.29
352.711	13.29
352.921	13.18
353.131	13.97
353.341	13.76
353.552	13.22
353.762	12.59
353.972	12
354.182	12.04
354.392	12.62
354.602	13.48
354.812	12.37
355.022	12.46
355.232	12.99
355.442	12.33
355.652	11.12
355.862	10.88
356.072	10.56
356.282	10.87
356.492	11.37
356.702	10.41
356.912	10.09
357.122	10.5
357.332	10.92
357.542	10.8
357.752	10.56
357.962	10.73
358.171	10.88
358.381	10.93
358.591	11.26
358.801	11.46
359.011	12.26
359.221	13.25
359.43	13.13
359.64	12.93
359.85	13.11
360.06	13.34
360.269	14.47
360.479	14.46
360.689	13.61
360.899	12.79
361.108	12.7
361.318	11.85
361.528	10.43
361.737	10.63
361.947	9.99
362.156	10.17
362.366	9.91
362.576	8.26
362.785	8.16
362.995	8.66
363.204	8.64
363.414	8.82
363.623	9.74
363.833	9.91
364.042	9.71
364.252	10.66
364.461	10.15
364.671	9.74
364.88	10.89
365.09	11.08
365.299	12.16
365.509	12.2
365.718	11.76
365.927	11.75
366.137	11.95
366.346	12.26
366.555	11.63
366.765	11.9
366.974	11.89
367.183	12.12
367.393	11.03
367.602	10.26
367.811	10.61
368.021	9.61
368.23	8.93
368.439	9.46
368.648	9.58
368.857	10.11
369.067	9.19
369.276	8.8
369.485	8.35
369.694	9.17
369.903	8.74
370.112	7.95
370.321	8.46
370.531	9.52
370.74	9.31
370.949	8.84
371.158	8.74
371.367	9.64
371.576	10.37
371.785	9.79
371.994	10.09
372.203	10.65
372.412	11.41
372.621	10.85
372.83	10.2
373.039	10.5
373.248	10.22
373.457	10.13
373.666	9.39
373.874	8.87
374.083	8.91
374.292	8.36
374.501	7.47
374.71	6.5
374.919	7.2
375.128	7.26
375.336	6.55
375.545	7.2
375.754	6.81
375.963	6.94
376.171	7.34
376.38	7.49
376.589	7.25
376.798	7.79
377.006	7.83
377.215	8.88
377.424	8.56
377.632	8.96
377.841	8.67
378.05	8.64
378.258	8.57
378.467	8.5
378.675	8.57
378.884	8.94
379.093	8.51
379.301	8.58
379.51	6.89
379.718	6.98
379.927	6.59
380.135	6.19
380.344	6.65
380.552	6.05
380.761	6.68
380.969	6.63
381.177	6.58
381.386	6.94
381.594	8.09
381.803	9.06
382.011	9.05
382.219	9.01
382.428	9.41
382.636	9.26
382.845	10.44
383.053	9.57
383.261	9.61
383.469	9.89
383.678	9.8
383.886	8.97
384.094	8.77
384.302	8.9
384.511	9.13
384.719	8.74
384.927	8.54
385.135	8.3
385.343	8.51
385.552	8.76
385.76	8.39
385.968	7.88
386.176	7.67
386.384	7.74
386.592	7.98
386.8	7.63
387.008	7.97
387.216	7.48
387.424	7.07
387.633	6.97
387.841	6.77
388.049	7.01
388.257	7.51
388.465	8.1
388.672	7.68
388.88	7.01
389.088	7.27
389.296	7.44
389.504	7.56
389.712	7.87
389.92	7.84
390.128	7.25
390.336	7.18
390.544	7.13
390.751	6.79
390.959	6.51
391.167	6.83
391.375	6.93
391.583	6.69
391.79	6.93
391.998	6.7
392.206	6.46
392.414	6.72
392.621	6.67
392.829	6.52
393.037	6.38
393.244	6.43
393.452	6.55
393.66	6.27
393.867	6.38
394.075	6.48
394.283	6.55
394.49	6.79
394.698	7.12
394.905	7.16
395.113	7.18
395.32	7.03
395.528	7.38
395.735	7.09
395.943	7.43
396.15	7.29
396.358	6.96
396.565	6.93
396.773	6.86
396.98	6.57
397.188	6.29
397.395	6.4
397.602	6.67
397.81	6.79
398.017	6.45
398.225	6.11
398.432	6.23
398.639	6.16
398.847	6.2
399.054	6.18
399.261	6.37
399.468	6.72
399.676	6.6
399.883	6.42
400.09	6.38
400.297	6.58
400.505	6.64
400.712	6.76
400.919	7.18
401.126	7.17
401.333	7.38
401.54	7.39
401.748	7.12
401.955	7.36
402.162	7.27
402.369	6.96
402.576	6.91
402.783	6.5
402.99	6.86
403.197	7.02
403.404	6.79
403.611	6.6
403.818	6.38
404.025	6.25
404.232	5.95
404.439	6.01
404.646	6.27
404.853	6.44
405.06	6.94
405.267	6.38
405.474	6.03
405.681	6.07
405.887	6.12
406.094	6.18
406.301	6.4
406.508	6.8
406.715	6.94
406.922	6.88
407.128	6.77
407.335	6.38
407.542	6.28
407.749	6.28
407.955	6.41
408.162	6.2
408.369	6.2
408.575	6.24
408.782	5.96
408.989	6.05
409.195	5.76
409.402	5.65
409.609	5.78
409.815	5.93
410.022	6.15
410.228	6.05
410.435	6.02
410.642	5.83
410.848	5.89
411.055	5.86
411.261	5.74
411.468	5.76
411.674	5.92
411.881	6.04
412.087	6.12
412.294	5.72
412.5	6
412.706	6.13
412.913	6.44
413.119	6.52
413.326	6.61
413.532	7
413.738	6.88
413.945	6.78
414.151	6.57
414.357	6.51
414.564	6.62
414.77	6.45
414.976	6.69
415.182	6.47
415.389	6.3
415.595	6.24
415.801	6.03
416.007	6.17
416.214	6.25
416.42	6.24
416.626	6.55
416.832	6.6
417.038	6.4
417.244	6.44
417.45	6.47
417.657	6.38
417.863	6.22
418.069	5.96
418.275	6.02
418.481	5.84
418.687	6.01
418.893	5.84
419.099	5.8
419.305	6.04
419.511	5.81
419.717	5.74
419.923	5.81
420.129	5.95
420.335	6.14
420.541	6.24
420.746	6.31
420.952	6.15
421.158	6.13
421.364	6.16
421.57	6.04
421.776	6
421.982	6.12
422.187	6.04
422.393	5.98
422.599	5.78
422.805	5.61
423.01	5.61
423.216	5.73
423.422	5.7
423.628	5.83
423.833	5.81
424.039	5.8
424.245	5.68
424.45	5.78
424.656	5.88
424.862	5.92
425.067	5.95
425.273	6.03
425.478	6.1
425.684	5.91
425.889	5.66
426.095	5.79
426.301	5.95
426.506	6.05
426.712	5.99
426.917	5.82
427.123	5.94
427.328	5.89
427.533	5.94
427.739	5.89
427.944	6.19
428.15	6.33
428.355	5.89
428.561	5.75
428.766	5.66
428.971	5.82
429.177	5.73
429.382	5.59
429.587	5.44
429.793	5.35
429.998	5.21
430.203	5.14
430.408	5.36
430.614	5.76
430.819	5.62
431.024	5.53
431.229	5.33
431.434	5.44
431.64	5.55
431.845	5.66
432.05	5.73
432.255	5.64
432.46	5.6
432.665	5.19
432.87	5.06
433.076	5.13
433.281	5.26
433.486	5.17
433.691	5.26
433.896	5.33
434.101	5.57
434.306	5.43
434.511	5.56
434.716	5.69
434.921	5.98
435.126	6.22
435.331	6.41
435.535	6.41
435.74	6.49
435.945	6.44
436.15	6.51
436.355	6.4
436.56	6.65
436.765	6.52
436.97	6.22
437.174	6.11
437.379	5.84
437.584	5.95
437.789	5.87
437.993	5.73
438.198	5.58
438.403	5.44
438.608	5.4
438.812	5.05
439.017	5.17
439.222	5.33
439.426	5.25
439.631	5.16
439.836	4.95
440.04	5.02
440.245	4.96
440.45	5.07
440.654	5.23
440.859	5.22
441.063	5.44
441.268	5.32
441.472	5.35
441.677	5.51
441.881	5.77
442.086	5.89
442.29	5.86
442.495	5.99
442.699	6.15
442.904	6.06
443.108	5.92
443.312	6
443.517	5.95
443.721	5.89
443.925	5.79
444.13	5.56
444.334	5.49
444.538	5.51
444.743	5.56
444.947	5.31
445.151	5.28
445.356	5.37
445.56	5.27
445.764	5.36
445.968	5.29
446.173	5.4
446.377	5.43
446.581	5.4
446.785	5.4
446.989	5.26
447.193	5.41
447.398	5.4
447.602	5.4
447.806	5.4
448.01	5.41
448.214	5.54
448.418	5.45
448.622	5.48
448.826	5.46
449.03	5.49
449.234	5.47
449.438	5.39
449.642	5.36
449.846	5.32
450.05	5.41
450.254	5.35
450.458	5.02
450.662	4.89
450.866	4.92
451.069	5.18
451.273	5.15
451.477	5.51
451.681	5.56
451.885	5.58
452.089	5.7
452.292	5.38
452.496	5.45
452.7	5.67
452.904	5.76
453.107	5.76
453.311	5.47
453.515	5.48
453.719	5.26
453.922	5.33
454.126	5.27
454.33	5.07
454.533	5.19
454.737	5.08
454.94	5.07
455.144	5
455.348	4.88
455.551	4.98
455.755	4.95
455.958	5.18
456.162	4.99
456.365	5.01
456.569	5.35
456.772	5.34
456.976	5.63
457.179	5.57
457.383	5.67
457.586	5.7
457.79	5.76
457.993	5.77
458.196	5.64
458.4	5.63
458.603	5.79
458.807	5.47
459.01	5.44
459.213	5.26
459.417	5.32
459.62	5.31
459.823	5.35
460.026	5.24
460.23	5.25
460.433	5.15
460.636	5.07
460.839	4.93
461.042	5.09
461.246	5.16
461.449	5.2
461.652	5.26
461.855	5.24
462.058	5.03
462.261	5.15
462.464	5.05
462.668	5.3
462.871	5.31
463.074	5.2
463.277	5.1
463.48	5.16
463.683	5.18
463.886	5.04
464.089	4.96
464.292	5.13
464.495	5.05
464.698	5.09
464.901	5.09
465.104	5.29
465.306	5.35
465.509	5.17
465.712	5.14
465.915	4.94
466.118	5.07
466.321	5.21
466.524	5.37
466.726	5.48
466.929	5.57
467.132	5.41
467.335	5.39
467.538	5.3
467.74	5.64
467.943	5.46
468.146	5.55
468.348	5.41
468.551	5.47
468.754	5.33
468.956	5.33
469.159	5.24
469.362	5.19
469.564	5.24
469.767	5.44
469.969	5.35
470.172	5.56
470.375	5.51
470.577	5.83
470.78	5.66
470.982	5.72
471.185	5.41
471.387	5.53
471.59	5.5
471.792	5.44
471.995	5.38
472.197	5.32
472.399	5.17
472.602	5.36
472.804	5.19
473.007	5.16
473.209	5.1
473.411	5.18
473.614	4.95
473.816	5.15
474.018	5.11
474.22	5.2
474.423	5.08
474.625	5.05
474.827	4.99
475.03	4.94
475.232	4.97
475.434	5.09
475.636	5.09
475.838	5.33
476.04	5.12
476.243	5.3
476.445	5.24
476.647	5.27
476.849	5.37
477.051	5.31
477.253	5.34
477.455	5.63
477.657	5.46
477.859	5.62
478.061	5.5
478.263	5.48
478.465	5.28
478.667	5.07
478.869	5.15
479.071	5.22
479.273	5.14
479.475	5.15
479.677	5.06
479.879	5.13
480.081	5.07
480.283	5.01
480.485	5.24
480.686	5.28
480.888	5.53
481.09	5.5
481.292	5.49
481.494	5.56
481.695	5.41
481.897	5.42
482.099	5.35
482.301	5.2
482.502	5.26
482.704	5.17
482.906	5.17
483.107	5.11
483.309	5.09
483.511	5.12
483.712	5.1
483.914	5.11
484.115	5.04
484.317	5.07
484.519	5.06
484.72	5.07
484.922	5.02
485.123	5.01
485.325	5.02
485.526	5.01
485.728	4.97
485.929	5.02
486.131	5.03
486.332	5.04
486.534	5.02
486.735	5.13
486.936	5.12
487.138	5.2
487.339	5.26
487.541	5.29
487.742	5.39
487.943	5.35
488.144	5.32
488.346	5.31
488.547	5.32
488.748	5.34
488.95	5.32
489.151	5.3
489.352	5.3
489.553	5.21
489.755	5.12
489.956	5.05
490.157	5.08
490.358	5.09
490.559	5.11
490.76	5.09
490.961	5.09
491.163	5.12
491.364	5.17
491.565	5.15
491.766	5.2
491.967	5.16
492.168	5.12
492.369	5.09
492.57	5.05
492.771	5.14
492.972	5.12
493.173	5.16
493.374	5.14
493.575	5.13
493.776	5.14
493.976	5.04
494.177	5.2
494.378	5.3
494.579	5.33
494.78	5.46
494.981	5.38
495.182	5.59
495.382	5.5
495.583	5.44
495.784	5.35
495.985	5.25
496.185	5.31
496.386	5.27
496.587	5.21
496.788	5.13
496.988	4.93
497.189	4.86
497.39	4.9
497.59	4.86
497.791	4.78
497.992	4.95
498.192	5.09
498.393	5.09
498.593	5.08
498.794	5.11
498.994	5.15
499.195	5.35
499.395	5.29
499.596	5.15
499.796	5.21
499.997	5.49
500.197	5.44
500.398	5.23
500.598	5.2
500.799	5.2
500.999	5.2
501.199	5.41
501.4	5.49
501.6	5.74
501.801	5.91
502.001	6.01
502.201	5.78
502.402	5.76
502.602	5.88
502.802	5.95
503.002	5.91
503.203	5.84
503.403	5.78
503.603	5.56
503.803	5.38
504.003	5.37
504.204	5.36
504.404	5.42
504.604	5.3
504.804	5.37
505.004	5.43
505.204	5.52
505.404	5.67
505.604	5.73
505.804	5.75
506.005	5.77
506.205	5.61
506.405	5.54
506.605	5.59
506.805	5.78
507.005	5.67
507.204	5.64
507.404	5.66
507.604	5.6
507.804	5.5
508.004	5.61
508.204	5.6
508.404	5.6
508.604	5.66
508.804	5.64
509.003	5.5
509.203	5.64
509.403	5.71
509.603	5.6
509.803	5.76
510.002	5.93
510.202	5.72
510.402	5.87
510.602	5.86
510.801	5.96
511.001	5.99
511.201	6.25
511.4	6.18
511.6	6.1
511.8	6.15
511.999	5.92
512.199	5.72
512.398	5.93
512.598	5.85
512.797	5.95
512.997	5.85
513.197	6.09
513.396	5.89
513.596	5.96
513.795	5.9
513.994	5.98
514.194	6.15
514.393	6.29
514.593	6.28
514.792	6.29
514.992	6.33
515.191	6.45
515.39	6.33
515.59	6.37
515.789	6.27
515.988	6.44
516.188	6.35
516.387	6.4
516.586	6.3
516.786	6.31
516.985	6.18
517.184	6.1
517.383	6.11
517.582	6.03
517.782	6.01
517.981	6.04
518.18	6.02
518.379	6.18
518.578	6.12
518.777	6.15
518.976	6.09
519.176	6.2
519.375	6.25
519.574	6.24
519.773	6.33
519.972	6.28
520.171	6.47
520.37	6.52
520.569	6.55
520.768	6.5
520.967	6.59
521.166	6.65
521.365	6.73
521.564	6.77
521.762	6.8
521.961	6.73
522.16	6.91
522.359	6.75
522.558	6.78
522.757	6.71
522.956	6.67
523.154	6.59
523.353	6.71
523.552	6.66
523.751	6.63
523.949	6.52
524.148	6.63
524.347	6.63
524.546	6.79
524.744	6.96
524.943	6.86
525.142	6.92
525.34	6.92
525.539	7.05
525.737	7.02
525.936	7.02
526.135	6.98
526.333	6.97
526.532	7.03
526.73	6.97
526.929	6.85
527.127	6.97
527.326	7
527.524	7.03
527.723	6.93
527.921	7.02
528.12	7.08
528.318	7.17
528.516	7.15
528.715	7.16
528.913	7.12
529.112	7.1
529.31	7.06
529.508	7.05
529.707	7.06
529.905	7.13
530.103	7.12
530.301	7.11
530.5	7.07
530.698	7.1
530.896	6.98
531.094	7.16
531.293	7.26
531.491	7.41
531.689	7.53
531.887	7.58
532.085	7.57
532.283	7.55
532.481	7.65
532.68	7.78
532.878	7.77
533.076	7.82
533.274	7.68
533.472	7.69
533.67	7.66
533.868	7.6
534.066	7.54
534.264	7.53
534.462	7.63
534.66	7.63
534.858	7.54
535.056	7.52
535.253	7.66
535.451	7.75
535.649	7.82
535.847	7.9
536.045	7.94
536.243	8.01
536.441	8.01
536.638	7.95
536.836	7.88
537.034	8
537.232	8.16
537.43	8.12
537.627	8.05
537.825	7.96
538.023	7.94
538.22	7.99
538.418	7.99
538.616	8.07
538.813	8.1
539.011	8.22
539.209	8.22
539.406	8.14
539.604	8.2
539.801	8.2
539.999	8.21
540.196	8.25
540.394	8.3
540.591	8.26
540.789	8.27
540.986	8.3
541.184	8.3
541.381	8.32
541.579	8.32
541.776	8.45
541.974	8.52
542.171	8.56
542.368	8.55
542.566	8.63
542.763	8.83
542.96	8.91
543.158	8.97
543.355	8.96
543.552	8.93
543.75	8.98
543.947	9.02
544.144	9.19
544.341	9.23
544.539	9.31
544.736	9.33
544.933	9.27
545.13	9.18
545.327	9.15
545.524	9.23
545.722	9.34
545.919	9.35
546.116	9.28
546.313	9.24
546.51	9.51
546.707	9.43
546.904	9.53
547.101	9.48
547.298	9.62
547.495	9.64
547.692	9.49
547.889	9.57
548.086	9.62
548.283	9.77
548.48	9.79
548.677	9.71
548.874	9.87
549.07	9.7
549.267	10.01
549.464	9.94
549.661	10.05
549.858	10.38
550.055	10.5
550.251	10.57
550.448	10.28
550.645	10.22
550.842	10.06
551.038	10.12
551.235	10.28
551.432	10.18
551.628	10.52
551.825	10.58
552.022	10.52
552.218	10.45
552.415	10.59
552.612	10.72
552.808	10.74
553.005	10.89
553.201	10.88
553.398	10.86
553.594	10.99
553.791	10.87
553.987	10.99
554.184	11.15
554.38	11.1
554.577	11.13
554.773	11.17
554.97	11.19
555.166	11.12
555.362	11.17
555.559	11.3
555.755	11.23
555.952	11.05
556.148	11.04
556.344	11.07
556.541	11.2
556.737	11.11
556.933	11.26
557.129	11.41
557.326	11.44
557.522	11.45
557.718	11.19
557.914	11.23
558.11	11.36
558.307	11.3
558.503	11.43
558.699	11.52
558.895	11.61
559.091	11.43
559.287	11.55
559.483	11.53
559.679	11.68
559.876	12.12
560.072	12.05
560.268	12.25
560.464	12.43
560.66	12.25
560.856	12.24
561.052	12.45
561.247	12.52
561.443	12.5
561.639	12.84
561.835	12.84
562.031	12.7
562.227	13.05
562.423	12.95
562.619	13.04
562.815	13.23
563.01	13.31
563.206	13.53
563.402	13.78
563.598	13.78
563.793	13.58
563.989	13.47
564.185	13.42
564.381	13.39
564.576	13.6
564.772	13.56
564.968	13.55
565.163	13.79
565.359	13.56
565.555	13.57
565.75	13.65
565.946	13.76
566.141	13.96
566.337	14.18
566.532	14.18
566.728	14.1
566.923	13.97
567.119	13.83
567.314	13.53
567.51	13.65
567.705	13.74
567.901	13.56
568.096	13.75
568.292	13.61
568.487	13.55
568.682	13.51
568.878	13.69
569.073	13.9
569.268	14.16
569.464	14.38
569.659	14.26
569.854	14.14
570.05	14.33
570.245	14.31
570.44	14.47
570.635	14.44
570.831	14.41
571.026	14.43
571.221	14.52
571.416	14.59
571.611	14.67
571.806	14.61
572.002	14.63
572.197	14.53
572.392	14.44
572.587	14.37
572.782	14.57
572.977	14.62
573.172	14.56
573.367	14.49
573.562	14.38
573.757	14.34
573.952	14.48
574.147	14.57
574.342	14.85
574.537	14.93
574.732	14.93
574.927	14.72
575.121	14.77
575.316	14.73
575.511	14.8
575.706	14.79
575.901	14.87
576.096	14.99
576.29	14.98
576.485	15.02
576.68	15.16
576.875	15.5
577.069	15.66
577.264	15.79
577.459	15.92
577.654	15.69
577.848	15.79
578.043	15.84
578.238	15.65
578.432	15.73
578.627	15.61
578.821	15.48
579.016	15.26
579.21	15.1
579.405	14.93
579.6	14.94
579.794	15.74
579.989	15.79
580.183	16.12
580.378	16.31
580.572	16.29
580.766	16.21
580.961	16.3
581.155	16.34
581.35	16.63
581.544	16.56
581.738	16.73
581.933	16.39
582.127	16.64
582.321	16.01
582.516	16.06
582.71	16.3
582.904	16.5
583.099	16.33
583.293	16.24
583.487	16.29
583.681	16.28
583.875	15.9
584.07	15.72
584.264	15.4
584.458	15.66
584.652	15.42
584.846	15.27
585.04	15.05
585.234	15.13
585.428	15.36
585.623	15.45
585.817	15.72
586.011	15.94
586.205	16.08
586.399	16.4
586.593	16.41
586.787	16.66
586.981	16.54
587.174	17.04
587.368	17.16
587.562	17.23
587.756	17.17
587.95	17.05
588.144	16.98
588.338	17.11
588.532	16.98
588.725	16.95
588.919	17.02
589.113	17.28
589.307	16.9
589.501	16.84
589.694	16.72
589.888	16.51
590.082	16.59
590.275	16.78
590.469	16.66
590.663	16.82
590.856	16.9
591.05	16.73
591.244	16.55
591.437	16.6
591.631	16.58
591.824	16.53
592.018	16.69
592.212	16.85
592.405	16.83
592.599	16.84
592.792	16.78
592.986	16.74
593.179	16.91
593.372	17.23
593.566	17.65
593.759	17.64
593.953	17.83
594.146	17.77
594.339	17.81
594.533	17.8
594.726	17.96
594.92	17.96
595.113	18.13
595.306	18.05
595.499	17.96
595.693	17.61
595.886	17.76
596.079	17.61
596.272	17.7
596.466	17.4
596.659	17.52
596.852	17.42
597.045	17.56
597.238	17.32
597.431	17.41
597.624	17.15
597.818	17.2
598.011	17.05
598.204	17.27
598.397	17.27
598.59	17.32
598.783	17.17
598.976	17.25
599.169	17.12
599.362	17.37
599.555	17.12
599.748	17.31
599.941	17.45
600.134	17.76
600.326	17.61
600.519	17.42
600.712	17.79
600.905	17.9
601.098	17.78
601.291	17.77
601.483	17.95
601.676	18.19
601.869	18.13
602.062	17.96
602.255	17.79
602.447	17.74
602.64	17.71
602.833	17.61
603.025	17.55
603.218	17.88
603.411	17.91
603.603	17.68
603.796	17.65
603.989	17.76
604.181	17.87
604.374	18.05
604.566	18.16
604.759	18.34
604.951	18.31
605.144	18.4
605.336	18.27
605.529	18.19
605.721	18.13
605.914	18.16
606.106	18.14
606.299	18.14
606.491	17.98
606.683	17.99
606.876	17.89
607.068	17.99
607.26	17.9
607.453	17.99
607.645	18.19
607.837	18.46
608.03	18.48
608.222	18.54
608.414	18.43
608.606	18.42
608.799	18.27
608.991	18.1
609.183	17.95
609.375	17.99
609.567	17.92
609.759	18.09
609.952	18.09
610.144	18.15
610.336	18.21
610.528	18.21
610.72	18.25
610.912	18.42
611.104	18.53
611.296	18.68
611.488	18.69
611.68	18.45
611.872	18.1
612.064	18.02
612.256	18.12
612.448	17.85
612.64	17.87
612.832	18.13
613.023	18.07
613.215	18.26
613.407	18.27
613.599	18.45
613.791	18.87
613.983	18.99
614.174	19.09
614.366	18.93
614.558	19.23
614.75	19.39
614.941	19.37
615.133	19.18
615.325	19.53
615.516	19.28
615.708	19.19
615.9	19.15
616.091	19.17
616.283	19.09
616.475	19.02
616.666	19.17
616.858	19.26
617.049	18.83
617.241	18.95
617.432	18.8
617.624	18.8
617.815	18.89
618.007	18.93
618.198	18.59
618.39	18.72
618.581	18.83
618.773	18.25
618.964	18.16
619.155	18.71
619.347	18.64
619.538	18.34
619.729	18.18
619.921	17.89
620.112	17.86
620.303	18.12
620.494	18.06
620.686	18.23
620.877	18.62
621.068	18.62
621.259	18.42
621.451	18.83
621.642	19.05
621.833	19.96
622.024	20.17
622.215	19.92
622.406	20.15
622.597	20.29
622.788	20
622.98	19.85
623.171	19.75
623.362	19.76
623.553	19.64
623.744	19.62
623.935	19.18
624.126	19.28
624.317	19.4
624.508	19.25
624.698	19.04
624.889	19.07
625.08	19.01
625.271	19.02
625.462	19.11
625.653	19.01
625.844	19.19
626.034	19.22
626.225	19.28
626.416	19.47
626.607	19.37
626.798	19.34
626.988	19.5
627.179	19.66
627.37	19.75
627.56	19.7
627.751	19.85
627.942	19.93
628.132	19.82
628.323	19.7
628.514	19.87
628.704	20.03
628.895	20.33
629.085	20.16
629.276	20.14
629.466	20.55
629.657	20.55
629.847	20.24
630.038	19.71
630.228	19.74
630.419	20.09
630.609	19.82
630.8	19.77
630.99	19.35
631.181	19.62
631.371	19.51
631.561	19.29
631.752	19.44
631.942	19.66
632.132	20.02
632.323	20.2
632.513	19.92
632.703	20.15
632.893	20.27
633.084	20.65
633.274	20.6
633.464	20.88
633.654	21.05
633.844	20.88
634.034	20.78
634.225	20.73
634.415	20.92
634.605	20.61
634.795	20.63
634.985	20.35
635.175	20.26
635.365	20.38
635.555	20.13
635.745	20.02
635.935	20.14
636.125	20.53
636.315	20.89
636.505	20.81
636.695	20.93
636.885	21.02
637.075	21.3
637.265	21.5
637.455	21.32
637.644	21.43
637.834	20.87
638.024	20.95
638.214	20.89
638.404	20.61
638.593	20.51
638.783	20.85
638.973	20.45
639.163	20.7
639.352	20.79
639.542	20.87
639.732	21.1
639.921	21.37
640.111	21.51
640.301	21.22
640.49	21.54
640.68	21.64
640.87	21.23
641.059	21.24
641.249	20.93
641.438	20.52
641.628	20.73
641.817	20.82
642.007	20.87
642.196	20.8
642.386	20.94
642.575	20.47
642.764	20.51
642.954	20.85
643.143	20.95
643.333	20.87
643.522	20.83
643.711	20.36
643.901	19.68
644.09	19.64
644.279	18.97
644.469	18.81
644.658	19.15
644.847	19.09
645.036	19.4
645.226	19.57
645.415	19.55
645.604	19.96
645.793	19.95
645.982	20.64
646.171	20.74
646.361	21.36
646.55	21.27
646.739	21.69
646.928	21.55
647.117	21.16
647.306	20.97
647.495	21.14
647.684	21.4
647.873	21.51
648.062	21.3
648.251	21.28
648.44	20.91
648.629	20.96
648.818	20.39
649.007	20.44
649.196	20.73
649.384	20.52
649.573	20.53
649.762	20.36
649.951	20.23
650.14	20.21
650.328	20.41
650.517	20.78
650.706	20.92
650.895	20.93
651.083	20.87
651.272	20.45
651.461	20.36
651.65	20.5
651.838	19.82
652.027	20.4
652.216	20.2
652.404	19.63
652.593	19.2
652.781	19.31
652.97	19.42
653.158	19.3
653.347	19.6
653.535	20.12
653.724	19.83
653.912	20.32
654.101	20.26
654.289	20.83
654.478	21.33
654.666	21.59
654.855	21.56
655.043	21.73
655.231	21.86
655.42	21.83
655.608	21.43
655.796	21.9
655.985	21.79
656.173	21.95
656.361	21.67
656.55	21.57
656.738	21.12
656.926	20.79
657.114	20.47
657.302	20.82
657.491	20.7
657.679	20.94
657.867	20.63
658.055	20.58
658.243	20.52
658.431	20.72
658.619	20.79
658.807	21.26
658.996	21.32
659.184	21.66
659.372	21.66
659.56	22.06
659.748	22.04
659.936	21.95
660.124	22.19
660.311	22.19
660.499	22.31
660.687	22.37
660.875	22.1
661.063	22.19
661.251	22.02
661.439	21.89
661.627	21.89
661.814	21.83
662.002	21.96
662.19	21.84
662.378	21.91
662.565	21.2
662.753	21.38
662.941	21.85
663.129	22.16
663.316	21.58
663.504	20.99
663.692	20.66
663.879	20.74
664.067	20.75
664.254	20.87
664.442	21.06
664.63	21.86
664.817	21.14
665.005	21.4
665.192	21.15
665.38	22.23
665.567	22.48
665.755	22.34
665.942	22.43
666.13	22.91
666.317	23.31
666.504	22.95
666.692	22.4
666.879	22.94
667.067	22.08
667.254	21.78
667.441	20.9
667.629	21.35
667.816	21.59
668.003	21.52
668.19	21.38
668.378	21.03
668.565	20.95
668.752	21.12
668.939	21.39
669.127	22.32
669.314	22.66
669.501	22.81
669.688	22.62
669.875	22.83
670.062	22.74
670.249	22.84
670.436	22.85
670.623	22.76
670.81	23.26
670.997	23.03
671.184	22.86
671.371	22.84
671.558	23.4
671.745	23.38
671.932	22.9
672.119	23.55
672.306	23.01
672.493	22.65
672.68	22.69
672.867	22.17
673.054	22.75
673.24	22.77
673.427	22.6
673.614	22.19
673.801	22.55
673.988	22.88
674.174	22.8
674.361	23.08
674.548	23.04
674.734	23.62
674.921	23.96
675.108	22.98
675.294	23.06
675.481	23.45
675.668	24.06
675.854	23.9
676.041	23.42
676.227	23.26
676.414	23.23
676.601	23.37
676.787	23.47
676.974	23.2
677.16	23.9
677.347	22.96
677.533	22.97
677.719	22.36
677.906	22.67
678.092	23.18
678.279	22.88
678.465	22.96
678.651	22.94
678.838	22.73
679.024	22.84
679.21	23.13
679.397	23.46
679.583	23.42
679.769	23.48
679.955	23.07
680.142	22.88
680.328	22.77
680.514	23.13
680.7	23.34
680.886	23.16
681.073	22.84
681.259	22.7
681.445	22.92
681.631	22.77
681.817	23.04
682.003	22.99
682.189	23.07
682.375	23.32
682.561	22.48
682.747	23.11
682.933	23.16
683.119	23.55
683.305	23.44
683.491	23.04
683.677	23.13
683.863	22.56
684.049	23.16
684.235	23.3
684.42	22.94
684.606	23.35
684.792	23.06
684.978	22.98
685.164	23.04
685.349	23.05
685.535	22.99
685.721	23.04
685.907	23.13
686.092	22.88
686.278	22.81
686.464	23.15
686.649	23.56
686.835	23.1
687.021	23.13
687.206	23.19
687.392	23.01
687.577	23.49
687.763	23.62
687.948	23.86
688.134	23.62
688.319	23.51
688.505	24.41
688.69	24.19
688.876	24.27
689.061	24.08
689.247	24.29
689.432	23.97
689.618	24.31
689.803	24.82
689.988	24.85
690.174	25.23
690.359	25.62
690.544	24.19
690.73	24.32
690.915	24.78
691.1	25.05
691.285	24.78
691.471	24.89
691.656	24.49
691.841	23.61
692.026	23.63
692.211	23.55
692.396	23.29
692.582	24.03
692.767	24.25
692.952	23.74
693.137	23.71
693.322	23.88
693.507	24.3
693.692	24.15
693.877	24.5
694.062	25.05
694.247	25.06
694.432	25
694.617	25.06
694.802	24.47
694.987	24.41
695.172	24.23
695.357	24.3
695.541	24.35
695.726	24.46
695.911	23.94
696.096	23.44
696.281	23.6
696.466	24.11
696.65	24.23
696.835	24.21
697.02	24.41
697.204	24.63
697.389	24.03
697.574	24.13
697.759	24.08
697.943	24.57
698.128	24.25
698.312	23.63
698.497	23.55
698.682	23.67
698.866	23.87
699.051	23.27
699.235	23.1
699.42	23.4
699.604	23.27
699.789	22.96
699.973	22.68
700.158	22.95
700.342	23.39
700.527	22.91
700.711	22.6
700.895	22.29
701.08	22.68
701.264	22.12
701.448	22.04
701.633	21.8
701.817	22.17
702.001	22.32
702.186	22.31
702.37	21.87
702.554	22.41
702.738	22.22
702.923	22.24
703.107	21.87
703.291	22.44
703.475	22.14
703.659	21.91
703.843	21.62
704.027	22.12
704.212	22.25
704.396	22.02
704.58	21.41
704.764	21.08
704.948	20.86
705.132	21.84
705.316	22.19
705.5	21.7
705.684	21.61
705.868	22.5
706.052	21.67
706.235	21.28
706.419	21.76
706.603	21.64
706.787	22.04
706.971	23.02
707.155	23.21
707.339	23.76
707.522	24.84
707.706	25.88
707.89	24.64
708.074	25
708.257	25.42
708.441	25.23
708.625	25.33
708.808	24.96
708.992	24.9
709.176	24.93
709.359	24.43
709.543	24.62
709.727	24.12
709.91	25.28
710.094	25.2
710.277	25.67
710.461	25.8
710.644	27.05
710.828	27.25
711.011	26.64
711.195	26.51
711.378	26.27
711.562	25.92
711.745	25.59
711.928	24.91
712.112	24.97
712.295	24.33
712.478	24.44
712.662	23.72
712.845	24.04
713.028	24.29
713.212	23.48
713.395	23.43
713.578	22.95
713.761	23.41
713.945	24.1
714.128	23.97
714.311	24.2
714.494	24.14
714.677	23.41
714.86	23.22
715.043	23.72
715.227	24.06
715.41	24.8
715.593	25.68
715.776	25.44
715.959	25.56
716.142	26.03
716.325	26.14
716.508	26.39
716.691	27
716.874	27.75
717.057	27.64
717.239	27.96
717.422	27.51
717.605	26.86
717.788	26.61
717.971	26.1
718.154	25.67
718.337	24.84
718.519	24.7
718.702	25.35
718.885	25.67
719.068	24.99
719.25	24.49
719.433	24.54
719.616	24.98
719.798	25.18
719.981	25.52
720.164	25.84
720.346	25.96
720.529	27.3
720.712	26.31
720.894	24.55
721.077	24.57
721.259	25.49
721.442	25.85
721.624	25.6
721.807	26.5
721.989	25.46
722.172	25.21
722.354	26.11
722.537	24.79
722.719	25.44
722.901	25.73
723.084	26.33
723.266	26.42
723.448	25.99
723.631	25.86
723.813	25.77
723.995	26.76
724.178	27.61
724.36	27.72
724.542	28.06
724.724	27.18
724.907	27.59
725.089	27.47
725.271	26.75
725.453	26.78
725.635	26.98
725.817	26.65
725.999	26.36
726.181	25.67
726.364	25.07
726.546	25.04
726.728	25.23
726.91	26.07
727.092	26.79
727.274	27.23
727.456	27.81
727.638	27.55
727.819	27.83
728.001	28.71
728.183	29.17
728.365	29.69
728.547	30.34
728.729	30.51
728.911	29.75
729.093	30.04
729.274	29.5
729.456	29.03
729.638	29.4
729.82	29.33
730.001	28.03
730.183	27.29
730.365	26.27
730.546	25.91
730.728	26.31
730.91	26.18
731.091	25.2
731.273	25.13
731.455	24.47
731.636	24.33
731.818	24.52
731.999	25.22
732.181	25.42
732.362	26.39
732.544	26.04
732.725	25.85
732.907	26.61
733.088	26.53
733.27	26.49
733.451	27.66
733.633	28.5
733.814	28.12
733.995	27.73
734.177	28.91
734.358	28.32
734.539	28.24
734.721	27.89
734.902	27.47
735.083	26.76
735.264	27.19
735.446	27.14
735.627	26.02
735.808	26.38
735.989	26.84
736.17	25.86
736.351	26.05
736.533	25.96
736.714	25.88
736.895	25.63
737.076	26.34
737.257	26.4
737.438	25.52
737.619	26.18
737.8	24.73
737.981	23.8
738.162	23.05
738.343	22.06
738.524	22.72
738.705	23.52
738.886	22.99
739.067	22.5
739.247	22.68
739.428	23.29
739.609	22.31
739.79	22.84
739.971	23.47
740.151	24.39
740.332	24.76
740.513	24.41
740.694	24.2
740.874	24.71
741.055	24.97
741.236	25.5
741.417	25.02
741.597	24.81
741.778	25.01
741.958	24.32
742.139	24.62
742.32	25.19
742.5	25.49
742.681	26.31
742.861	26.2
743.042	26.47
743.222	25.71
743.403	26.15
743.583	28.15
743.764	28.25
743.944	28.61
744.124	27.69
744.305	28.3
744.485	29.01
744.666	29.17
744.846	30.27
745.026	31.74
745.207	32.25
745.387	31.27
745.567	29.48
745.747	29.61
745.928	30.81
746.108	29.76
746.288	30.08
746.468	28.58
746.648	28.59
746.829	27.62
747.009	26.21
747.189	25.83
747.369	25.57
747.549	27.22
747.729	27.41
747.909	26.57
748.089	27.87
748.269	28.25
748.449	28.75
748.629	27.97
748.809	28.6
748.989	28.59
749.169	28.16
749.349	28.68
749.529	29.13
749.709	28.86
749.889	28.48
750.068	28.33
750.248	28.01
750.428	28.14
750.608	28.38
750.788	27.46
750.967	26.82
751.147	26.67
751.327	27.45
751.507	26.71
751.686	27.41
751.866	27.41
752.046	27.39
752.225	26.32
752.405	26.84
752.585	27.06
752.764	28.29
752.944	29.3
753.123	30.33
753.303	31.03
753.482	29.34
753.662	28.44
753.841	30.05
754.021	29.54
754.2	29.7
754.38	28.54
754.559	27.99
754.739	27.06
754.918	25.59
755.097	24.88
755.277	23.1
755.456	24.77
755.635	24.79
755.815	22.14
755.994	21.93
756.173	22.41
756.352	22.75
756.532	22.46
756.711	23.54
756.89	24.3
757.069	24.66
757.248	24.83
757.427	24.67
757.607	25.05
757.786	27.94
757.965	28.2
758.144	27.42
758.323	27.37
758.502	26.29
758.681	25.38
758.86	25.39
759.039	26.23
759.218	26.44
759.397	26.3
759.576	26.56
759.755	24.92
759.934	24.85
760.113	26.24
760.291	26.59
760.47	28.14
760.649	26.89
760.828	27.44
761.007	26.62
761.186	27.3
761.364	26.53
761.543	27.01
761.722	27.13
761.901	27.87
762.079	27.76
762.258	27.15
762.437	27.63
762.615	29.82
762.794	29.95
762.972	30.54
763.151	29.87
763.33	30.01
763.508	30.08
763.687	30.13
763.865	29.41
764.044	27.9
764.222	28.15
764.401	27.53
764.579	26.6
764.758	27.33
764.936	26.54
765.114	26.95
765.293	27.93
765.471	27.61
765.65	28.12
765.828	28.34
766.006	28.96
766.184	29.44
766.363	28.86
766.541	29.35
766.719	26.63
766.898	27.55
767.076	29.32
767.254	28.06
767.432	27.62
767.61	26.37
767.788	27.12
767.967	29.86
768.145	30.36
768.323	29.8
768.501	31.6
768.679	32.7
768.857	32.21
769.035	30.12
769.213	29.15
769.391	29.62
769.569	31.28
769.747	31.39
769.925	29.43
770.103	28.75
770.281	30.58
770.459	27.25
770.636	28.29
770.814	27.71
770.992	27.96
771.17	28.55
771.348	27.24
771.525	25.93
771.703	27.01
771.881	27.04
772.059	28.08
772.236	27.77
772.414	28.35
772.592	27.95
772.769	28.54
772.947	30.32
773.125	29.59
773.302	31.56
773.48	31.13
773.657	29.54
773.835	30.86
774.013	29.99
774.19	29.98
774.368	30.46
774.545	30.36
774.723	30.98
774.9	28.8
775.077	29.22
775.255	26.15
775.432	27.83
775.61	27.67
775.787	24.94
775.964	25.66
776.142	24.3
776.319	24.17
776.496	24.19
776.674	25.34
776.851	27.6
777.028	30.53
777.205	32.12
777.382	31.67
777.56	32.77
777.737	34.61
777.914	34.27
778.091	35.5
778.268	36.03
778.445	37.61
778.622	34.58
778.8	31.08
778.977	29.67
779.154	29.27
779.331	29.7
779.508	28.1
779.685	28.65
779.862	28.24
780.038	27.01
780.215	26.21
780.392	22.52
780.569	24.64
780.746	25.16
780.923	25.69
781.1	25.07
781.277	23.63
781.453	23.89
781.63	22.07
781.807	20.7
781.984	22.45
782.16	24.04
782.337	27.16
782.514	25.76
782.691	29.13
782.867	28.99
783.044	31.02
783.221	35.12
783.397	34.11
783.574	34.45
783.75	34.45
783.927	35.57
784.103	35.05
784.28	37.81
784.456	37.37
784.633	36.97
784.809	34.89
784.986	34.72
785.162	32.46
785.339	33.45
785.515	35.33
785.692	34.73
785.868	33.91
786.044	34.28
786.221	31.11
786.397	34.04
786.573	34.81
786.749	35.78
786.926	36.14
787.102	32.24
787.278	33.16
787.454	31.55
787.631	34.02
787.807	32.73
787.983	34.36
788.159	31.57
788.335	27.8
788.511	24.74
788.687	26.83
788.863	25.94
789.039	29.75
789.216	27.98
789.392	24.76
789.568	23.71
789.744	25.22
789.919	22.32
790.095	24.86
790.271	28
790.447	29.47
790.623	26.88
790.799	25.42
790.975	22.52
791.151	23.88
791.327	27.66
791.502	31.72
791.678	31.56
791.854	31.87
792.03	32.79
792.205	29
792.381	29.83
792.557	31.4
792.733	33.81
792.908	36.66
793.084	33.89
793.259	34.72
793.435	30.33
793.611	28.82
793.786	31.66
793.962	29.83
794.137	32.41
794.313	30.16
794.488	28.78
794.664	32.78
794.839	33.14
795.015	34.81
795.19	33.99
795.366	30.84
795.541	26.12
795.716	25.11
795.892	25.43
796.067	28.29
796.242	30.26
796.418	32.32
796.593	28.41
796.768	28.93
796.944	30.18
797.119	29.08
797.294	32.8
797.469	35.38
797.644	31.28
797.82	32.55
797.995	31.36
798.17	32.45
798.345	33.4
798.52	33.75
798.695	33.08
798.87	32.6
799.045	29.86
799.22	32.3
799.395	36.38
799.57	39.72
799.745	40.7
799.92	38.88
800.095	37.92
800.27	37.9
800.445	35.32
800.62	35.4
800.795	35.65
800.97	39.45
801.145	36.42
801.319	35.58
801.494	34.37
801.669	34.16
801.844	38.62
802.018	38.37
802.193	35.14
802.368	37.48
802.543	38.56
802.717	38.86
802.892	37.73
803.067	33.91
803.241	32.11
803.416	34.53
803.59	31.27
803.765	25.66
803.94	24.06
804.114	24.58
804.289	22.89
804.463	22.95
804.638	25.83
804.812	25.92
804.986	25.61
805.161	25.61
805.335	24.48
805.51	24.49
805.684	24.49
805.858	24.55
806.033	27.51
806.207	27.89
806.381	28.68
806.556	26.01
806.73	27.81
806.904	32.26
807.078	35
807.253	33.92
807.427	29.56
807.601	33.8
807.775	32.63
807.949	31.28
808.123	34.89
808.298	33.37
808.472	31.58
808.646	25.48
808.82	21.96
808.994	16.99
809.168	15.41
809.342	23.5
809.516	19.01
809.69	22.04
809.864	21.79
810.038	22.28
810.212	20.72
810.385	20.19
810.559	27.07
810.733	24.74
810.907	28.91
811.081	31.27
811.255	28.16
811.428	32.52
811.602	31.57
811.776	29.89
811.95	29.5
812.123	30.14
812.297	28.73
812.471	23.22
812.644	26.84
812.818	21.72
812.992	21.14
813.165	22.24
813.339	19.85
813.512	21.97
813.686	24.41
813.86	27.56
814.033	28.94
814.207	34.49
814.38	39.89
814.554	41.18
814.727	45.07
814.9	46.49
815.074	46.58
815.247	46.39
815.421	45.01
815.594	42.53
815.767	40.52
815.941	41.45
816.114	39.92
816.287	36.81
816.46	31.88
816.634	34.04
816.807	31.36
816.98	26.99
817.153	29.29
817.327	28.25
817.5	35.36
817.673	31.96
817.846	32.46
818.019	31.42
818.192	30.64
818.365	40.62
818.538	41.1
818.711	40.17
818.884	42.22
819.057	39.95
819.23	40.9
819.403	32.06
819.576	32.32
819.749	32.17
819.922	32.6
820.095	35.38
820.268	30.65
820.441	29.87
820.614	31.49
820.786	31.27
820.959	31.41
821.132	28.77
821.305	31.66
821.477	33.78
821.65	32.88
821.823	32.64
821.996	32.26
822.168	31.52
822.341	31.27
822.514	30.76
822.686	31.03
822.859	30.67
823.031	31.02
823.204	30.64
823.376	30.55
823.549	30.61
823.722	31.35
823.894	31.75
824.067	32.1
824.239	32.67
824.411	32.58
824.584	32.81
824.756	33.08
824.929	34.12
825.101	34.32
825.273	33.29
825.446	33.69
825.618	34.09
825.79	33.88
825.963	34.63
826.135	34.92
826.307	36.61
826.479	37.45
826.652	38.02
826.824	38.94
826.996	38.6
827.168	38.74
827.34	37.51
827.512	36.65
827.684	36.88
827.856	36.71
828.029	34.74
828.201	33.34
828.373	31.81
828.545	30.69
828.717	29.92
828.889	31.32
829.061	32.2
829.232	33.77
829.404	32.68
829.576	32.62
829.748	32.58
829.92	34.2
830.092	35.39
830.264	35.82
830.436	36.99
830.607	37.12
830.779	35.17
830.951	33.44
831.123	30.13
831.294	30.81
831.466	32.64
831.638	33.69
831.809	33.61
831.981	31.17
832.153	33.38
832.324	31.42
832.496	30.58
832.667	27.42
832.839	27.1
833.011	29.2
833.182	29.02
833.354	25.61
833.525	23.06
833.697	24.58
833.868	24.59
834.039	23.44
834.211	27.42
834.382	27.08
834.554	27.67
834.725	27.47
834.896	27.71
835.068	27.01
835.239	27.42
835.41	26.83
835.581	26.49
835.753	27.21
835.924	28.53
836.095	22.5
836.266	20.05
836.438	20.34
836.609	18.91
836.78	21.36
836.951	24.42
837.122	23.93
837.293	25.18
837.464	25.73
837.635	29.26
837.806	25.55
837.977	30.47
838.148	36.83
838.319	41.41
838.49	44.27
838.661	39.59
838.832	33.74
839.003	38.71
839.174	42.29
839.345	38.79
839.516	36.86
839.687	43.83
839.857	48.18
840.028	46.15
840.199	46.21
840.37	45.94
840.54	45.94
840.711	46.46
840.882	45.07
841.053	39.5
841.223	46.19
841.394	43.9
841.564	43.49
841.735	39.49
841.906	37.6
842.076	33.07
842.247	36.25
842.417	29.98
842.588	28.77
842.758	35.46
842.929	30.66
843.099	24.01
843.27	29.85
843.44	21.39
843.611	29.46
843.781	23.64
843.951	14.72
844.122	17.12
844.292	25.37
844.462	26.22
844.633	10.22
844.803	23.93
844.973	23.34
845.144	19.05
845.314	13.99
845.484	14.93
845.654	27.74
845.824	44.54
845.995	31.58
846.165	41.8
846.335	47.36
846.505	53.42
846.675	66.99
846.845	79.28
847.015	65.04
847.185	59.64
847.355	57.66
847.525	32.33
847.695	41.65
847.865	48.44
848.035	22.27
848.205	17.65
848.375	32.36
848.545	12.85
848.715	6.35
848.884	8.35
849.054	21.98
849.224	26.25
849.394	45.94
849.564	34.42
849.733	42.55
849.903	56.95
850.073	65.11
850.243	66.55
850.412	59.79
850.582	65.31
850.752	50.46
850.921	42.33
851.091	29.14
851.26	25.4
851.43	35.06
851.599	19.23
851.769	23.15
851.939	19.92
852.108	8.43
852.278	21.67
852.447	16.75
852.616	28.86
852.786	38.03
852.955	44.71
853.125	45.86
853.294	41.02
853.463	57.22
853.633	60.5
853.802	66.55
853.971	64.5
854.141	58.44
854.31	65.79
854.479	56.12
854.648	41.47
854.818	51.53
854.987	53.06
855.156	49.34
855.325	50.28
855.494	36.23
855.663	29.35
855.832	34.89
856.001	36.12
856.171	28.65
856.34	25.32
856.509	39.29
856.678	18.7
856.847	-5.69
857.016	25.34
857.185	1.35
857.353	25.68
857.522	39.09
857.691	27.26
857.86	25.79
858.029	33.45
858.198	24.46
858.367	30.86
858.535	22.32
858.704	52.3
858.873	47.78
859.042	57.13
859.21	30.04
859.379	14.26
859.548	32.81
859.717	28.64
859.885	35.99
860.054	65.74
860.222	79.92
860.391	88.85
860.56	80.48
860.728	63.01
860.897	55.58
861.065	76.1
861.234	80.87
861.402	63.34
861.571	74.65
861.739	60.29
861.908	38.73
862.076	43.69
862.244	44.99
862.413	39.34
862.581	60.72
862.749	63.94
862.918	58.94
863.086	53.26
863.254	80.7
863.423	69.18
863.591	84.79
863.759	93.07
863.927	69.82
864.096	59.09
864.264	51.14
864.432	41.85
864.6	44.91
864.768	33.09
864.936	37.08
865.104	41.13
865.272	38.9
865.44	46.45
865.608	38.83
865.776	51.25
865.944	59.85
866.112	56.15
866.28	62.35
866.448	74.93
866.616	101.06
866.784	102.55
866.952	87.24
867.12	91.22
867.288	86.96
867.455	91.59
867.623	66.83
867.791	57.18
867.959	71.97
868.127	120.41
868.294	80.14
868.462	24.59
868.63	94.5
868.797	93.53
868.965	1846.07
869.133	171.91
869.3	153.81
869.468	166.07
869.636	156.36
869.803	122.05
869.971	99.09
870.138	112.5
870.306	146.38
870.473	118.32
870.641	110.32
870.808	95.26
870.975	95.63
871.143	104.96
871.31	103.57
871.478	93.26
871.645	110.09
871.812	291.28
871.98	211.52
872.147	262.6
872.314	192.75
872.482	172.9
872.649	125.52
872.816	105.31
872.983	102.56
873.15	135.68
873.318	121.41
873.485	114.37
873.652	101.67
873.819	108.86
873.986	90.86
874.153	111.31
874.32	118.77
874.487	120.05
874.654	156.96
874.821	165.03
874.988	103.1
875.155	132.39
875.322	119.99
875.489	107.03
875.656	83.51
875.823	101.37
875.99	78.22
876.157	85.04
876.324	51.36
876.49	32.47
876.657	55.36
876.824	81.33
876.991	68.55
877.157	61.91
877.324	93.67
877.491	91.55
877.658	9.2
877.824	39.62
877.991	53.23
878.157	65.39
878.324	73.26
878.491	57.76
878.657	24.94
878.824	45.67
878.99	90.22
879.157	69.19
879.323	68.66
879.49	103.31
879.656	88.61
879.823	63.43
879.989	55.33
880.156	55.01
880.322	40.94
880.488	40.21
880.655	53.12
880.821	48.02
880.987	43.47
881.154	34.38
881.32	13.96
881.486	5.66
881.652	16.14
881.819	21.67
881.985	22.01
882.151	23.33
882.317	30.54
882.483	26.46
882.649	27.92
882.816	36.36
882.982	38.39
883.148	40.87
883.314	37.93
883.48	35.34
883.646	33.92
883.812	37.46
883.978	36.89
884.144	39.43
884.31	41.38
884.476	39.87
884.642	34.86
884.807	37.02
884.973	36.33
885.139	39.03
885.305	41.97
885.471	41.41
885.637	38.57
885.802	44.14
885.968	39.29
886.134	35.44
886.3	35.47
886.465	33.25
886.631	30.89
886.797	36.15
886.962	41.08
887.128	42.35
887.293	40.78
887.459	36.49
887.625	33.94
887.79	42.74
887.956	49.86
888.121	54.92
888.287	65.79
888.452	59.96
888.618	55.99
888.783	49.47
