Data from 2937859_Reflection_2.txt Node
Date: Wed Jul 15 15:30:07 EDT 2015
User: robert
Spectrometer: USB4E03001
Autoset integration time: false
Trigger mode: 4
Integration Time (sec): 1.000000E-1
Scans to average: 10
Electric dark correction enabled: true
Nonlinearity correction enabled: false
Boxcar width: 5
Stray light correction enabled: false
XAxis mode: Wavelengths
Stop averaging: false
Number of Pixels in Spectrum: 3648
>>>>>Begin Spectral Data<<<<<
177.566	79.18
177.785	71.22
178.005	118.81
178.225	91.37
178.445	-40.83
178.665	-235.2
178.885	2217.78
179.105	-30.3
179.324	-107.25
179.544	160.93
179.764	118.12
179.984	83.07
180.204	75.23
180.423	76.8
180.643	58.28
180.863	42.39
181.083	4.32
181.302	25.3
181.522	53.1
181.742	56.09
181.961	77.21
182.181	82.75
182.401	127.01
182.621	78.35
182.84	116.37
183.06	110.31
183.279	111.89
183.499	132.85
183.719	185.64
183.938	235.79
184.158	200.66
184.377	181.56
184.597	132.65
184.816	133.3
185.036	210.9
185.256	161.1
185.475	222.15
185.695	206.78
185.914	281.98
186.134	55.25
186.353	4.48
186.572	-25.78
186.792	9.93
187.011	49.06
187.231	-12.06
187.45	11.89
187.67	8.19
187.889	4.01
188.108	-15.73
188.328	47.39
188.547	49.44
188.766	61.8
188.986	63.03
189.205	80.12
189.424	86.06
189.644	181.88
189.863	181.14
190.082	348.18
190.302	-839.07
190.521	111.24
190.74	10.36
190.959	16.03
191.178	11.13
191.398	-2.51
191.617	-55.37
191.836	-42.12
192.055	-49.61
192.274	-8.24
192.494	38.11
192.713	41.6
192.932	49.87
193.151	83.04
193.37	113.76
193.589	1864.55
193.808	421.15
194.027	533.26
194.246	229.17
194.465	133.26
194.685	147.78
194.904	64.54
195.123	58.36
195.342	33.66
195.561	19.2
195.78	14.76
195.999	21.91
196.218	26.63
196.436	23.14
196.655	19.09
196.874	17.97
197.093	30.24
197.312	44.02
197.531	45.63
197.75	59.15
197.969	86.36
198.188	94.02
198.407	105.09
198.625	128.47
198.844	188.99
199.063	233.57
199.282	165.18
199.501	135.56
199.719	311.01
199.938	151.92
200.157	98.91
200.376	75.65
200.594	65.42
200.813	51.63
201.032	50.01
201.251	48.46
201.469	73.76
201.688	71.97
201.907	73.04
202.125	53.57
202.344	62.92
202.563	152.46
202.781	218.45
203	164.24
203.218	188.14
203.437	-9930
203.656	-408.71
203.874	-122.44
204.093	-124.92
204.311	-37.56
204.53	-236.98
204.748	-58.24
204.967	-89.98
205.185	-35.94
205.404	-48.9
205.622	-8.81
205.841	-32.12
206.059	4.73
206.278	31.64
206.496	55.99
206.715	70.02
206.933	95.28
207.151	93.05
207.37	90.08
207.588	93.87
207.806	86.16
208.025	89.34
208.243	81.68
208.461	76.43
208.68	85.13
208.898	87.51
209.116	112.08
209.335	112.93
209.553	110.13
209.771	120.43
209.989	100.58
210.208	89.94
210.426	80.79
210.644	100.65
210.862	75.23
211.081	72.49
211.299	53.33
211.517	36.67
211.735	31.33
211.953	18.61
212.171	27.52
212.39	38.87
212.608	33.98
212.826	39.41
213.044	46.5
213.262	40.9
213.48	25.68
213.698	19.04
213.916	26.39
214.134	37.49
214.352	80.55
214.57	106.67
214.788	94.29
215.006	93
215.224	84.71
215.442	75.25
215.66	71.38
215.878	67.68
216.096	60.47
216.314	61.95
216.532	44.62
216.75	27.49
216.968	16.43
217.185	21.94
217.403	43.98
217.621	46.85
217.839	36.92
218.057	55.77
218.275	69.77
218.492	57.68
218.71	48.56
218.928	63
219.146	106.56
219.363	68.97
219.581	43.37
219.799	33.99
220.017	28.12
220.234	29.59
220.452	25.63
220.67	33.48
220.887	53.22
221.105	51.19
221.323	49.89
221.54	41.15
221.758	42.62
221.976	50.72
222.193	39.22
222.411	46.21
222.629	33.72
222.846	39.72
223.064	41.16
223.281	34.28
223.499	23.05
223.716	28.07
223.934	26.61
224.151	32.88
224.369	25.84
224.586	35.14
224.804	45.43
225.021	59.12
225.239	51.53
225.456	34.28
225.674	32
225.891	46.36
226.108	37.99
226.326	28.31
226.543	23.82
226.76	27.27
226.978	17.8
227.195	10.37
227.413	4.89
227.63	9.33
227.847	11.89
228.064	13.04
228.282	10.02
228.499	12.2
228.716	13.93
228.934	16.91
229.151	17.48
229.368	16.05
229.585	16.69
229.802	18.78
230.02	17.91
230.237	17.05
230.454	14.92
230.671	10.41
230.888	8.94
231.105	9.62
231.323	2.39
231.54	0.41
231.757	-0.59
231.974	-6.46
232.191	-12.87
232.408	-12
232.625	-8.08
232.842	-3.19
233.059	7.53
233.276	12.75
233.493	16.92
233.71	18.22
233.927	14.59
234.144	16.35
234.361	17.29
234.578	21.33
234.795	18.16
235.012	20.29
235.229	15.34
235.446	10.52
235.663	8.02
235.879	6.97
236.096	9.68
236.313	10.07
236.53	8.52
236.747	9.68
236.964	7.75
237.181	9.89
237.397	8.56
237.614	13.87
237.831	17.66
238.048	16.81
238.264	12.19
238.481	11.31
238.698	18
238.915	20.07
239.131	20.92
239.348	23.66
239.565	24.02
239.781	22.57
239.998	20.7
240.215	15.46
240.431	17.37
240.648	16.86
240.865	17.63
241.081	15.21
241.298	13.8
241.514	13.23
241.731	14.31
241.947	12.3
242.164	12.56
242.38	12.74
242.597	14.24
242.814	12.6
243.03	14.56
243.246	15.59
243.463	15.28
243.679	15.29
243.896	15.83
244.112	15.39
244.329	15.99
244.545	15.79
244.762	14.86
244.978	12.31
245.194	12.82
245.411	11.23
245.627	7.86
245.843	8.56
246.06	10.46
246.276	11.56
246.492	10.69
246.709	9.58
246.925	9.22
247.141	9.99
247.357	10.79
247.574	11.9
247.79	10.87
248.006	12.44
248.222	12.26
248.439	11.16
248.655	10.46
248.871	10.82
249.087	11.74
249.303	11.97
249.519	12.52
249.736	12.3
249.952	9.81
250.168	11.63
250.384	9.74
250.6	9.46
250.816	10.16
251.032	9.93
251.248	10.13
251.464	10.16
251.68	9.28
251.896	8.45
252.112	8.75
252.328	11.09
252.544	11.92
252.76	11.82
252.976	12.24
253.192	12.7
253.408	12.32
253.624	10.84
253.84	10.18
254.056	10.29
254.272	8.91
254.487	9.44
254.703	4.61
254.919	2.21
255.135	4.76
255.351	3.09
255.567	4.1
255.782	5.01
255.998	5.13
256.214	8.36
256.43	10.95
256.646	9.82
256.861	9.5
257.077	11.88
257.293	12.99
257.508	10.74
257.724	10.67
257.94	9.43
258.155	8.48
258.371	9.5
258.587	8.73
258.802	8.05
259.018	8.49
259.234	8.98
259.449	10.06
259.665	9.58
259.88	9.29
260.096	9.65
260.312	9.78
260.527	9.85
260.743	9.83
260.958	9.9
261.174	10.34
261.389	10.31
261.605	10.01
261.82	8.4
262.036	8.12
262.251	8.51
262.466	6.98
262.682	7.17
262.897	7.08
263.113	7.61
263.328	7.7
263.543	7.75
263.759	8.66
263.974	8.38
264.189	8.7
264.405	9.04
264.62	9.42
264.835	11.05
265.051	9.82
265.266	10.67
265.481	8.8
265.696	7.65
265.912	6.14
266.127	6.34
266.342	7.62
266.557	8.91
266.773	8.75
266.988	7.98
267.203	7.43
267.418	7.28
267.633	6.83
267.848	6.1
268.064	6.35
268.279	5.61
268.494	5.97
268.709	5.69
268.924	5.14
269.139	6.31
269.354	6.23
269.569	6.07
269.784	6.8
269.999	6.5
270.214	8.38
270.429	7.57
270.644	7.46
270.859	6.67
271.074	6.86
271.289	5.66
271.504	4.98
271.719	5.07
271.934	5.6
272.149	5.57
272.363	5.31
272.578	4.74
272.793	4.12
273.008	5.67
273.223	5.96
273.438	5.49
273.653	6.95
273.867	7.27
274.082	7.41
274.297	7.28
274.512	6.97
274.726	6.79
274.941	5.91
275.156	9.24
275.371	9.19
275.585	8.97
275.8	8.19
276.015	7.73
276.229	7.45
276.444	6.82
276.659	7.3
276.873	7.42
277.088	8.54
277.302	8.5
277.517	6.01
277.732	6.1
277.946	6.78
278.161	8.98
278.375	9.96
278.59	9.93
278.804	10.12
279.019	9.16
279.233	10.82
279.448	10.96
279.662	10.61
279.877	11.16
280.091	10.73
280.306	11.06
280.52	8.68
280.735	7.44
280.949	7.91
281.163	8.84
281.378	9.53
281.592	7.54
281.806	6.91
282.021	8.74
282.235	9.27
282.449	9.53
282.664	8.27
282.878	8.73
283.092	9.6
283.307	8.57
283.521	8.35
283.735	8.6
283.949	9.63
284.164	10.23
284.378	9.14
284.592	9.3
284.806	8.41
285.02	9.35
285.234	9.5
285.449	9.99
285.663	10.6
285.877	10.45
286.091	10.42
286.305	10.28
286.519	9.68
286.733	10.31
286.947	9.56
287.161	9.89
287.375	9.25
287.589	8.28
287.803	7.65
288.017	8
288.231	8.2
288.445	7.61
288.659	7.36
288.873	8.37
289.087	7.1
289.301	9.03
289.515	9.6
289.729	10.58
289.943	10.78
290.157	10.91
290.371	11.13
290.584	10.96
290.798	10.73
291.012	10.77
291.226	10.75
291.44	11.49
291.654	10.42
291.867	10.15
292.081	9.49
292.295	10.57
292.509	9.18
292.722	8.76
292.936	9.84
293.15	8.8
293.364	8.9
293.577	7.41
293.791	7.42
294.005	6.91
294.218	6.41
294.432	6.42
294.645	5.97
294.859	7
295.073	7.28
295.286	6.41
295.5	8.45
295.713	8.43
295.927	10
296.14	10.29
296.354	9.44
296.568	9.53
296.781	9.42
296.994	9.81
297.208	9.59
297.421	9.94
297.635	9.93
297.848	9.94
298.062	9.39
298.275	8.58
298.489	8.49
298.702	9.32
298.915	9.94
299.129	9.66
299.342	10.59
299.555	10.89
299.769	10.2
299.982	11.22
300.195	11.13
300.409	12.22
300.622	12.09
300.835	13.55
301.048	13.61
301.262	13.74
301.475	14.98
301.688	13.86
301.901	14.82
302.115	14.26
302.328	13.45
302.541	12.28
302.754	11.23
302.967	11.47
303.18	9.79
303.393	9.4
303.607	7.59
303.82	7.43
304.033	8.74
304.246	6.21
304.459	6.39
304.672	6.79
304.885	7.47
305.098	8.51
305.311	8.38
305.524	9.81
305.737	10
305.95	10.85
306.163	10.57
306.376	10.65
306.589	11.83
306.802	12.62
307.015	13.19
307.228	12.64
307.44	11.41
307.653	11.23
307.866	10.26
308.079	10.54
308.292	11.6
308.505	10.75
308.718	10.22
308.93	11.83
309.143	10.86
309.356	9.89
309.569	10.68
309.781	11.13
309.994	12.24
310.207	12.5
310.42	13.02
310.632	12.84
310.845	13.26
311.058	12.78
311.27	12.22
311.483	12.62
311.696	12.47
311.908	12.1
312.121	12.4
312.333	11.52
312.546	10.89
312.759	9.69
312.971	8.11
313.184	7.09
313.396	6.68
313.609	6.24
313.821	5.76
314.034	5.93
314.246	6.55
314.459	6.21
314.671	6.14
314.884	6.9
315.096	7.89
315.309	9
315.521	11.12
315.733	11.36
315.946	11.58
316.158	12.29
316.371	13.21
316.583	12.64
316.795	11.76
317.008	12.64
317.22	12.11
317.432	10.67
317.644	10.71
317.857	9.84
318.069	10.23
318.281	8.68
318.494	9.04
318.706	9.83
318.918	8.92
319.13	9.93
319.342	6.95
319.555	7.75
319.767	7.84
319.979	8.53
320.191	7.73
320.403	5.62
320.615	5.95
320.827	4.01
321.039	1.95
321.252	3.52
321.464	3.71
321.676	7.88
321.888	7.79
322.1	8.37
322.312	6.86
322.524	6.37
322.736	8.79
322.948	8.98
323.16	8.78
323.372	9.19
323.584	9.26
323.796	8.48
324.007	6.11
324.219	5.48
324.431	5.58
324.643	6.96
324.855	8.45
325.067	8.64
325.279	8.75
325.491	10.52
325.702	11.92
325.914	10.53
326.126	12.03
326.338	12.5
326.55	12.69
326.761	12.41
326.973	11.7
327.185	11.25
327.396	10.27
327.608	11.62
327.82	11.67
328.032	10.32
328.243	11.23
328.455	9.07
328.666	9.32
328.878	7.52
329.09	8.19
329.301	7.76
329.513	7.88
329.725	10.11
329.936	8.19
330.148	8.04
330.359	8.65
330.571	9.65
330.782	11.61
330.994	11.29
331.205	13.41
331.417	12.81
331.628	12.21
331.84	11.89
332.051	10.17
332.262	10.93
332.474	11.02
332.685	8.92
332.897	8.11
333.108	7.88
333.319	7.47
333.531	8.18
333.742	9.29
333.953	9.93
334.165	9.55
334.376	9.47
334.587	10.02
334.799	9.23
335.01	10.99
335.221	10.41
335.432	10.48
335.644	10.48
335.855	9.19
336.066	8.29
336.277	7.89
336.488	7.63
336.7	7.91
336.911	7.13
337.122	7.47
337.333	7.29
337.544	8.51
337.755	7.84
337.966	9.45
338.177	9.08
338.388	9.06
338.599	10.76
338.811	11.02
339.022	11.11
339.233	11.8
339.444	11.25
339.655	12.03
339.866	11.87
340.076	11.69
340.287	10.21
340.498	10.83
340.709	10.43
340.92	8.65
341.131	9.48
341.342	9.4
341.553	7.19
341.764	8.43
341.975	6.12
342.185	5.2
342.396	5.27
342.607	5.83
342.818	6.29
343.029	8.1
343.239	8.67
343.45	7.87
343.661	8.15
343.872	9.59
344.082	8.12
344.293	9.09
344.504	9.03
344.714	9.25
344.925	9.16
345.136	9.42
345.346	8.83
345.557	8.61
345.768	8.72
345.978	8.03
346.189	8.43
346.399	9.13
346.61	9.21
346.821	9.23
347.031	9.84
347.242	9.54
347.452	7.67
347.663	7.61
347.873	8.53
348.084	8.16
348.294	8.67
348.504	9.13
348.715	8.67
348.925	8.62
349.136	9.76
349.346	8.63
349.557	8.46
349.767	10.01
349.977	10.51
350.188	9.26
350.398	9.33
350.608	9.74
350.819	8.67
351.029	8
351.239	7.49
351.449	7.47
351.66	8.17
351.87	8
352.08	8.74
352.29	8.24
352.501	8.77
352.711	9.42
352.921	8.13
353.131	8.18
353.341	8.26
353.552	8.83
353.762	7.48
353.972	7.52
354.182	7.5
354.392	6.64
354.602	6.53
354.812	6.02
355.022	5.48
355.232	5.99
355.442	6.19
355.652	6.22
355.862	5.33
356.072	5.2
356.282	5.37
356.492	5.24
356.702	5.61
356.912	5.37
357.122	6.04
357.332	5.96
357.542	6.74
357.752	7.1
357.962	8.11
358.171	8.62
358.381	9.44
358.591	9.7
358.801	9.81
359.011	9.76
359.221	9.86
359.43	9.74
359.64	9.99
359.85	9.21
360.06	8.21
360.269	7.78
360.479	7.87
360.689	8.03
360.899	8.43
361.108	7.75
361.318	7.38
361.528	7.41
361.737	7.27
361.947	7.34
362.156	7.83
362.366	8.45
362.576	8.52
362.785	8.54
362.995	7.69
363.204	7.2
363.414	8.35
363.623	8.75
363.833	8.25
364.042	8.66
364.252	8.55
364.461	7.29
364.671	6.64
364.88	6.71
365.09	7.53
365.299	7.94
365.509	8.04
365.718	8.38
365.927	7.78
366.137	7.91
366.346	7.36
366.555	7.85
366.765	8.15
366.974	8.51
367.183	8.46
367.393	7.63
367.602	7.89
367.811	7.84
368.021	7.72
368.23	7.67
368.439	7.98
368.648	7.43
368.857	6.9
369.067	7.18
369.276	7.19
369.485	6.01
369.694	5.4
369.903	5.14
370.112	4.06
370.321	3.28
370.531	3.82
370.74	3.7
370.949	4.47
371.158	4.36
371.367	3.88
371.576	3.96
371.785	4.92
371.994	5.79
372.203	5.8
372.412	5.83
372.621	6.29
372.83	5.41
373.039	5.68
373.248	5.79
373.457	6.22
373.666	6.38
373.874	6.56
374.083	5.91
374.292	6.04
374.501	6.04
374.71	5.85
374.919	4.93
375.128	5.15
375.336	5.05
375.545	4.55
375.754	4.39
375.963	4.46
376.171	4.62
376.38	5.76
376.589	5.74
376.798	4.97
377.006	5.19
377.215	5.53
377.424	6.21
377.632	5.44
377.841	5.66
378.05	5.61
378.258	5.64
378.467	5.78
378.675	5.42
378.884	5.52
379.093	6.25
379.301	6.63
379.51	6.59
379.718	6.28
379.927	6.88
380.135	6.93
380.344	6.59
380.552	6.66
380.761	6.2
380.969	6.07
381.177	5.6
381.386	5.49
381.594	4.78
381.803	5.05
382.011	5.09
382.219	5.53
382.428	5.25
382.636	5.25
382.845	4.95
383.053	4.6
383.261	4.98
383.469	4.87
383.678	5.22
383.886	5.43
384.094	5.56
384.302	5.32
384.511	4.88
384.719	4.62
384.927	4.84
385.135	5.12
385.343	5.38
385.552	5.07
385.76	5.2
385.968	4.54
386.176	4.6
386.384	4.35
386.592	4.62
386.8	4.8
387.008	5.03
387.216	5.05
387.424	4.86
387.633	4.52
387.841	4.43
388.049	4.08
388.257	4.26
388.465	3.79
388.672	4.07
388.88	3.68
389.088	3.26
389.296	3.32
389.504	3.06
389.712	2.55
389.92	2.78
390.128	2.71
390.336	2.83
390.544	2.96
390.751	3.28
390.959	2.97
391.167	3.51
391.375	3.67
391.583	3.43
391.79	3.69
391.998	4.39
392.206	4.37
392.414	4.52
392.621	4.43
392.829	4.54
393.037	4.72
393.244	4.63
393.452	4.19
393.66	4.4
393.867	4.6
394.075	4.42
394.283	4.26
394.49	4.21
394.698	3.92
394.905	3.95
395.113	3.8
395.32	3.99
395.528	4
395.735	4.02
395.943	4.28
396.15	4.29
396.358	4.26
396.565	4.29
396.773	4.44
396.98	4.61
397.188	4.65
397.395	4.42
397.602	4.14
397.81	4.23
398.017	4.49
398.225	3.97
398.432	3.69
398.639	3.74
398.847	3.53
399.054	3.42
399.261	3.35
399.468	3.07
399.676	3.23
399.883	3.27
400.09	2.93
400.297	2.68
400.505	2.55
400.712	2.65
400.919	2.44
401.126	2.55
401.333	2.75
401.54	2.92
401.748	3.31
401.955	3.4
402.162	3.36
402.369	3.24
402.576	3.38
402.783	3.65
402.99	3.78
403.197	3.86
403.404	3.77
403.611	3.81
403.818	3.68
404.025	3.66
404.232	3.58
404.439	3.46
404.646	3.67
404.853	3.5
405.06	3.24
405.267	3.33
405.474	3.52
405.681	3.77
405.887	3.65
406.094	3.6
406.301	3.36
406.508	3.58
406.715	3.76
406.922	3.97
407.128	3.82
407.335	3.98
407.542	3.67
407.749	3.5
407.955	3.29
408.162	3.22
408.369	3.35
408.575	3.58
408.782	3.3
408.989	3.37
409.195	3.31
409.402	3.74
409.609	3.58
409.815	4.02
410.022	4.1
410.228	3.98
410.435	3.95
410.642	3.87
410.848	3.97
411.055	4.11
411.261	3.97
411.468	3.85
411.674	3.61
411.881	3.78
412.087	3.88
412.294	3.79
412.5	3.72
412.706	3.89
412.913	3.78
413.119	3.78
413.326	4.16
413.532	4.28
413.738	4.42
413.945	4.5
414.151	4.6
414.357	4.35
414.564	4.58
414.77	4.88
414.976	4.58
415.182	4.51
415.389	4.33
415.595	3.97
415.801	3.84
416.007	3.78
416.214	3.65
416.42	3.48
416.626	3.15
416.832	2.99
417.038	3.03
417.244	2.85
417.45	3.14
417.657	2.91
417.863	2.68
418.069	2.75
418.275	2.61
418.481	2.62
418.687	2.67
418.893	2.93
419.099	2.89
419.305	2.77
419.511	3.07
419.717	2.84
419.923	2.84
420.129	2.97
420.335	3.04
420.541	3.05
420.746	3.02
420.952	2.99
421.158	2.7
421.364	2.71
421.57	2.74
421.776	2.72
421.982	2.68
422.187	2.83
422.393	2.76
422.599	2.68
422.805	2.59
423.01	2.39
423.216	2.37
423.422	2.48
423.628	2.46
423.833	2.33
424.039	2.22
424.245	2.27
424.45	2.29
424.656	2.26
424.862	2.16
425.067	2.44
425.273	2.62
425.478	2.78
425.684	2.9
425.889	3.07
426.095	3.11
426.301	3.13
426.506	3.24
426.712	3.28
426.917	3.4
427.123	3.49
427.328	3.44
427.533	3.43
427.739	3.31
427.944	3.36
428.15	3.33
428.355	3.56
428.561	3.59
428.766	3.49
428.971	3.48
429.177	3.44
429.382	3.3
429.587	3.06
429.793	3.14
429.998	3
430.203	2.7
430.408	2.62
430.614	2.48
430.819	2.52
431.024	2.47
431.229	2.22
431.434	2.35
431.64	2.4
431.845	2.38
432.05	2.42
432.255	2.51
432.46	2.74
432.665	2.49
432.87	2.45
433.076	2.57
433.281	2.67
433.486	2.9
433.691	2.85
433.896	2.95
434.101	3.05
434.306	3.01
434.511	2.95
434.716	2.92
434.921	2.98
435.126	3.05
435.331	2.74
435.535	2.45
435.74	2.37
435.945	2.41
436.15	2.32
436.355	2.26
436.56	2.26
436.765	2.24
436.97	2.24
437.174	2.36
437.379	2.2
437.584	2.3
437.789	2.52
437.993	2.39
438.198	2.09
438.403	1.96
438.608	1.88
438.812	1.84
439.017	1.91
439.222	1.94
439.426	1.85
439.631	1.99
439.836	1.99
440.04	2.02
440.245	2.08
440.45	2.24
440.654	2.47
440.859	2.72
441.063	2.73
441.268	2.73
441.472	2.65
441.677	2.76
441.881	2.62
442.086	2.64
442.29	2.64
442.495	2.7
442.699	2.65
442.904	2.47
443.108	2.26
443.312	2.39
443.517	2.42
443.721	2.45
443.925	2.43
444.13	2.46
444.334	2.5
444.538	2.51
444.743	2.32
444.947	2.23
445.151	2.26
445.356	2.23
445.56	2.04
445.764	1.99
445.968	2.06
446.173	1.97
446.377	2.14
446.581	2.06
446.785	2.04
446.989	2.14
447.193	2.24
447.398	2.25
447.602	2.37
447.806	2.41
448.01	2.36
448.214	2.4
448.418	2.53
448.622	2.37
448.826	2.5
449.03	2.5
449.234	2.63
449.438	2.79
449.642	2.75
449.846	2.7
450.05	2.86
450.254	2.99
450.458	3.03
450.662	3.16
450.866	3.31
451.069	3.48
451.273	3.4
451.477	3.24
451.681	3
451.885	3.08
452.089	2.98
452.292	2.76
452.496	2.76
452.7	2.58
452.904	2.37
453.107	2.43
453.311	2.13
453.515	2.18
453.719	2.34
453.922	2.58
454.126	2.6
454.33	2.59
454.533	2.68
454.737	2.66
454.94	2.84
455.144	3.01
455.348	2.83
455.551	3.17
455.755	3.12
455.958	2.96
456.162	2.64
456.365	2.62
456.569	2.78
456.772	2.89
456.976	2.76
457.179	2.65
457.383	2.49
457.586	2.44
457.79	2.17
457.993	2.3
458.196	2.37
458.4	2.53
458.603	2.42
458.807	2.39
459.01	2.16
459.213	2.19
459.417	2.24
459.62	2.28
459.823	2.35
460.026	2.42
460.23	2.35
460.433	2.3
460.636	2.25
460.839	2.24
461.042	2.3
461.246	2.59
461.449	2.72
461.652	2.64
461.855	2.78
462.058	2.73
462.261	2.77
462.464	2.81
462.668	2.91
462.871	3.03
463.074	3.39
463.277	3.19
463.48	3.02
463.683	2.85
463.886	2.78
464.089	2.64
464.292	2.8
464.495	2.92
464.698	3.06
464.901	3.07
465.104	3
465.306	2.86
465.509	2.85
465.712	2.98
465.915	3.18
466.118	3.39
466.321	3.29
466.524	3.22
466.726	3.09
466.929	2.86
467.132	2.77
467.335	2.82
467.538	2.65
467.74	2.63
467.943	2.61
468.146	2.37
468.348	2.16
468.551	2.11
468.754	2.15
468.956	2.05
469.159	2.23
469.362	2.26
469.564	2.24
469.767	2.28
469.969	2.38
470.172	2.39
470.375	2.41
470.577	2.38
470.78	2.62
470.982	2.59
471.185	2.62
471.387	2.7
471.59	2.73
471.792	2.57
471.995	2.68
472.197	2.57
472.399	2.43
472.602	2.61
472.804	2.78
473.007	2.53
473.209	2.52
473.411	2.65
473.614	2.53
473.816	2.57
474.018	2.74
474.22	2.78
474.423	2.82
474.625	2.92
474.827	2.96
475.03	3.06
475.232	3.24
475.434	3.3
475.636	3.33
475.838	3.19
476.04	3.22
476.243	3.11
476.445	2.92
476.647	2.79
476.849	2.69
477.051	2.64
477.253	2.46
477.455	2.44
477.657	2.38
477.859	2.23
478.061	2.38
478.263	2.28
478.465	2.37
478.667	2.46
478.869	2.6
479.071	2.66
479.273	2.54
479.475	2.66
479.677	2.68
479.879	2.63
480.081	2.63
480.283	2.51
480.485	2.44
480.686	2.48
480.888	2.51
481.09	2.53
481.292	2.53
481.494	2.43
481.695	2.27
481.897	2.11
482.099	2.08
482.301	2.13
482.502	2.11
482.704	2.04
482.906	1.88
483.107	1.74
483.309	1.75
483.511	1.69
483.712	1.67
483.914	1.7
484.115	1.73
484.317	1.69
484.519	1.62
484.72	1.59
484.922	1.64
485.123	1.7
485.325	1.72
485.526	1.67
485.728	1.69
485.929	1.75
486.131	1.78
486.332	1.82
486.534	1.93
486.735	1.95
486.936	2.01
487.138	1.95
487.339	1.91
487.541	1.93
487.742	1.91
487.943	1.92
488.144	1.94
488.346	1.88
488.547	1.84
488.748	1.81
488.95	1.86
489.151	1.81
489.352	1.93
489.553	1.94
489.755	2
489.956	2.01
490.157	2.08
490.358	2.21
490.559	2.22
490.76	2.25
490.961	2.19
491.163	2.11
491.364	2.04
491.565	1.98
491.766	1.91
491.967	1.86
492.168	1.89
492.369	1.8
492.57	1.74
492.771	1.77
492.972	1.77
493.173	1.79
493.374	1.86
493.575	2
493.776	1.97
493.976	2.02
494.177	1.99
494.378	2
494.579	2.1
494.78	2.02
494.981	1.89
495.182	1.98
495.382	2.02
495.583	1.99
495.784	2.1
495.985	2.11
496.185	2.22
496.386	2.36
496.587	2.38
496.788	2.36
496.988	2.41
497.189	2.52
497.39	2.46
497.59	2.46
497.791	2.46
497.992	2.33
498.192	2.41
498.393	2.47
498.593	2.63
498.794	2.66
498.994	2.71
499.195	2.7
499.395	2.49
499.596	2.62
499.796	2.51
499.997	2.5
500.197	2.6
500.398	2.42
500.598	2.47
500.799	2.4
500.999	2.31
501.199	2.35
501.4	2.35
501.6	2.71
501.801	2.57
502.001	2.72
502.201	2.72
502.402	2.53
502.602	2.74
502.802	2.55
503.002	2.62
503.203	2.74
503.403	2.58
503.603	2.56
503.803	2.44
504.003	2.47
504.204	2.43
504.404	2.43
504.604	2.47
504.804	2.42
505.004	2.51
505.204	2.33
505.404	2.19
505.604	2.35
505.804	2.21
506.005	2.2
506.205	2.25
506.405	2.34
506.605	2.51
506.805	2.67
507.005	2.74
507.204	2.77
507.404	2.83
507.604	3.02
507.804	2.92
508.004	3.01
508.204	2.97
508.404	2.92
508.604	2.8
508.804	2.73
509.003	2.71
509.203	2.6
509.403	2.73
509.603	2.67
509.803	2.76
510.002	2.9
510.202	2.95
510.402	3.07
510.602	3.07
510.801	3.08
511.001	2.96
511.201	3.03
511.4	3.06
511.6	2.93
511.8	2.95
511.999	2.67
512.199	2.56
512.398	2.5
512.598	2.4
512.797	2.49
512.997	2.49
513.197	2.71
513.396	2.69
513.596	2.76
513.795	2.71
513.994	2.8
514.194	2.87
514.393	2.97
514.593	3.11
514.792	3.22
514.992	3.19
515.191	3.06
515.39	2.99
515.59	2.96
515.789	2.99
515.988	3.11
516.188	3.19
516.387	3.17
516.586	3.2
516.786	3.13
516.985	3.08
517.184	2.98
517.383	3.12
517.582	3.09
517.782	3.09
517.981	3.22
518.18	3.09
518.379	3.03
518.578	3.19
518.777	3.11
518.976	3.06
519.176	3.02
519.375	3.16
519.574	3.15
519.773	3.16
519.972	3.09
520.171	3.01
520.37	3.09
520.569	3.06
520.768	3.08
520.967	3.22
521.166	3.38
521.365	3.41
521.564	3.26
521.762	3.25
521.961	3.37
522.16	3.43
522.359	3.36
522.558	3.41
522.757	3.62
522.956	3.57
523.154	3.37
523.353	3.38
523.552	3.58
523.751	3.7
523.949	3.86
524.148	3.84
524.347	3.87
524.546	3.85
524.744	3.89
524.943	3.78
525.142	3.82
525.34	3.91
525.539	3.88
525.737	3.7
525.936	3.74
526.135	3.74
526.333	3.79
526.532	3.79
526.73	3.91
526.929	3.8
527.127	3.84
527.326	3.81
527.524	3.78
527.723	3.8
527.921	3.92
528.12	3.93
528.318	3.93
528.516	3.9
528.715	3.92
528.913	3.89
529.112	3.87
529.31	3.87
529.508	3.89
529.707	3.93
529.905	3.94
530.103	3.96
530.301	3.96
530.5	3.89
530.698	3.9
530.896	3.93
531.094	3.96
531.293	4.11
531.491	4.12
531.689	4.14
531.887	4.15
532.085	4.19
532.283	4.13
532.481	4.17
532.68	4.34
532.878	4.38
533.076	4.31
533.274	4.32
533.472	4.37
533.67	4.42
533.868	4.51
534.066	4.57
534.264	4.63
534.462	4.67
534.66	4.62
534.858	4.56
535.056	4.55
535.253	4.73
535.451	4.83
535.649	4.75
535.847	4.82
536.045	4.81
536.243	4.81
536.441	4.74
536.638	4.89
536.836	4.96
537.034	5.09
537.232	5.19
537.43	5.15
537.627	5.07
537.825	5.02
538.023	5.08
538.22	5.15
538.418	5.18
538.616	5.32
538.813	5.22
539.011	5.35
539.209	5.26
539.406	5.33
539.604	5.4
539.801	5.61
539.999	5.67
540.196	5.61
540.394	5.52
540.591	5.65
540.789	5.78
540.986	5.92
541.184	5.99
541.381	6.09
541.579	6.01
541.776	6.11
541.974	6.05
542.171	6.19
542.368	6.19
542.566	6.28
542.763	6.21
542.96	6.2
543.158	6.1
543.355	6.06
543.552	6.14
543.75	6.2
543.947	6.2
544.144	6.37
544.341	6.33
544.539	6.53
544.736	6.5
544.933	6.63
545.13	6.64
545.327	6.75
545.524	6.78
545.722	6.66
545.919	6.88
546.116	6.91
546.313	6.94
546.51	7.14
546.707	7.13
546.904	7.23
547.101	7.36
547.298	7.47
547.495	7.6
547.692	7.74
547.889	7.83
548.086	7.9
548.283	7.79
548.48	7.73
548.677	7.62
548.874	7.7
549.07	7.98
549.267	8.09
549.464	8.18
549.661	8.29
549.858	8.21
550.055	8.3
550.251	8.26
550.448	8.48
550.645	8.51
550.842	8.78
551.038	8.99
551.235	8.79
551.432	8.68
551.628	8.44
551.825	8.45
552.022	8.73
552.218	8.88
552.415	8.96
552.612	8.97
552.808	9.16
553.005	9.07
553.201	8.82
553.398	9.08
553.594	9.23
553.791	9.41
553.987	9.41
554.184	9.4
554.38	9.47
554.577	9.53
554.773	9.52
554.97	9.49
555.166	9.76
555.362	10.18
555.559	9.97
555.755	10.04
555.952	10.26
556.148	10.28
556.344	10.22
556.541	10.25
556.737	10.23
556.933	10.54
557.129	10.73
557.326	10.75
557.522	10.7
557.718	10.89
557.914	10.89
558.11	10.87
558.307	11
558.503	11.3
558.699	11.57
558.895	11.64
559.091	11.61
559.287	11.71
559.483	11.62
559.679	11.55
559.876	11.43
560.072	11.59
560.268	11.8
560.464	12.06
560.66	12.13
560.856	12.17
561.052	12.45
561.247	12.61
561.443	12.6
561.639	12.81
561.835	12.92
562.031	13.11
562.227	13.04
562.423	13.15
562.619	13.2
562.815	13.21
563.01	13.29
563.206	13.34
563.402	13.33
563.598	13.42
563.793	13.52
563.989	13.78
564.185	14.03
564.381	14.11
564.576	13.87
564.772	13.84
564.968	13.98
565.163	13.81
565.359	13.69
565.555	13.7
565.75	13.62
565.946	13.78
566.141	13.74
566.337	13.69
566.532	13.8
566.728	14
566.923	14.03
567.119	13.88
567.314	13.88
567.51	13.91
567.705	14.03
567.901	14.42
568.096	14.2
568.292	14.22
568.487	14.33
568.682	14.5
568.878	14.48
569.073	14.62
569.268	14.69
569.464	15.01
569.659	15.18
569.854	15.33
570.05	15.17
570.245	15.19
570.44	15.09
570.635	15.18
570.831	14.98
571.026	15.16
571.221	15.07
571.416	15.11
571.611	15.09
571.806	15.07
572.002	15.04
572.197	15.19
572.392	15.35
572.587	15.75
572.782	15.78
572.977	15.95
573.172	15.98
573.367	15.97
573.562	16.18
573.757	16.08
573.952	16.27
574.147	16.37
574.342	16.41
574.537	16.55
574.732	16.34
574.927	16.33
575.121	16.49
575.316	16.46
575.511	16.69
575.706	16.77
575.901	17.02
576.096	17.01
576.29	17.03
576.485	16.95
576.68	16.93
576.875	17
577.069	17.16
577.264	17.27
577.459	17.46
577.654	17.46
577.848	17.29
578.043	17.16
578.238	17.34
578.432	17.43
578.627	17.54
578.821	17.59
579.016	17.79
579.21	17.91
579.405	17.83
579.6	17.69
579.794	17.81
579.989	18.12
580.183	18.08
580.378	18.1
580.572	17.83
580.766	17.88
580.961	17.84
581.155	18.06
581.35	17.99
581.544	17.98
581.738	18.21
581.933	18.23
582.127	18.23
582.321	18.27
582.516	18.37
582.71	18.7
582.904	18.57
583.099	18.82
583.293	18.47
583.487	18.3
583.681	18.41
583.875	18.34
584.07	18.29
584.264	18.17
584.458	18.25
584.652	18.27
584.846	18.37
585.04	18.63
585.234	18.59
585.428	18.52
585.623	18.45
585.817	18.33
586.011	18.6
586.205	18.61
586.399	18.72
586.593	18.82
586.787	18.93
586.981	19.09
587.174	19.26
587.368	19.22
587.562	19.44
587.756	19.84
587.95	19.95
588.144	19.89
588.338	20.06
588.532	20.11
588.725	20.07
588.919	19.96
589.113	19.96
589.307	19.73
589.501	19.65
589.694	19.87
589.888	19.83
590.082	19.97
590.275	20.11
590.469	20.08
590.663	19.95
590.856	20.04
591.05	20.21
591.244	20
591.437	20.3
591.631	20.58
591.824	20.45
592.018	20.3
592.212	20.52
592.405	20.41
592.599	20.7
592.792	20.79
592.986	21.06
593.179	20.93
593.372	21.15
593.566	21
593.759	20.82
593.953	20.76
594.146	21.06
594.339	21.02
594.533	20.94
594.726	20.6
594.92	20.5
595.113	20.32
595.306	20.1
595.499	20.21
595.693	20.32
595.886	20.34
596.079	20.35
596.272	20.09
596.466	19.88
596.659	20
596.852	20.16
597.045	20.12
597.238	20.24
597.431	20.55
597.624	20.4
597.818	20.34
598.011	20.5
598.204	20.51
598.397	20.55
598.59	20.58
598.783	20.37
598.976	20.49
599.169	20.77
599.362	20.71
599.555	20.58
599.748	20.51
599.941	20.36
600.134	20.11
600.326	20.25
600.519	20.41
600.712	20.46
600.905	20.75
601.098	20.66
601.291	20.78
601.483	20.95
601.676	21.03
601.869	21.15
602.062	21.27
602.255	21.2
602.447	21.2
602.64	21.17
602.833	21.37
603.025	21.22
603.218	20.89
603.411	20.95
603.603	20.83
603.796	20.82
603.989	20.87
604.181	20.9
604.374	21.17
604.566	21.2
604.759	21.29
604.951	21.15
605.144	21.43
605.336	21.61
605.529	21.75
605.721	21.69
605.914	21.54
606.106	21.48
606.299	21.38
606.491	21.33
606.683	21.23
606.876	21.12
607.068	21.01
607.26	20.88
607.453	20.87
607.645	20.68
607.837	20.89
608.03	21.24
608.222	21.26
608.414	21.62
608.606	21.5
608.799	21.42
608.991	21.57
609.183	21.92
609.375	21.79
609.567	21.87
609.759	21.65
609.952	21.69
610.144	21.33
610.336	21.23
610.528	21.19
610.72	21.29
610.912	21.44
611.104	21.51
611.296	21.29
611.488	21.5
611.68	21.55
611.872	21.89
612.064	21.84
612.256	22.24
612.448	22.39
612.64	22.31
612.832	22.36
613.023	22.5
613.215	22.51
613.407	22.39
613.599	22.16
613.791	22.12
613.983	21.9
614.174	21.89
614.366	21.85
614.558	22.08
614.75	21.97
614.941	22.05
615.133	21.71
615.325	21.49
615.516	21.69
615.708	21.74
615.9	21.88
616.091	22.09
616.283	21.95
616.475	22
616.666	22.01
616.858	22.27
617.049	22.53
617.241	22.78
617.432	23.15
617.624	23.03
617.815	23.09
618.007	22.68
618.198	22.74
618.39	22.73
618.581	22.54
618.773	22.61
618.964	22.44
619.155	22.09
619.347	22.23
619.538	21.69
619.729	21.97
619.921	22.01
620.112	22.69
620.303	22.49
620.494	22.74
620.686	22.96
620.877	23
621.068	23.15
621.259	23.4
621.451	23.31
621.642	23.6
621.833	23.76
622.024	23.56
622.215	23.24
622.406	23.6
622.597	23.58
622.788	23.37
622.98	23.06
623.171	23.24
623.362	23.23
623.553	23.14
623.744	23.05
623.935	22.79
624.126	23.03
624.317	23.28
624.508	23.15
624.698	23.25
624.889	23.58
625.08	23.37
625.271	23.16
625.462	23.29
625.653	23.06
625.844	23.2
626.034	23
626.225	23.01
626.416	22.8
626.607	22.88
626.798	22.9
626.988	22.42
627.179	22.6
627.37	22.64
627.56	22.33
627.751	22.85
627.942	22.93
628.132	23.2
628.323	23.37
628.514	23.55
628.704	23.71
628.895	23.63
629.085	23.86
629.276	23.84
629.466	24.06
629.657	24.36
629.847	24.07
630.038	23.9
630.228	23.85
630.419	23.96
630.609	23.87
630.8	23.74
630.99	23.88
631.181	24.16
631.371	24.24
631.561	24.27
631.752	24.21
631.942	24.26
632.132	24.6
632.323	24.72
632.513	24.45
632.703	24.25
632.893	24.19
633.084	24.16
633.274	24.06
633.464	24.21
633.654	23.97
633.844	23.93
634.034	23.97
634.225	23.78
634.415	23.48
634.605	23.53
634.795	23.83
634.985	24.03
635.175	23.98
635.365	24.03
635.555	24.2
635.745	24.06
635.935	24.13
636.125	24.15
636.315	24.51
636.505	24.73
636.695	24.74
636.885	24.74
637.075	24.44
637.265	24.5
637.455	24.46
637.644	24.34
637.834	24.75
638.024	24.66
638.214	24.4
638.404	24.14
638.593	24.34
638.783	24.42
638.973	24.69
639.163	24.67
639.352	24.51
639.542	24.55
639.732	24.51
639.921	24.64
640.111	24.96
640.301	25.17
640.49	24.86
640.68	25.11
640.87	25.19
641.059	24.95
641.249	25.23
641.438	25.37
641.628	25.43
641.817	25.38
642.007	24.48
642.196	24.42
642.386	24.23
642.575	24.19
642.764	23.48
642.954	23.42
643.143	23.36
643.333	23.06
643.522	23.05
643.711	23.24
643.901	23.66
644.09	24.52
644.279	24.58
644.469	24.53
644.658	24.73
644.847	24.95
645.036	24.79
645.226	24.71
645.415	24.9
645.604	24.98
645.793	24.82
645.982	24.29
646.171	24.3
646.361	24.19
646.55	24.61
646.739	24.73
646.928	24.77
647.117	24.85
647.306	24.67
647.495	24.8
647.684	24.66
647.873	24.83
648.062	25
648.251	24.97
648.44	24.98
648.629	25.35
648.818	25.69
649.007	25.74
649.196	25.52
649.384	25.88
649.573	25.3
649.762	25.32
649.951	24.9
650.14	24.92
650.328	24.9
650.517	24.98
650.706	24.67
650.895	24.36
651.083	24.54
651.272	25.06
651.461	24.88
651.65	25.22
651.838	25.25
652.027	25.51
652.216	25.36
652.404	25.37
652.593	25.28
652.781	25.28
652.97	24.86
653.158	24.61
653.347	24.4
653.535	24.39
653.724	24.33
653.912	24.45
654.101	24.33
654.289	24.51
654.478	24.37
654.666	24.48
654.855	24
655.043	24.71
655.231	24.68
655.42	24.44
655.608	24.67
655.796	24.84
655.985	25.41
656.173	25.27
656.361	25.43
656.55	25.36
656.738	25.69
656.926	25.99
657.114	25.85
657.302	25.97
657.491	26.34
657.679	26.14
657.867	26.08
658.055	25.8
658.243	25.95
658.431	25.97
658.619	26.21
658.807	25.79
658.996	25.96
659.184	26.16
659.372	26.59
659.56	26.56
659.748	26.82
659.936	26.93
660.124	26.93
660.311	27.19
660.499	26.83
660.687	26.56
660.875	26.75
661.063	26.97
661.251	26.48
661.439	26.06
661.627	26.09
661.814	25.62
662.002	25.35
662.19	25.29
662.378	24.84
662.565	25.16
662.753	25.41
662.941	25.02
663.129	25.15
663.316	25.23
663.504	25.71
663.692	25.42
663.879	25.52
664.067	25.53
664.254	25.09
664.442	25.47
664.63	25.7
664.817	25.92
665.005	26.51
665.192	25.89
665.38	26.35
665.567	25.92
665.755	26.2
665.942	26.33
666.13	26.64
666.317	26.49
666.504	26.58
666.692	26.08
666.879	26
667.067	26.27
667.254	26.41
667.441	26.52
667.629	26.69
667.816	26.75
668.003	27.19
668.19	27.14
668.378	27.67
668.565	27.65
668.752	27.76
668.939	27.37
669.127	27.2
669.314	27.42
669.501	27.29
669.688	27.08
669.875	26.78
670.062	26.71
670.249	26.55
670.436	26.16
670.623	26.41
670.81	26.49
670.997	26.7
671.184	26.28
671.371	26.29
671.558	26
671.745	25.9
671.932	26.24
672.119	26.56
672.306	26.9
672.493	27.08
672.68	26.46
672.867	26.52
673.054	26.86
673.24	26.58
673.427	26.28
673.614	26
673.801	26.08
673.988	25.58
674.174	24.94
674.361	24.64
674.548	25.45
674.734	25.85
674.921	25.44
675.108	25.15
675.294	25.49
675.481	25.75
675.668	26.37
675.854	26.49
676.041	26.51
676.227	26.39
676.414	26.58
676.601	25.72
676.787	25.63
676.974	26.16
677.16	26
677.347	26.08
677.533	26.15
677.719	26.31
677.906	26.06
678.092	26.12
678.279	26.17
678.465	25.95
678.651	26.06
678.838	26.39
679.024	26.49
679.21	26.85
679.397	27.01
679.583	27.25
679.769	27.27
679.955	27.58
680.142	27.6
680.328	28
680.514	27.91
680.7	28.19
680.886	27.81
681.073	27.53
681.259	27.28
681.445	27.03
681.631	26.63
681.817	26.53
682.003	26.37
682.189	26.41
682.375	26.48
682.561	26.68
682.747	26.7
682.933	26.98
683.119	27.19
683.305	27.47
683.491	28.05
683.677	28.26
683.863	28.65
684.049	28.97
684.235	28.72
684.42	28.8
684.606	28.46
684.792	28.14
684.978	27.97
685.164	27.85
685.349	27.35
685.535	26.78
685.721	26.55
685.907	26.06
686.092	25.77
686.278	26.2
686.464	25.95
686.649	26.5
686.835	26.85
687.021	27.14
687.206	27.34
687.392	27.56
687.577	27.24
687.763	27.32
687.948	27.23
688.134	27.46
688.319	27.35
688.505	27
688.69	27.15
688.876	26.94
689.061	26.79
689.247	26.93
689.432	26.95
689.618	27.53
689.803	27.64
689.988	27.47
690.174	27.47
690.359	27.2
690.544	27.51
690.73	27.06
690.915	27.05
691.1	26.96
691.285	27.15
691.471	27.18
691.656	27.36
691.841	27.4
692.026	27.71
692.211	27.77
692.396	28.11
692.582	27.76
692.767	28.39
692.952	28.18
693.137	27.79
693.322	27.38
693.507	27.55
693.692	27.62
693.877	27.74
694.062	28
694.247	28.12
694.432	27.96
694.617	28.03
694.802	27.39
694.987	27.78
695.172	28.59
695.357	28.77
695.541	29
695.726	28.49
695.911	27.8
696.096	27.37
696.281	27.08
696.466	27.28
696.65	27.75
696.835	27.75
697.02	27.51
697.204	27.14
697.389	26.77
697.574	26.96
697.759	26.8
697.943	27.13
698.128	27.66
698.312	27.39
698.497	27.3
698.682	27.11
698.866	27
699.051	27
699.235	27.18
699.42	27.15
699.604	26.58
699.789	26.95
699.973	27.04
700.158	26.89
700.342	27.1
700.527	27.15
700.711	27.1
700.895	27.6
701.08	27.49
701.264	27.56
701.448	28.12
701.633	28.82
701.817	29.08
702.001	29.3
702.186	29.01
702.37	28.64
702.554	28.63
702.738	28.95
702.923	29.16
703.107	29.65
703.291	29.73
703.475	29.25
703.659	28.95
703.843	28.53
704.027	28.15
704.212	27.87
704.396	28.37
704.58	28.66
704.764	29.06
704.948	28.57
705.132	28.82
705.316	28.28
705.5	29.15
705.684	29.16
705.868	29.48
706.052	29.03
706.235	29.12
706.419	29.04
706.603	28.65
706.787	28.3
706.971	28.08
707.155	27.99
707.339	27.39
707.522	26.86
707.706	27.05
707.89	26.29
708.074	27.1
708.257	27
708.441	26.66
708.625	26.98
708.808	26.9
708.992	26.99
709.176	26.8
709.359	27.76
709.543	27.45
709.727	27.33
709.91	27.5
710.094	27.49
710.277	27.83
710.461	28.36
710.644	28
710.828	27.97
711.011	28.4
711.195	28.68
711.378	29.16
711.562	29.81
711.745	29.59
711.928	29.98
712.112	29.74
712.295	29.41
712.478	29.46
712.662	29.29
712.845	29.63
713.028	29.47
713.212	29.62
713.395	29.02
713.578	28.34
713.761	29.11
713.945	28.94
714.128	29.1
714.311	29.74
714.494	29.54
714.677	29.5
714.86	29.13
715.043	28.97
715.227	29.01
715.41	28.82
715.593	29.07
715.776	28.39
715.959	29.08
716.142	28.83
716.325	28.48
716.508	28.34
716.691	29.34
716.874	28.99
717.057	29.51
717.239	29.14
717.422	29.15
717.605	29.33
717.788	29.37
717.971	29.05
718.154	28.97
718.337	28.98
718.519	29.55
718.702	28.8
718.885	28.94
719.068	28.72
719.25	28.22
719.433	28.61
719.616	27.57
719.798	27.22
719.981	27.54
720.164	28.41
720.346	28.77
720.529	28.27
720.712	28.15
720.894	28.32
721.077	27.71
721.259	28.25
721.442	28.41
721.624	29.93
721.807	29.1
721.989	28.59
722.172	28.18
722.354	27.68
722.537	27.83
722.719	28.6
722.901	28.05
723.084	28.24
723.266	28.31
723.448	28.02
723.631	27.81
723.813	29.55
723.995	29
724.178	29.55
724.36	29.57
724.542	29
724.724	28.66
724.907	29.98
725.089	31.04
725.271	30.93
725.453	30.49
725.635	30.19
725.817	29.66
725.999	29.8
726.181	28.75
726.364	28.47
726.546	29.47
726.728	29.36
726.91	28.29
727.092	27.02
727.274	27.83
727.456	28.25
727.638	27.86
727.819	27.61
728.001	27.96
728.183	27.74
728.365	28.45
728.547	28.07
728.729	29.19
728.911	29.05
729.093	29.65
729.274	29.64
729.456	28.89
729.638	28.67
729.82	28.09
730.001	27.3
730.183	27.74
730.365	27.62
730.546	28.03
730.728	27.11
730.91	27.37
731.091	26.85
731.273	25.68
731.455	26.03
731.636	27.53
731.818	27.44
731.999	27.64
732.181	28.15
732.362	28.45
732.544	27.94
732.725	27.88
732.907	28.39
733.088	28.98
733.27	28.87
733.451	29.32
733.633	28.07
733.814	28.81
733.995	29.27
734.177	28.93
734.358	28.45
734.539	28.91
734.721	28.39
734.902	27.5
735.083	27.61
735.264	28.47
735.446	29.26
735.627	29.95
735.808	29.64
735.989	29.66
736.17	29.14
736.351	30.2
736.533	30.08
736.714	29.99
736.895	30.43
737.076	30.46
737.257	30.28
737.438	29.94
737.619	29.74
737.8	30.69
737.981	30.34
738.162	31.24
738.343	29.78
738.524	29.29
738.705	29.95
738.886	29.96
739.067	30.26
739.247	30.33
739.428	29.8
739.609	29.21
739.79	29
739.971	29.8
740.151	30.95
740.332	30.71
740.513	31.4
740.694	30.3
740.874	30.49
741.055	29.64
741.236	29.57
741.417	29.86
741.597	29.98
741.778	29.53
741.958	29.17
742.139	28.83
742.32	30.43
742.5	29.5
742.681	30.4
742.861	31.8
743.042	31.73
743.222	31.16
743.403	30.01
743.583	31.53
743.764	32.42
743.944	31.88
744.124	30.22
744.305	30.15
744.485	30.91
744.666	31.19
744.846	29.51
745.026	29.15
745.207	29.95
745.387	30.77
745.567	30.37
745.747	30.68
745.928	31.64
746.108	31.87
746.288	31.82
746.468	32.14
746.648	32.61
746.829	32.96
747.009	33.61
747.189	32.89
747.369	32.64
747.549	31.64
747.729	31.05
747.909	30.32
748.089	29.99
748.269	29.14
748.449	29.53
748.629	28.88
748.809	28.05
748.989	28.29
749.169	28.07
749.349	29.24
749.529	29.47
749.709	29.17
749.889	28.95
750.068	29.9
750.248	30.98
750.428	29.87
750.608	30.35
750.788	30.88
750.967	29.74
751.147	31.39
751.327	30.44
751.507	30.85
751.686	31.44
751.866	31.68
752.046	31.83
752.225	31.27
752.405	32.46
752.585	32.88
752.764	33.02
752.944	33.82
753.123	33
753.303	34.33
753.482	33.89
753.662	33.51
753.841	34.07
754.021	33.29
754.2	32.71
754.38	32.3
754.559	31.65
754.739	31.1
754.918	31.14
755.097	31.3
755.277	28.88
755.456	30.85
755.635	30.04
755.815	29.43
755.994	29.14
756.173	30.45
756.352	29.13
756.532	28.52
756.711	29.25
756.89	29.46
757.069	27.91
757.248	29.71
757.427	29.06
757.607	28.32
757.786	27.81
757.965	28.65
758.144	27.8
758.323	28.83
758.502	28.98
758.681	29.47
758.86	27.58
759.039	28.04
759.218	27.28
759.397	25.91
759.576	27.08
759.755	27.68
759.934	27.05
760.113	26.64
760.291	26.14
760.47	27.33
760.649	26.26
760.828	28.34
761.007	28.66
761.186	29.21
761.364	30.56
761.543	29.89
761.722	30.18
761.901	30.51
762.079	30.67
762.258	31.4
762.437	30.81
762.615	30.81
762.794	30.34
762.972	30.12
763.151	29.57
763.33	29
763.508	29.77
763.687	29.78
763.865	29.52
764.044	29.54
764.222	29.46
764.401	29.39
764.579	29.87
764.758	29.77
764.936	30.56
765.114	31.41
765.293	31.03
765.471	30.91
765.65	30.42
765.828	30.64
766.006	31.19
766.184	30.99
766.363	30.66
766.541	31.75
766.719	31.83
766.898	31.19
767.076	29.8
767.254	29.78
767.432	30.28
767.61	30.26
767.788	31.03
767.967	29.85
768.145	28.65
768.323	29.3
768.501	27.9
768.679	29.46
768.857	31.55
769.035	33.27
769.213	34.27
769.391	35.09
769.569	35.17
769.747	35.13
769.925	36.12
770.103	37.27
770.281	38.64
770.459	38.32
770.636	37.65
770.814	36.53
770.992	35.64
771.17	35.42
771.348	34.6
771.525	35.36
771.703	35.39
771.881	35.68
772.059	36.56
772.236	34.41
772.414	36.19
772.592	37.36
772.769	35.51
772.947	36.66
773.125	35.25
773.302	34.4
773.48	36.12
773.657	34.67
773.835	34.78
774.013	35.13
774.19	35.81
774.368	34.07
774.545	33.31
774.723	34.1
774.9	34.85
775.077	34.68
775.255	35.98
775.432	33.94
775.61	35.65
775.787	35.41
775.964	32.88
776.142	31.23
776.319	32.59
776.496	31.76
776.674	31.24
776.851	29.22
777.028	29.52
777.205	28.93
777.382	28.94
777.56	29.15
777.737	30.23
777.914	31.81
778.091	33.3
778.268	30.36
778.445	27.53
778.622	27.71
778.8	29.38
778.977	31.55
779.154	30.76
779.331	30.82
779.508	29.16
779.685	27.16
779.862	28.7
780.038	29.86
780.215	32.66
780.392	33.46
780.569	34.42
780.746	32.01
780.923	30.25
781.1	29.53
781.277	31.1
781.453	31.85
781.63	33.85
781.807	31.38
781.984	29.62
782.16	28.19
782.337	28.82
782.514	29.1
782.691	31.28
782.867	33.07
783.044	33.14
783.221	31.66
783.397	32.93
783.574	31.35
783.75	33.4
783.927	33.42
784.103	33.95
784.28	33.24
784.456	32.69
784.633	29.53
784.809	28.57
784.986	31.08
785.162	32.35
785.339	31.17
785.515	32.36
785.692	32.86
785.868	33.52
786.044	35.48
786.221	36.99
786.397	34.79
786.573	38.28
786.749	39.11
786.926	37.66
787.102	35.28
787.278	35.93
787.454	35.27
787.631	33.85
787.807	33.13
787.983	32.17
788.159	35.31
788.335	39.08
788.511	39.34
788.687	38.52
788.863	41.01
789.039	42.76
789.216	41.88
789.392	41.2
789.568	41.16
789.744	42.51
789.919	41.32
790.095	37.19
790.271	34.33
790.447	33.69
790.623	34.24
790.799	29.48
790.975	27.47
791.151	27.97
791.327	30.36
791.502	30.82
791.678	30.84
791.854	30.51
792.03	32.22
792.205	32.24
792.381	29.84
792.557	26.71
792.733	30.67
792.908	32.89
793.084	31.11
793.259	29.18
793.435	28.63
793.611	27.17
793.786	28.36
793.962	29.59
794.137	33.62
794.313	33.57
794.488	34.99
794.664	32.72
794.839	32.42
795.015	32.62
795.19	34.21
795.366	37.09
795.541	37.38
795.716	36.62
795.892	35.69
796.067	31.65
796.242	32.88
796.418	32.48
796.593	34.08
796.768	34.77
796.944	37.45
797.119	35.05
797.294	31.8
797.469	30.87
797.644	32.16
797.82	32.49
797.995	34.47
798.17	34.14
798.345	36.11
798.52	34.88
798.695	33.86
798.87	31
799.045	31.53
799.22	32.4
799.395	33.5
799.57	35.79
799.745	36.55
799.92	35.82
800.095	35.05
800.27	36.16
800.445	36.61
800.62	37.06
800.795	39.34
800.97	39.71
801.145	36.51
801.319	36.18
801.494	30.66
801.669	30.13
801.844	28.94
802.018	34.88
802.193	32.15
802.368	31.97
802.543	35.13
802.717	34.24
802.892	36.91
803.067	40.22
803.241	38.42
803.416	39.31
803.59	39.5
803.765	39.11
803.94	36.37
804.114	40.59
804.289	40.28
804.463	35.95
804.638	32.58
804.812	31.79
804.986	30.1
805.161	34.99
805.335	37.24
805.51	37.09
805.684	38.55
805.858	37.97
806.033	34.44
806.207	32.93
806.381	33.01
806.556	36.7
806.73	35.91
806.904	36.2
807.078	31.88
807.253	29.71
807.427	26.15
807.601	27.25
807.775	26.18
807.949	25.7
808.123	32.55
808.298	35.6
808.472	34.72
808.646	30.48
808.82	32.28
808.994	33.61
809.168	34.78
809.342	35.8
809.516	37.05
809.69	36.93
809.864	36.65
810.038	31.91
810.212	29.4
810.385	28.77
810.559	32.29
810.733	32.22
810.907	32.05
811.081	29.66
811.255	30.82
811.428	29.02
811.602	27.53
811.776	28.59
811.95	27.05
812.123	27.61
812.297	27.2
812.471	30.31
812.644	28.74
812.818	27.13
812.992	32.55
813.165	32.73
813.339	32.14
813.512	37
813.686	38.88
813.86	36.29
814.033	35.13
814.207	34.76
814.38	33.25
814.554	32.4
814.727	33.42
814.9	28.84
815.074	29.98
815.247	29.05
815.421	24.24
815.594	21.8
815.767	21.95
815.941	24.33
816.114	27.55
816.287	26.18
816.46	24.07
816.634	24.25
816.807	24.26
816.98	20.96
817.153	21.8
817.327	19.93
817.5	20.27
817.673	20.85
817.846	17.65
818.019	18.21
818.192	23.49
818.365	27.46
818.538	28.51
818.711	28.46
818.884	30.48
819.057	29.83
819.23	33.75
819.403	32.38
819.576	34.55
819.749	37.37
819.922	36.62
820.095	33.75
820.268	32.87
820.441	33.15
820.614	31.9
820.786	32.1
820.959	31.68
821.132	29.65
821.305	29.56
821.477	30.61
821.65	30.12
821.823	29.31
821.996	27.84
822.168	27.71
822.341	28.24
822.514	29.4
822.686	29.14
822.859	29.73
823.031	30.44
823.204	30.48
823.376	30.65
823.549	30.38
823.722	31.53
823.894	32.39
824.067	32.47
824.239	32.12
824.411	31.21
824.584	31.39
824.756	31.19
824.929	30.92
825.101	31.95
825.273	31.54
825.446	31.84
825.618	30.6
825.79	31.76
825.963	32.68
826.135	33.09
826.307	33.56
826.479	33.88
826.652	34.2
826.824	34.06
826.996	34.57
827.168	33
827.34	33.75
827.512	33.82
827.684	31.67
827.856	31.14
828.029	29.3
828.201	29.58
828.373	29.24
828.545	28.31
828.717	25.95
828.889	22.89
829.061	23.2
829.232	21.46
829.404	20.35
829.576	20.56
829.748	21.69
829.92	27.07
830.092	27.22
830.264	28.99
830.436	28.78
830.607	34.31
830.779	39.51
830.951	38.24
831.123	40.93
831.294	39.55
831.466	41.49
831.638	40.79
831.809	34.61
831.981	32.35
832.153	30.02
832.324	28.36
832.496	25.47
832.667	21.03
832.839	25.06
833.011	22.73
833.182	25.26
833.354	26.37
833.525	27.44
833.697	28.84
833.868	29.83
834.039	29.16
834.211	29.95
834.382	29.47
834.554	29.17
834.725	30
834.896	30.35
835.068	33.25
835.239	33.74
835.41	34.2
835.581	33.08
835.753	33.67
835.924	35.57
836.095	37.4
836.266	38.71
836.438	38.06
836.609	40.83
836.78	42.27
836.951	38.52
837.122	40.93
837.293	40.07
837.464	43.8
837.635	43.43
837.806	43.95
837.977	42.45
838.148	42.34
838.319	41.21
838.49	37.25
838.661	39.01
838.832	42.29
839.003	36.56
839.174	36.98
839.345	31.59
839.516	32.53
839.687	26.59
839.857	27.71
840.028	26
840.199	31.58
840.37	36.1
840.54	32.06
840.711	38.52
840.882	40.53
841.053	40.09
841.223	46.92
841.394	46.41
841.564	50.21
841.735	50.82
841.906	58.2
842.076	61.41
842.247	59.18
842.417	60.58
842.588	46.03
842.758	52.5
842.929	52.41
843.099	46.41
843.27	46.58
843.44	48.03
843.611	52.9
843.781	37.55
843.951	32.13
844.122	21.21
844.292	21.21
844.462	33.32
844.633	20.62
844.803	26.25
844.973	29.21
845.144	32.36
845.314	33.23
845.484	35.28
845.654	41.8
845.824	45.17
845.995	52.57
846.165	52.19
846.335	48.87
846.505	53.42
846.675	59.78
846.845	62.94
847.015	61.72
847.185	62.95
847.355	55.12
847.525	54.58
847.695	56.93
847.865	57.64
848.035	58.78
848.205	60.44
848.375	55.77
848.545	46.84
848.715	44.52
848.884	43.1
849.054	44.1
849.224	45.05
849.394	41.61
849.564	42.24
849.733	42.21
849.903	40.95
850.073	41.78
850.243	39.39
850.412	43.21
850.582	32.01
850.752	29.43
850.921	28.88
851.091	31.35
851.26	41.61
851.43	41.71
851.599	36.83
851.769	31.93
851.939	34.88
852.108	41.07
852.278	44.67
852.447	51.09
852.616	57.57
852.786	53.67
852.955	57.73
853.125	53.96
853.294	60.53
853.463	59.6
853.633	66.45
853.802	60.48
853.971	64.32
854.141	48.35
854.31	55.78
854.479	51.79
854.648	53.75
854.818	42.14
854.987	37.3
855.156	23.96
855.325	24.91
855.494	20.68
855.663	28.79
855.832	17.8
856.001	22.34
856.171	20.62
856.34	21.75
856.509	28.09
856.678	37.35
856.847	40.9
857.016	62.11
857.185	70.5
857.353	76.18
857.522	77.76
857.691	85.92
857.86	85.33
858.029	82.33
858.198	84.08
858.367	81.03
858.535	73.28
858.704	70.69
858.873	54.68
859.042	56.8
859.21	58.75
859.379	49.7
859.548	42.31
859.717	43.22
859.885	34.89
860.054	39.63
860.222	28.56
860.391	24.3
860.56	37.1
860.728	65.95
860.897	60.01
861.065	53.58
861.234	66.19
861.402	68.83
861.571	84.65
861.739	75.46
861.908	60.89
862.076	62.15
862.244	53
862.413	47.42
862.581	36.29
862.749	39.33
862.918	36.09
863.086	35.78
863.254	36.21
863.423	23.31
863.591	33.9
863.759	32.65
863.927	34.72
864.096	35
864.264	33.64
864.432	41.46
864.6	33.57
864.768	26.3
864.936	41.29
865.104	39.33
865.272	62.07
865.44	58.59
865.608	51.7
865.776	37.85
865.944	44.88
866.112	53.15
866.28	42.46
866.448	47.33
866.616	60.09
866.784	59.29
866.952	63.22
867.12	54.06
867.288	55.13
867.455	68.13
867.623	74.82
867.791	75.84
867.959	70.48
868.127	80.75
868.294	84.33
868.462	73.94
868.63	60.36
868.797	46.74
868.965	37.51
869.133	13.17
869.3	-6.07
869.468	1.95
869.636	11.33
869.803	10.95
869.971	6.11
870.138	8.02
870.306	1.85
870.473	-1.63
870.641	-4.18
870.808	34.7
870.975	83.57
871.143	81.42
871.31	76.03
871.478	63.34
871.645	56.31
871.812	47.86
871.98	41.17
872.147	48.17
872.314	48.67
872.482	45.72
872.649	40.37
872.816	24.36
872.983	34.39
873.15	21.12
873.318	36.86
873.485	39.09
873.652	41.81
873.819	39.07
873.986	43.83
874.153	35.51
874.32	39.5
874.487	42.44
874.654	39.9
874.821	31.98
874.988	31.93
875.155	32.6
875.322	49.33
875.489	47.84
875.656	51.02
875.823	52.81
875.99	49.91
876.157	54.69
876.324	52.8
876.49	57.94
876.657	59.27
876.824	61.16
876.991	62.51
877.157	48.25
877.324	43.98
877.491	44.39
877.658	33.94
877.824	33.27
877.991	28.49
878.157	30.41
878.324	18.92
878.491	17.01
878.657	21.61
878.824	20.49
878.99	43.33
879.157	50.36
879.323	57.82
879.49	68.18
879.656	65.55
879.823	70.27
879.989	71.35
880.156	70.74
880.322	64.32
880.488	49.31
880.655	40.52
880.821	31.32
880.987	35.57
881.154	26.23
881.32	29.93
881.486	39.16
881.652	30.67
881.819	30.78
881.985	33.06
882.151	35.33
882.317	38.95
882.483	38.53
882.649	36.65
882.816	36.19
882.982	35.34
883.148	30.3
883.314	28.26
883.48	28.14
883.646	27.31
883.812	26.28
883.978	25.95
884.144	26.67
884.31	25.26
884.476	26.31
884.642	24.75
884.807	25.53
884.973	25.84
885.139	27.51
885.305	28.28
885.471	30.49
885.637	33.5
885.802	34.8
885.968	31.15
886.134	34.57
886.3	34.57
886.465	34.94
886.631	35.27
886.797	37.93
886.962	39.22
887.128	41.26
887.293	36.06
887.459	34.4
887.625	25.8
887.79	29.39
887.956	27.9
888.121	28.16
888.287	30.75
888.452	29.4
888.618	26.02
888.783	10.05
