Data from 2937883_Reflection_2.txt Node
Date: Wed Jul 15 14:39:51 EDT 2015
User: robert
Spectrometer: USB4E03001
Autoset integration time: false
Trigger mode: 4
Integration Time (sec): 1.000000E-1
Scans to average: 10
Electric dark correction enabled: true
Nonlinearity correction enabled: false
Boxcar width: 5
Stray light correction enabled: false
XAxis mode: Wavelengths
Stop averaging: false
Number of Pixels in Spectrum: 3648
>>>>>Begin Spectral Data<<<<<
177.566	47.4
177.785	88.19
178.005	85.22
178.225	91.87
178.445	822.64
178.665	-258.97
178.885	-151
179.105	22.26
179.324	32.09
179.544	27.31
179.764	93.06
179.984	85.93
180.204	214.52
180.423	263.08
180.643	335.76
180.863	-1209.69
181.083	-132.89
181.302	-525.04
181.522	-106.28
181.742	-41.79
181.961	-10.31
182.181	57.39
182.401	43.44
182.621	101.98
182.84	95.8
183.06	96.92
183.279	163.08
183.499	198.34
183.719	182.76
183.938	286.49
184.158	286.07
184.377	93144.44
184.597	242.87
184.816	235.26
185.036	193.37
185.256	229.66
185.475	193.98
185.695	128.74
185.914	1355.75
186.134	155.32
186.353	193.17
186.572	152.35
186.792	308.92
187.011	165.75
187.231	131.43
187.45	130.88
187.67	120.87
187.889	255.02
188.108	162.66
188.328	-160.28
188.547	-328.23
188.766	-453.06
188.986	335.04
189.205	334.96
189.424	151.74
189.644	188.86
189.863	453.66
190.082	313.75
190.302	204.92
190.521	239.9
190.74	495.51
190.959	-36277.78
191.178	169.01
191.398	106.44
191.617	95.26
191.836	51.61
192.055	58.13
192.274	-47.35
192.494	70.19
192.713	264.56
192.932	261.38
193.151	238.38
193.37	-40.05
193.589	-110.18
193.808	-162.43
194.027	-99.34
194.246	-50.6
194.465	1069.32
194.685	543.93
194.904	2286.56
195.123	236.24
195.342	45.68
195.561	177.23
195.78	102.56
195.999	109.06
196.218	136.78
196.436	281.4
196.655	226.26
196.874	198.1
197.093	512.61
197.312	-348.09
197.531	-367.38
197.75	-403.35
197.969	-374.16
198.188	-389.39
198.407	-262.21
198.625	-111.78
198.844	-77.72
199.063	-32.1
199.282	-85.76
199.501	-106.04
199.719	20.07
199.938	26.78
200.157	29.95
200.376	95.03
200.594	162.63
200.813	-8.16
201.032	-9.42
201.251	-52.25
201.469	-124.79
201.688	-123.08
201.907	8.43
202.125	82.79
202.344	65.31
202.563	17.05
202.781	-19.85
203	-4.1
203.218	-52.44
203.437	-31.07
203.656	-10.47
203.874	1.91
204.093	-4.75
204.311	-207.45
204.53	-189.69
204.748	-232.66
204.967	-52.83
205.185	-17.7
205.404	-108.03
205.622	21.47
205.841	11.12
206.059	62.28
206.278	83.5
206.496	61.3
206.715	85.41
206.933	33.95
207.151	-156.67
207.37	-287.79
207.588	2088.44
207.806	593.32
208.025	-14.4
208.243	-266.16
208.461	-113.43
208.68	-131.42
208.898	-10.31
209.116	46.52
209.335	19.07
209.553	-140.24
209.771	-267.42
209.989	589.43
210.208	647.47
210.426	-48.26
210.644	-256.24
210.862	299.8
211.081	415.54
211.299	-121.91
211.517	59.12
211.735	251.79
211.953	-1.07
212.171	-277.09
212.39	-11482.86
212.608	-109.37
212.826	-69.07
213.044	-92.55
213.262	-147.09
213.48	-190.56
213.698	-146.32
213.916	-62.55
214.134	-130.42
214.352	-312.86
214.57	-53.72
214.788	-26.83
215.006	1.52
215.224	22.73
215.442	162.47
215.66	-71.82
215.878	-66.63
216.096	521.5
216.314	-103.74
216.532	-93.47
216.75	-72.52
216.968	-140.5
217.185	-110.47
217.403	-60.89
217.621	-36.74
217.839	-105.1
218.057	-128.3
218.275	-140.69
218.492	-148.96
218.71	-293.38
218.928	-1521.49
219.146	766.5
219.363	-1405.08
219.581	3587.61
219.799	476.5
220.017	-86.78
220.234	39.84
220.452	103.41
220.67	77.75
220.887	95.85
221.105	71.31
221.323	76.97
221.54	88.01
221.758	78.18
221.976	74.15
222.193	82.73
222.411	63.13
222.629	81.61
222.846	80.4
223.064	74.39
223.281	66.89
223.499	96.54
223.716	86.85
223.934	55.14
224.151	56.93
224.369	93.75
224.586	61.66
224.804	78.38
225.021	64.52
225.239	41.58
225.456	41.82
225.674	37.54
225.891	19.34
226.108	27.56
226.326	26.62
226.543	32.7
226.76	20.18
226.978	18.77
227.195	10.72
227.413	-5.19
227.63	-0.15
227.847	7.29
228.064	9.33
228.282	13.33
228.499	9.35
228.716	10.68
228.934	11.45
229.151	12.64
229.368	12.21
229.585	15.08
229.802	21.33
230.02	25.1
230.237	20.36
230.454	22.07
230.671	19.46
230.888	19.96
231.105	19.55
231.323	19.9
231.54	23.69
231.757	31.7
231.974	29.62
232.191	24.41
232.408	16.26
232.625	18.97
232.842	20.89
233.059	22.71
233.276	25.46
233.493	25.57
233.71	15.23
233.927	8.31
234.144	5.76
234.361	6.24
234.578	4.41
234.795	3.26
235.012	7.37
235.229	1.99
235.446	2.18
235.663	5.23
235.879	-3.28
236.096	9.16
236.313	5.95
236.53	4.67
236.747	3.19
236.964	12.73
237.181	22.19
237.397	27.4
237.614	24.1
237.831	23.53
238.048	21.47
238.264	24.63
238.481	22.4
238.698	20.34
238.915	16.16
239.131	16.79
239.348	13.91
239.565	9.81
239.781	1.54
239.998	4.87
240.215	7.64
240.431	3.26
240.648	2.31
240.865	1.84
241.081	5.52
241.298	6.57
241.514	8.7
241.731	8.91
241.947	9.13
242.164	10.31
242.38	8.53
242.597	7.26
242.814	8.49
243.03	11.62
243.246	13.97
243.463	12.33
243.679	11.89
243.896	8.72
244.112	7.66
244.329	10.52
244.545	9.94
244.762	11.01
244.978	10.01
245.194	10.27
245.411	10.76
245.627	10.63
245.843	13.29
246.06	13.65
246.276	15.9
246.492	15.75
246.709	14.47
246.925	15.88
247.141	15.4
247.357	16.94
247.574	17.59
247.79	16.32
248.006	15.32
248.222	16.34
248.439	15.8
248.655	13.63
248.871	13.86
249.087	13.41
249.303	12.21
249.519	12.1
249.736	10.83
249.952	8.44
250.168	10.78
250.384	10.63
250.6	9.01
250.816	11.16
251.032	14.43
251.248	12.28
251.464	13.48
251.68	13.06
251.896	13.63
252.112	14.12
252.328	12.89
252.544	9.17
252.76	7.61
252.976	5.76
253.192	3.59
253.408	4.01
253.624	6.47
253.84	6.59
254.056	3.6
254.272	2.91
254.487	0.94
254.703	-2.76
254.919	1.98
255.135	5.41
255.351	5.34
255.567	8.08
255.782	8.07
255.998	8.37
256.214	8.99
256.43	10.64
256.646	10.23
256.861	8.46
257.077	11.49
257.293	8.63
257.508	7.16
257.724	8.23
257.94	6.4
258.155	5.38
258.371	4.3
258.587	4.77
258.802	6.98
259.018	7.9
259.234	9.39
259.449	9.47
259.665	9.29
259.88	10.23
260.096	10.51
260.312	10.84
260.527	11.23
260.743	10.81
260.958	10.91
261.174	9.08
261.389	8.69
261.605	7.79
261.82	8.31
262.036	9.08
262.251	8.3
262.466	6.6
262.682	5.65
262.897	5.15
263.113	3.5
263.328	0.05
263.543	1.31
263.759	-0.74
263.974	-1.08
264.189	-1.23
264.405	-2.54
264.62	-0.72
264.835	-1.97
265.051	0.06
265.266	2.68
265.481	5.77
265.696	9.06
265.912	11.96
266.127	14.04
266.342	13.06
266.557	11.26
266.773	11.58
266.988	12.35
267.203	13.16
267.418	12.19
267.633	10.92
267.848	11.57
268.064	11.21
268.279	11.71
268.494	12.92
268.709	12.5
268.924	14.05
269.139	12.26
269.354	11.61
269.569	11.43
269.784	10.43
269.999	8.88
270.214	6.86
270.429	4.86
270.644	1.63
270.859	0.85
271.074	0.43
271.289	-0.46
271.504	1.13
271.719	0.1
271.934	0.48
272.149	0.23
272.363	1.8
272.578	1.45
272.793	2.78
273.008	4.5
273.223	3.68
273.438	5.99
273.653	7.79
273.867	7.1
274.082	7.91
274.297	7.18
274.512	9.72
274.726	8.95
274.941	12.39
275.156	13.14
275.371	14.12
275.585	14.05
275.8	12.61
276.015	10.73
276.229	11.38
276.444	11.54
276.659	11.89
276.873	11.79
277.088	13.79
277.302	8.99
277.517	8.66
277.732	8.91
277.946	7.46
278.161	6.81
278.375	8.27
278.59	7.08
278.804	3.91
279.019	4.56
279.233	4.61
279.448	3.74
279.662	4.74
279.877	3.69
280.091	3.34
280.306	5.45
280.52	6.94
280.735	6.56
280.949	8.55
281.163	12.06
281.378	11.32
281.592	10.32
281.806	8.03
282.021	10.17
282.235	11.33
282.449	10.35
282.664	11.19
282.878	11
283.092	11.04
283.307	10.84
283.521	8.15
283.735	9.9
283.949	8.78
284.164	10.1
284.378	8.57
284.592	9.33
284.806	9.67
285.02	8.87
285.234	10.53
285.449	10.32
285.663	9.74
285.877	10.9
286.091	9.59
286.305	10.84
286.519	11.07
286.733	11.1
286.947	10.11
287.161	9.76
287.375	9.09
287.589	7.38
287.803	6.53
288.017	6.62
288.231	6.22
288.445	5.67
288.659	5.84
288.873	5
289.087	6.79
289.301	6.77
289.515	5.64
289.729	6.34
289.943	7.08
290.157	8.58
290.371	7.99
290.584	8.07
290.798	8.55
291.012	7.42
291.226	8.07
291.44	6.24
291.654	5.07
291.867	5.89
292.081	5.17
292.295	4.77
292.509	3.03
292.722	3.32
292.936	3.05
293.15	2.55
293.364	2.97
293.577	2.54
293.791	2.9
294.005	3.7
294.218	4.58
294.432	6.78
294.645	7.52
294.859	8.48
295.073	8.27
295.286	8.94
295.5	10.14
295.713	12.07
295.927	12.72
296.14	13.46
296.354	13.39
296.568	12.69
296.781	12.02
296.994	11.55
297.208	11.28
297.421	11.45
297.635	9.69
297.848	10.13
298.062	8.34
298.275	8.23
298.489	7.77
298.702	7.73
298.915	7.73
299.129	7.52
299.342	7.75
299.555	7.95
299.769	7.4
299.982	9.35
300.195	9.29
300.409	8.57
300.622	9.42
300.835	11.34
301.048	12.85
301.262	15.41
301.475	15.54
301.688	16.07
301.901	16.36
302.115	18.65
302.328	19.51
302.541	18.04
302.754	21.16
302.967	20.3
303.18	19.26
303.393	19.66
303.607	17.16
303.82	18.11
304.033	16.11
304.246	16.9
304.459	16.38
304.672	14.77
304.885	15.64
305.098	13.29
305.311	15.09
305.524	15.43
305.737	13.16
305.95	13.92
306.163	13.71
306.376	15.23
306.589	13.89
306.802	13.37
307.015	14.71
307.228	14.82
307.44	17.29
307.653	16.68
307.866	16.12
308.079	14.1
308.292	14.43
308.505	12.88
308.718	11.85
308.93	11.61
309.143	11.07
309.356	10.39
309.569	11.44
309.781	7.68
309.994	6.25
310.207	7.82
310.42	9.03
310.632	9.02
310.845	9.74
311.058	10.63
311.27	10.52
311.483	10.69
311.696	11
311.908	10.14
312.121	11.45
312.333	12.06
312.546	12.07
312.759	12.43
312.971	12.02
313.184	12.56
313.396	11.67
313.609	12.62
313.821	12.82
314.034	11.44
314.246	13.03
314.459	16.1
314.671	15.05
314.884	13.17
315.096	14.02
315.309	14.7
315.521	13.75
315.733	12.08
315.946	10.96
316.158	11.53
316.371	13.34
316.583	12.03
316.795	8.91
317.008	11.89
317.22	11.78
317.432	10.72
317.644	9.52
317.857	10.47
318.069	12.19
318.281	12.93
318.494	12.57
318.706	13.09
318.918	13.59
319.13	13.74
319.342	11.28
319.555	12.63
319.767	12.77
319.979	13.33
320.191	13.5
320.403	15.58
320.615	13.71
320.827	14.43
321.039	15.06
321.252	14.15
321.464	14.77
321.676	16.6
321.888	15.79
322.1	16.59
322.312	17.29
322.524	16.87
322.736	16.34
322.948	18.37
323.16	16.86
323.372	14.95
323.584	13.97
323.796	11.82
324.007	12.96
324.219	13.17
324.431	13.62
324.643	12.7
324.855	12.26
325.067	11.76
325.279	10.48
325.491	12.1
325.702	11.71
325.914	13.51
326.126	15.62
326.338	15.43
326.55	14.37
326.761	14.06
326.973	14.75
327.185	14.23
327.396	11.68
327.608	10.52
327.82	10.71
328.032	12.64
328.243	13.11
328.455	13.57
328.666	11.11
328.878	13.24
329.09	13.95
329.301	13.75
329.513	16.54
329.725	18.5
329.936	20.88
330.148	18.1
330.359	18.98
330.571	18.21
330.782	17.11
330.994	19.05
331.205	17.32
331.417	17.41
331.628	16.88
331.84	14.9
332.051	15.44
332.262	16.55
332.474	17.17
332.685	15.82
332.897	14.56
333.108	16.82
333.319	15.54
333.531	16.63
333.742	15.12
333.953	16.07
334.165	17.89
334.376	19.39
334.587	19.65
334.799	20.79
335.01	19.93
335.221	20.48
335.432	18.55
335.644	19.36
335.855	18.73
336.066	18.95
336.277	18.18
336.488	15.9
336.7	14.47
336.911	14.93
337.122	14.61
337.333	15.37
337.544	13.15
337.755	13.94
337.966	11.71
338.177	12.1
338.388	13.73
338.599	13.37
338.811	13.82
339.022	12.92
339.233	10.91
339.444	10.09
339.655	8.48
339.866	13.49
340.076	13.54
340.287	15.98
340.498	17.48
340.709	16.1
340.92	15.99
341.131	16.14
341.342	17.29
341.553	19.23
341.764	19.89
341.975	20.57
342.185	18.74
342.396	18.15
342.607	17.3
342.818	16.04
343.029	17.1
343.239	19.02
343.45	19.14
343.661	17.85
343.872	16.21
344.082	15.78
344.293	16.3
344.504	15.63
344.714	15.86
344.925	15.98
345.136	16.02
345.346	14.41
345.557	13.44
345.768	13.78
345.978	14.81
346.189	14.41
346.399	15.82
346.61	16.89
346.821	17.1
347.031	15.99
347.242	16.17
347.452	16.36
347.663	16.63
347.873	16.72
348.084	15.67
348.294	15.4
348.504	17.86
348.715	15.16
348.925	12.84
349.136	14.7
349.346	14.4
349.557	14.59
349.767	14.16
349.977	14.04
350.188	14.77
350.398	17.18
350.608	16.95
350.819	14.7
351.029	15.11
351.239	15.87
351.449	13.66
351.66	15.39
351.87	16.64
352.08	15.76
352.29	15.14
352.501	14.71
352.711	12.81
352.921	12.7
353.131	13.93
353.341	14.34
353.552	13.82
353.762	13.87
353.972	14.21
354.182	12.38
354.392	13.34
354.602	14.87
354.812	14.27
355.022	14.83
355.232	16.91
355.442	15.85
355.652	16.11
355.862	15.76
356.072	16.45
356.282	16.09
356.492	16.37
356.702	16.02
356.912	15.62
357.122	16.21
357.332	15.99
357.542	14.81
357.752	14.1
357.962	14.71
358.171	14.61
358.381	13.31
358.591	13.21
358.801	11.53
359.011	11.77
359.221	12.54
359.43	11.3
359.64	10.85
359.85	10.63
360.06	11.21
360.269	11.84
360.479	12.54
360.689	14.09
360.899	14.23
361.108	14.92
361.318	15.76
361.528	14.93
361.737	15.81
361.947	16.14
362.156	16.02
362.366	15.67
362.576	14.56
362.785	14.85
362.995	13.95
363.204	14.08
363.414	14.19
363.623	13.57
363.833	13.45
364.042	12.29
364.252	13.87
364.461	14.33
364.671	14.2
364.88	14.28
365.09	13.35
365.299	13.34
365.509	12.4
365.718	12.35
365.927	11.77
366.137	11.59
366.346	12.13
366.555	10.97
366.765	10.09
366.974	10.86
367.183	12.37
367.393	11.89
367.602	12.59
367.811	12.56
368.021	13.21
368.23	13.43
368.439	14.54
368.648	14.43
368.857	13.65
369.067	14.14
369.276	13.89
369.485	13.68
369.694	14.79
369.903	14.01
370.112	14.1
370.321	14.46
370.531	14.13
370.74	12.84
370.949	13.13
371.158	14.33
371.367	15.52
371.576	15.07
371.785	14.17
371.994	14.06
372.203	14.35
372.412	14.92
372.621	13.54
372.83	13.49
373.039	14.03
373.248	14.15
373.457	12.58
373.666	10.69
373.874	10.9
374.083	10.07
374.292	9.59
374.501	8.63
374.71	9.23
374.919	10.55
375.128	10.94
375.336	11.16
375.545	10.62
375.754	11.07
375.963	10.8
376.171	11.45
376.38	12.18
376.589	12.32
376.798	13.04
377.006	12.27
377.215	11.72
377.424	11.04
377.632	11.19
377.841	11.34
378.05	11.29
378.258	11.75
378.467	11.55
378.675	10.83
378.884	10.95
379.093	10.37
379.301	10.3
379.51	10.4
379.718	10.35
379.927	9.64
380.135	9.5
380.344	9.67
380.552	10.29
380.761	9.71
380.969	9.93
381.177	9.51
381.386	9.61
381.594	9.39
381.803	9.39
382.011	9.41
382.219	10
382.428	10.34
382.636	10.5
382.845	9.65
383.053	9.84
383.261	10.67
383.469	10.49
383.678	10.71
383.886	11
384.094	10.85
384.302	10.93
384.511	9.96
384.719	9.46
384.927	9.54
385.135	9.91
385.343	10.13
385.552	9.67
385.76	10.08
385.968	10.1
386.176	10.12
386.384	9.96
386.592	9.95
386.8	10.39
387.008	10.52
387.216	10.61
387.424	10.43
387.633	10.32
387.841	10.32
388.049	10.39
388.257	10.2
388.465	10.09
388.672	9.78
388.88	10.11
389.088	10.54
389.296	10.47
389.504	9.83
389.712	9.3
389.92	9.23
390.128	8.93
390.336	8.53
390.544	8.92
390.751	9.07
390.959	9.72
391.167	9.42
391.375	9.09
391.583	9.49
391.79	9.64
391.998	10.31
392.206	10.47
392.414	10.69
392.621	10.97
392.829	10.36
393.037	10.14
393.244	9.95
393.452	9.88
393.66	9.58
393.867	9.01
394.075	8.79
394.283	8.91
394.49	8.36
394.698	8.06
394.905	7.84
395.113	8.2
395.32	7.27
395.528	6.99
395.735	7.26
395.943	7.69
396.15	8.12
396.358	7.94
396.565	7.34
396.773	7.6
396.98	8.09
397.188	8.06
397.395	8.19
397.602	9.08
397.81	9.37
398.017	9
398.225	9.35
398.432	8.96
398.639	9.51
398.847	9.57
399.054	9.37
399.261	8.79
399.468	8.78
399.676	8.53
399.883	8.52
400.09	8.44
400.297	8.18
400.505	7.02
400.712	7.41
400.919	7.05
401.126	7.09
401.333	7.4
401.54	7.29
401.748	6.75
401.955	6.71
402.162	6.41
402.369	6.15
402.576	6.64
402.783	6.94
402.99	6.62
403.197	6.66
403.404	6.55
403.611	6.35
403.818	6.54
404.025	7.17
404.232	6.99
404.439	7.06
404.646	7.09
404.853	6.87
405.06	7.09
405.267	7.27
405.474	7.02
405.681	6.81
405.887	6.79
406.094	6.97
406.301	7.19
406.508	7.45
406.715	7.55
406.922	7.44
407.128	7.34
407.335	6.95
407.542	7.02
407.749	6.93
407.955	7.28
408.162	7.2
408.369	6.99
408.575	6.65
408.782	6.49
408.989	6.32
409.195	6.28
409.402	6.24
409.609	6.44
409.815	6.23
410.022	6.62
410.228	6.94
410.435	6.66
410.642	6.71
410.848	6.7
411.055	6.64
411.261	7.15
411.468	6.95
411.674	7.23
411.881	7.24
412.087	7.46
412.294	7.34
412.5	7.12
412.706	7.92
412.913	7.83
413.119	7.98
413.326	8.26
413.532	7.98
413.738	8.46
413.945	8.52
414.151	8.68
414.357	8.43
414.564	8.64
414.77	8.51
414.976	7.97
415.182	8.35
415.389	8.15
415.595	8.25
415.801	8.38
416.007	8.35
416.214	8.31
416.42	8.19
416.626	8.35
416.832	8.28
417.038	8.49
417.244	8.6
417.45	8.37
417.657	8.44
417.863	7.97
418.069	7.76
418.275	7.7
418.481	7.63
418.687	7.66
418.893	7.46
419.099	7.41
419.305	7.19
419.511	7.23
419.717	7.36
419.923	7.22
420.129	7.33
420.335	7.27
420.541	7.2
420.746	7.08
420.952	7.12
421.158	7.3
421.364	7.28
421.57	7.13
421.776	6.98
421.982	6.88
422.187	6.94
422.393	7.03
422.599	7.08
422.805	7.02
423.01	7.25
423.216	7.17
423.422	7.01
423.628	7.04
423.833	7.23
424.039	7.28
424.245	7.2
424.45	7.26
424.656	7.36
424.862	7.37
425.067	7.47
425.273	7.37
425.478	7.38
425.684	7.33
425.889	7.16
426.095	7.09
426.301	7.07
426.506	7.31
426.712	7.29
426.917	7.02
427.123	7
427.328	7.06
427.533	6.93
427.739	7.17
427.944	7.26
428.15	7.56
428.355	7.7
428.561	7.71
428.766	7.42
428.971	7.42
429.177	7.67
429.382	7.5
429.587	7.64
429.793	7.73
429.998	7.45
430.203	7.56
430.408	7.26
430.614	7.3
430.819	7.06
431.024	7.15
431.229	7
431.434	6.56
431.64	6.92
431.845	6.91
432.05	6.76
432.255	6.65
432.46	6.87
432.665	7
432.87	6.69
433.076	7.1
433.281	7.25
433.486	7.16
433.691	7.52
433.896	7.32
434.101	7.13
434.306	7.14
434.511	7.31
434.716	6.98
434.921	7.09
435.126	7.21
435.331	7.04
435.535	6.85
435.74	7.07
435.945	6.6
436.15	6.55
436.355	6.62
436.56	6.79
436.765	6.76
436.97	6.86
437.174	6.81
437.379	6.89
437.584	6.86
437.789	6.74
437.993	6.72
438.198	7.17
438.403	7.23
438.608	7.14
438.812	7.25
439.017	7.28
439.222	7.19
439.426	7.24
439.631	7.27
439.836	7.62
440.04	7.73
440.245	7.65
440.45	7.61
440.654	7.84
440.859	7.76
441.063	7.68
441.268	7.76
441.472	7.89
441.677	7.89
441.881	7.73
442.086	7.39
442.29	7.42
442.495	7.41
442.699	7.35
442.904	6.83
443.108	6.91
443.312	6.87
443.517	6.87
443.721	6.73
443.925	6.6
444.13	6.88
444.334	7.03
444.538	7.02
444.743	7.13
444.947	7.26
445.151	7.51
445.356	7.67
445.56	7.63
445.764	7.55
445.968	7.4
446.173	7.39
446.377	7.16
446.581	7
446.785	6.98
446.989	6.82
447.193	6.86
447.398	6.89
447.602	6.74
447.806	6.75
448.01	6.74
448.214	6.9
448.418	6.87
448.622	7.08
448.826	7.24
449.03	7.32
449.234	7.39
449.438	7.37
449.642	7.34
449.846	7.36
450.05	7.48
450.254	7.42
450.458	7.49
450.662	7.51
450.866	7.54
451.069	7.44
451.273	7.5
451.477	7.55
451.681	7.31
451.885	7.31
452.089	7.45
452.292	7.26
452.496	7.28
452.7	7.14
452.904	7.14
453.107	7.06
453.311	7.02
453.515	6.98
453.719	6.86
453.922	7.11
454.126	7.01
454.33	6.99
454.533	7.35
454.737	7.28
454.94	7.33
455.144	7.28
455.348	7.18
455.551	7.13
455.755	7.15
455.958	7.25
456.162	7.04
456.365	7.21
456.569	7.22
456.772	7
456.976	7.06
457.179	6.86
457.383	6.92
457.586	7.27
457.79	7.4
457.993	7.18
458.196	7.33
458.4	7.66
458.603	7.46
458.807	7.28
459.01	7.14
459.213	7.08
459.417	7.34
459.62	7.47
459.823	7.29
460.026	7.25
460.23	7.37
460.433	7.39
460.636	7.17
460.839	7.22
461.042	7.22
461.246	7.26
461.449	7.42
461.652	7.3
461.855	7.1
462.058	6.9
462.261	7
462.464	6.91
462.668	6.7
462.871	6.54
463.074	6.47
463.277	6.68
463.48	6.88
463.683	6.76
463.886	6.87
464.089	7.03
464.292	7.18
464.495	7.1
464.698	7.42
464.901	7.41
465.104	7.34
465.306	7.26
465.509	7.14
465.712	6.9
465.915	6.86
466.118	6.89
466.321	6.88
466.524	7.04
466.726	6.96
466.929	6.78
467.132	6.83
467.335	6.98
467.538	7.05
467.74	6.88
467.943	6.98
468.146	6.97
468.348	6.92
468.551	6.91
468.754	7.01
468.956	6.93
469.159	6.75
469.362	6.82
469.564	6.82
469.767	6.92
469.969	7
470.172	6.86
470.375	6.86
470.577	6.95
470.78	6.86
470.982	6.73
471.185	7.23
471.387	7.07
471.59	7.02
471.792	7.02
471.995	6.96
472.197	7.09
472.399	7.35
472.602	7.35
472.804	7.3
473.007	7.31
473.209	7.08
473.411	6.96
473.614	7.15
473.816	7.33
474.018	7.43
474.22	7.42
474.423	7.36
474.625	7.35
474.827	7.32
475.03	7.5
475.232	7.66
475.434	7.92
475.636	7.55
475.838	7.72
476.04	7.55
476.243	7.42
476.445	7.32
476.647	7.49
476.849	7.22
477.051	7.07
477.253	6.84
477.455	6.79
477.657	6.63
477.859	6.76
478.061	6.73
478.263	6.64
478.465	6.65
478.667	6.75
478.869	6.55
479.071	6.69
479.273	6.82
479.475	6.82
479.677	6.79
479.879	6.72
480.081	6.45
480.283	6.48
480.485	6.53
480.686	6.55
480.888	6.47
481.09	6.61
481.292	6.72
481.494	6.69
481.695	6.79
481.897	6.91
482.099	7.06
482.301	7.28
482.502	7.17
482.704	7.1
482.906	7.19
483.107	7.3
483.309	7.28
483.511	7.15
483.712	7.26
483.914	7.23
484.115	7.17
484.317	7.17
484.519	7.15
484.72	7.2
484.922	7.26
485.123	7.24
485.325	7.17
485.526	7.12
485.728	7.23
485.929	7.16
486.131	7.1
486.332	7.07
486.534	7.08
486.735	7.02
486.936	7
487.138	6.97
487.339	6.87
487.541	6.98
487.742	6.99
487.943	7
488.144	7.01
488.346	7.07
488.547	7.07
488.748	6.96
488.95	6.94
489.151	6.91
489.352	6.96
489.553	7.15
489.755	6.97
489.956	7
490.157	6.9
490.358	6.86
490.559	6.86
490.76	7
490.961	7.24
491.163	7.38
491.364	7.34
491.565	7.29
491.766	7.19
491.967	7.25
492.168	7.37
492.369	7.37
492.57	7.4
492.771	7.37
492.972	7.27
493.173	7.02
493.374	6.97
493.575	7.03
493.776	7.04
493.976	7.02
494.177	7.11
494.378	6.97
494.579	7.11
494.78	7.06
494.981	7.27
495.182	7.31
495.382	7.48
495.583	7.38
495.784	7.35
495.985	7.37
496.185	7.39
496.386	7.44
496.587	7.31
496.788	7.18
496.988	7.29
497.189	7.15
497.39	7.25
497.59	7.25
497.791	7.28
497.992	7.36
498.192	7.36
498.393	7.32
498.593	7.1
498.794	7.19
498.994	7.43
499.195	7.39
499.395	7.39
499.596	7.42
499.796	7.25
499.997	7.21
500.197	7.02
500.398	6.89
500.598	6.81
500.799	6.97
500.999	6.9
501.199	6.71
501.4	6.85
501.6	6.89
501.801	6.74
502.001	7.01
502.201	7.1
502.402	7.26
502.602	7.53
502.802	7.62
503.002	7.65
503.203	7.75
503.403	7.97
503.603	7.75
503.803	7.51
504.003	7.63
504.204	7.63
504.404	7.6
504.604	7.53
504.804	7.52
505.004	7.67
505.204	7.85
505.404	7.78
505.604	7.66
505.804	7.7
506.005	7.92
506.205	7.87
506.405	7.91
506.605	7.97
506.805	7.97
507.005	8.06
507.204	8
507.404	7.81
507.604	7.86
507.804	7.9
508.004	8.14
508.204	8.12
508.404	8.05
508.604	7.88
508.804	7.91
509.003	7.9
509.203	7.78
509.403	7.74
509.603	7.64
509.803	7.6
510.002	7.41
510.202	7.37
510.402	7.39
510.602	7.45
510.801	7.6
511.001	7.56
511.201	7.55
511.4	7.55
511.6	7.71
511.8	8.05
511.999	8.2
512.199	8.31
512.398	8.13
512.598	8.29
512.797	8.44
512.997	8.41
513.197	8.35
513.396	8.52
513.596	8.75
513.795	8.77
513.994	8.51
514.194	8.51
514.393	8.33
514.593	8.5
514.792	8.34
514.992	8.22
515.191	8.2
515.39	8.3
515.59	8.22
515.789	8.07
515.988	7.98
516.188	8.16
516.387	8.12
516.586	8.32
516.786	8.46
516.985	8.64
517.184	8.83
517.383	8.93
517.582	9.07
517.782	9.18
517.981	9
518.18	9
518.379	8.91
518.578	9.01
518.777	9.09
518.976	8.98
519.176	8.88
519.375	8.79
519.574	8.8
519.773	8.82
519.972	8.85
520.171	9
520.37	9.11
520.569	9.16
520.768	9.27
520.967	9.39
521.166	9.39
521.365	9.52
521.564	9.62
521.762	9.62
521.961	9.51
522.16	9.33
522.359	9.64
522.558	9.57
522.757	9.66
522.956	9.48
523.154	9.52
523.353	9.66
523.552	9.69
523.751	9.62
523.949	9.71
524.148	9.85
524.347	9.87
524.546	9.58
524.744	9.57
524.943	9.57
525.142	9.63
525.34	9.59
525.539	9.65
525.737	9.69
525.936	9.74
526.135	9.74
526.333	9.73
526.532	9.84
526.73	9.9
526.929	9.95
527.127	10.02
527.326	9.99
527.524	9.97
527.723	9.96
527.921	9.81
528.12	9.87
528.318	9.92
528.516	9.95
528.715	10.02
528.913	10.08
529.112	10.13
529.31	10.12
529.508	10.16
529.707	10.17
529.905	10.14
530.103	10.23
530.301	10.2
530.5	10.12
530.698	10.09
530.896	10.06
531.094	10.06
531.293	10.03
531.491	10.03
531.689	10.12
531.887	10.3
532.085	10.49
532.283	10.53
532.481	10.65
532.68	10.79
532.878	10.74
533.076	10.7
533.274	10.76
533.472	10.81
533.67	10.89
533.868	10.96
534.066	10.78
534.264	10.71
534.462	10.75
534.66	10.76
534.858	10.82
535.056	10.99
535.253	11.05
535.451	11.19
535.649	11.18
535.847	11.2
536.045	11.35
536.243	11.62
536.441	11.62
536.638	11.59
536.836	11.64
537.034	11.67
537.232	11.71
537.43	11.78
537.627	11.64
537.825	11.79
538.023	11.75
538.22	11.57
538.418	11.56
538.616	11.56
538.813	11.62
539.011	11.56
539.209	11.43
539.406	11.53
539.604	11.52
539.801	11.6
539.999	11.67
540.196	11.71
540.394	11.76
540.591	11.74
540.789	11.98
540.986	12.17
541.184	12.26
541.381	12.38
541.579	12.37
541.776	12.44
541.974	12.47
542.171	12.45
542.368	12.46
542.566	12.4
542.763	12.43
542.96	12.34
543.158	12.34
543.355	12.32
543.552	12.29
543.75	12.27
543.947	12.27
544.144	12.21
544.341	12.29
544.539	12.38
544.736	12.71
544.933	12.77
545.13	12.8
545.327	12.86
545.524	12.93
545.722	13.09
545.919	13.08
546.116	13.27
546.313	13.39
546.51	13.45
546.707	13.51
546.904	13.51
547.101	13.52
547.298	13.71
547.495	13.7
547.692	13.84
547.889	13.92
548.086	14.03
548.283	13.99
548.48	14.04
548.677	13.88
548.874	13.84
549.07	13.95
549.267	14.08
549.464	14.1
549.661	14.19
549.858	14.17
550.055	14.03
550.251	14.11
550.448	14.01
550.645	14.38
550.842	14.73
551.038	15
551.235	14.85
551.432	14.82
551.628	14.83
551.825	14.77
552.022	14.91
552.218	14.9
552.415	14.93
552.612	15.29
552.808	14.98
553.005	15.14
553.201	15.09
553.398	15.22
553.594	15.28
553.791	15.31
553.987	15.65
554.184	15.72
554.38	15.92
554.577	16.08
554.773	16.04
554.97	16.18
555.166	15.96
555.362	15.87
555.559	15.98
555.755	15.97
555.952	16.23
556.148	16.09
556.344	16.01
556.541	15.93
556.737	16.04
556.933	15.93
557.129	16.04
557.326	16.15
557.522	16.4
557.718	16.33
557.914	16.45
558.11	16.34
558.307	16.43
558.503	16.54
558.699	16.81
558.895	16.81
559.091	16.82
559.287	16.86
559.483	16.85
559.679	16.75
559.876	16.93
560.072	17.13
560.268	17.28
560.464	17.31
560.66	17.37
560.856	17.19
561.052	17.09
561.247	17.4
561.443	17.45
561.639	17.62
561.835	18.02
562.031	18.11
562.227	18.13
562.423	18.04
562.619	17.79
562.815	17.93
563.01	17.96
563.206	18.39
563.402	18.38
563.598	18.51
563.793	18.38
563.989	18.5
564.185	18.43
564.381	18.45
564.576	18.56
564.772	18.63
564.968	18.6
565.163	18.88
565.359	18.74
565.555	18.47
565.75	18.41
565.946	18.71
566.141	18.48
566.337	18.53
566.532	18.75
566.728	18.56
566.923	18.8
567.119	18.98
567.314	19.06
567.51	19.05
567.705	19.21
567.901	19.33
568.096	19.31
568.292	19.59
568.487	19.72
568.682	19.64
568.878	19.96
569.073	20.07
569.268	20.04
569.464	19.95
569.659	19.93
569.854	20
570.05	20.07
570.245	20.21
570.44	20.06
570.635	20.34
570.831	20.24
571.026	20.09
571.221	19.99
571.416	19.82
571.611	19.76
571.806	19.89
572.002	20.02
572.197	20.3
572.392	20.21
572.587	20.37
572.782	20.33
572.977	20.36
573.172	20.56
573.367	20.55
573.562	20.62
573.757	20.94
573.952	20.98
574.147	20.89
574.342	20.57
574.537	20.66
574.732	20.53
574.927	20.31
575.121	20.4
575.316	20.46
575.511	20.51
575.706	20.76
575.901	20.92
576.096	20.8
576.29	21.08
576.485	21.3
576.68	21.17
576.875	21.17
577.069	21.25
577.264	21.41
577.459	21.46
577.654	21.64
577.848	21.68
578.043	21.27
578.238	21.56
578.432	21.43
578.627	21.47
578.821	21.7
579.016	21.81
579.21	21.83
579.405	21.98
579.6	21.73
579.794	21.71
579.989	21.43
580.183	21.51
580.378	21.45
580.572	21.59
580.766	21.38
580.961	21.24
581.155	21.25
581.35	21.45
581.544	21.39
581.738	21.57
581.933	21.59
582.127	21.54
582.321	21.74
582.516	21.79
582.71	21.81
582.904	22.24
583.099	22.46
583.293	22.33
583.487	22.16
583.681	22.12
583.875	22.09
584.07	22.15
584.264	22.04
584.458	21.99
584.652	22.26
584.846	22.38
585.04	22.21
585.234	22.2
585.428	22.43
585.623	22.41
585.817	22.37
586.011	22.7
586.205	22.31
586.399	22.75
586.593	22.82
586.787	22.49
586.981	22.36
587.174	22.45
587.368	22.47
587.562	22.75
587.756	22.7
587.95	22.76
588.144	22.49
588.338	23.13
588.532	22.95
588.725	22.98
588.919	23.33
589.113	23.2
589.307	22.95
589.501	23.07
589.694	23.09
589.888	23.15
590.082	22.98
590.275	23.05
590.469	22.98
590.663	23.17
590.856	23.11
591.05	22.88
591.244	23.08
591.437	23.27
591.631	22.96
591.824	22.76
592.018	23.07
592.212	23.14
592.405	23.12
592.599	23.03
592.792	22.92
592.986	22.99
593.179	23.19
593.372	23.33
593.566	23.43
593.759	23.44
593.953	23.27
594.146	22.74
594.339	22.51
594.533	22.17
594.726	21.9
594.92	21.91
595.113	21.83
595.306	21.65
595.499	21.65
595.693	21.4
595.886	21.78
596.079	22.2
596.272	22.63
596.466	23.11
596.659	23.55
596.852	23.77
597.045	23.77
597.238	23.78
597.431	23.68
597.624	23.71
597.818	23.99
598.011	24.07
598.204	23.67
598.397	23.54
598.59	23.19
598.783	23.18
598.976	23.27
599.169	23.34
599.362	23.4
599.555	23.53
599.748	23.35
599.941	23.3
600.134	23.23
600.326	23.83
600.519	23.73
600.712	24.03
600.905	23.96
601.098	24.04
601.291	24.23
601.483	24.46
601.676	24.36
601.869	24.38
602.062	24.05
602.255	24.02
602.447	23.49
602.64	23.98
602.833	23.9
603.025	23.77
603.218	23.72
603.411	23.42
603.603	23.34
603.796	23.71
603.989	23.82
604.181	24.16
604.374	24.04
604.566	24.27
604.759	24.1
604.951	24.18
605.144	24.45
605.336	24.31
605.529	24.37
605.721	24.49
605.914	24.56
606.106	24.6
606.299	24.47
606.491	24.59
606.683	24.48
606.876	24.5
607.068	24.5
607.26	24.44
607.453	24.54
607.645	24.53
607.837	24.36
608.03	23.98
608.222	23.84
608.414	24.06
608.606	23.92
608.799	23.92
608.991	23.72
609.183	23.74
609.375	23.62
609.567	23.5
609.759	23.49
609.952	23.26
610.144	23.34
610.336	23.14
610.528	22.94
610.72	23.19
610.912	23.06
611.104	22.8
611.296	22.45
611.488	22.23
611.68	22.27
611.872	22.38
612.064	22.79
612.256	22.29
612.448	22.21
612.64	22.07
612.832	21.93
613.023	22.27
613.215	22.78
613.407	23.22
613.599	23.6
613.791	23.7
613.983	23.8
614.174	23.64
614.366	24.16
614.558	24.54
614.75	24.34
614.941	24.38
615.133	24.04
615.325	23.78
615.516	23.41
615.708	23.19
615.9	23.23
616.091	23.38
616.283	23.35
616.475	23.11
616.666	23.26
616.858	23.76
617.049	23.49
617.241	23.63
617.432	23.82
617.624	24.51
617.815	24.32
618.007	24.11
618.198	23.94
618.39	24
618.581	24.31
618.773	24.5
618.964	24.26
619.155	24.38
619.347	24.63
619.538	24.75
619.729	24.17
619.921	24.4
620.112	24.45
620.303	24.39
620.494	24.32
620.686	24.48
620.877	24.19
621.068	24.34
621.259	24.21
621.451	23.76
621.642	23.79
621.833	23.86
622.024	24.1
622.215	24.32
622.406	24.45
622.597	24.17
622.788	24.02
622.98	23.77
623.171	23.76
623.362	23.89
623.553	24.14
623.744	24.25
623.935	24.62
624.126	24.41
624.317	24.27
624.508	24.2
624.698	24.39
624.889	24.25
625.08	24.49
625.271	24.55
625.462	24.65
625.653	24.63
625.844	24.39
626.034	24.09
626.225	24.06
626.416	24.22
626.607	24.37
626.798	24.55
626.988	24.93
627.179	24.7
627.37	24.68
627.56	24.21
627.751	24.62
627.942	24.57
628.132	24.66
628.323	25.03
628.514	24.89
628.704	24.92
628.895	25.01
629.085	24.63
629.276	24.81
629.466	24.96
629.657	25.33
629.847	25.18
630.038	25.16
630.228	25.02
630.419	24.74
630.609	24.66
630.8	24.85
630.99	24.82
631.181	24.61
631.371	24.86
631.561	24.71
631.752	24.67
631.942	24.61
632.132	24.82
632.323	25.12
632.513	25.21
632.703	25.28
632.893	25.09
633.084	24.85
633.274	25.02
633.464	24.88
633.654	25.03
633.844	25.46
634.034	25.33
634.225	25.48
634.415	25.57
634.605	25.23
634.795	25.37
634.985	25.33
635.175	25.33
635.365	25.67
635.555	25.67
635.745	25.53
635.935	25.01
636.125	24.6
636.315	24.53
636.505	24.11
636.695	24.56
636.885	24.45
637.075	24.22
637.265	24.1
637.455	24.06
637.644	24.11
637.834	24.09
638.024	24.26
638.214	24.75
638.404	24.35
638.593	24.45
638.783	24.73
638.973	25.21
639.163	25.22
639.352	25.24
639.542	24.94
639.732	25.04
639.921	25.21
640.111	25.18
640.301	25.4
640.49	25.84
640.68	26.29
640.87	25.79
641.059	25.57
641.249	25.93
641.438	26.21
641.628	26.34
641.817	26.43
642.007	25.84
642.196	25.7
642.386	25.64
642.575	25.27
642.764	24.76
642.954	24.65
643.143	24.68
643.333	24.15
643.522	24.47
643.711	24.9
643.901	24.26
644.09	24.91
644.279	24.94
644.469	25.19
644.658	25.48
644.847	25.73
645.036	25.54
645.226	25.39
645.415	25.46
645.604	25.22
645.793	24.64
645.982	25.56
646.171	25.4
646.361	25.28
646.55	25.33
646.739	25.18
646.928	25.49
647.117	26.11
647.306	26.14
647.495	26.29
647.684	25.83
647.873	26.55
648.062	26.22
648.251	26.46
648.44	26.62
648.629	26.16
648.818	26.27
649.007	25.77
649.196	25.31
649.384	25
649.573	24.98
649.762	25.68
649.951	25.2
650.14	25.39
650.328	25.47
650.517	25.66
650.706	25.66
650.895	25.51
651.083	25.72
651.272	26.1
651.461	26.25
651.65	26.32
651.838	25.82
652.027	25.83
652.216	25.79
652.404	25.48
652.593	25.47
652.781	25.76
652.97	26.11
653.158	26.41
653.347	26.75
653.535	26.61
653.724	26.67
653.912	26.64
654.101	26.8
654.289	26.29
654.478	26.37
654.666	26.29
654.855	26.27
655.043	25.72
655.231	25.59
655.42	25.14
655.608	25.86
655.796	26.01
655.985	26.56
656.173	26.77
656.361	27
656.55	26.65
656.738	26.6
656.926	26.05
657.114	26.61
657.302	26.42
657.491	26.15
657.679	25.81
657.867	25.88
658.055	25.48
658.243	25.1
658.431	24.98
658.619	25.48
658.807	25.76
658.996	25.72
659.184	25.59
659.372	25.2
659.56	25.39
659.748	25.49
659.936	25.41
660.124	25.78
660.311	25.44
660.499	25.6
660.687	25.1
660.875	24.94
661.063	25.31
661.251	25.49
661.439	26.19
661.627	26.42
661.814	26.48
662.002	26.23
662.19	26.46
662.378	26.87
662.565	26.68
662.753	26.9
662.941	27.48
663.129	27.17
663.316	26.85
663.504	26.62
663.692	26.95
663.879	26.51
664.067	27
664.254	26.52
664.442	26.78
664.63	27.13
664.817	27.13
665.005	26.1
665.192	26.25
665.38	26.51
665.567	26.25
665.755	25.94
665.942	26.02
666.13	26.36
666.317	26.28
666.504	25.67
666.692	25.53
666.879	25.76
667.067	26.27
667.254	25.99
667.441	25.94
667.629	26.58
667.816	25.87
668.003	25.96
668.19	25.24
668.378	25.61
668.565	26.61
668.752	26.42
668.939	26.47
669.127	26.13
669.314	26.35
669.501	26.18
669.688	25.48
669.875	25.95
670.062	25.74
670.249	25.89
670.436	25.63
670.623	25.12
670.81	25.62
670.997	25.48
671.184	25.72
671.371	26.14
671.558	26.38
671.745	26.58
671.932	26.28
672.119	27.24
672.306	27.19
672.493	27.14
672.68	27.3
672.867	27.42
673.054	27.21
673.24	27.03
673.427	26.43
673.614	26.39
673.801	26.8
673.988	26.88
674.174	26.58
674.361	26.41
674.548	26.11
674.734	25.86
674.921	25.61
675.108	25.58
675.294	25.94
675.481	26.28
675.668	25.77
675.854	25.48
676.041	25.54
676.227	24.99
676.414	25.09
676.601	25.36
676.787	25.36
676.974	25.23
677.16	25.63
677.347	25.54
677.533	25.66
677.719	25.57
677.906	25.43
678.092	25.84
678.279	25.98
678.465	26.34
678.651	26.28
678.838	26.22
679.024	26.11
679.21	25.84
679.397	25.46
679.583	25.93
679.769	26.31
679.955	26.6
680.142	26.41
680.328	26.36
680.514	25.87
680.7	25.54
680.886	25.71
681.073	25.64
681.259	25.87
681.445	26.67
681.631	26.19
681.817	26.37
682.003	26.41
682.189	26.67
682.375	26.77
682.561	27.02
682.747	27.81
682.933	27.66
683.119	27.96
683.305	28.15
683.491	27.7
683.677	27.5
683.863	27.71
684.049	27.58
684.235	27.21
684.42	27.08
684.606	26.82
684.792	26.87
684.978	26.1
685.164	25.93
685.349	25.55
685.535	25.59
685.721	25.47
685.907	25.13
686.092	25.34
686.278	25.22
686.464	25.72
686.649	26.36
686.835	25.65
687.021	26.67
687.206	26.78
687.392	26.92
687.577	26.79
687.763	27.28
687.948	26.99
688.134	26.59
688.319	27.53
688.505	27.35
688.69	27.36
688.876	27.31
689.061	26.83
689.247	26.39
689.432	26.47
689.618	26.46
689.803	26.47
689.988	26.85
690.174	26.84
690.359	26.37
690.544	26.32
690.73	26.48
690.915	26.76
691.1	27.61
691.285	27.72
691.471	27.93
691.656	28.69
691.841	28.5
692.026	28.43
692.211	28.49
692.396	28.7
692.582	28.18
692.767	27.53
692.952	28.33
693.137	28.27
693.322	28.44
693.507	28.08
693.692	27.68
693.877	27.81
694.062	27.31
694.247	27.54
694.432	27.66
694.617	28.21
694.802	28.6
694.987	27.3
695.172	26.5
695.357	27.2
695.541	26.42
695.726	26.22
695.911	26.15
696.096	26.33
696.281	26.13
696.466	25.88
696.65	25.67
696.835	26.01
697.02	26.18
697.204	26.61
697.389	25.85
697.574	26.42
697.759	26.82
697.943	26.45
698.128	26.47
698.312	26.86
698.497	26.38
698.682	26.52
698.866	25.77
699.051	26.19
699.235	26.48
699.42	26.96
699.604	27.03
699.789	26.93
699.973	27.25
700.158	27.04
700.342	26.66
700.527	27.07
700.711	27.05
700.895	27.97
701.08	27.82
701.264	27.69
701.448	27.01
701.633	26.82
701.817	26.42
702.001	25.98
702.186	25.78
702.37	25.66
702.554	25.85
702.738	25.61
702.923	24.78
703.107	25.18
703.291	25.05
703.475	26.62
703.659	27.45
703.843	27.68
704.027	28.04
704.212	29.14
704.396	30.08
704.58	30.17
704.764	30.28
704.948	30.74
705.132	30.56
705.316	30.75
705.5	30.1
705.684	29.36
705.868	29.16
706.052	30.02
706.235	30.41
706.419	30.04
706.603	29.7
706.787	29.12
706.971	29.35
707.155	29.87
707.339	29.43
707.522	28.64
707.706	28.1
707.89	28.1
708.074	26.53
708.257	25.69
708.441	25.57
708.625	25.68
708.808	25.88
708.992	26
709.176	25.46
709.359	26.17
709.543	26.36
709.727	26.93
709.91	27.07
710.094	27.95
710.277	27.99
710.461	27.98
710.644	27.95
710.828	29.13
711.011	29.08
711.195	28.87
711.378	28.09
711.562	28.16
711.745	27.59
711.928	26.7
712.112	26.29
712.295	26.92
712.478	26.9
712.662	26.76
712.845	26.38
713.028	26.03
713.212	26.71
713.395	26.92
713.578	27.35
713.761	27.97
713.945	28.8
714.128	28.54
714.311	28.2
714.494	29.05
714.677	28.15
714.86	27.98
715.043	27.75
715.227	27.05
715.41	26.7
715.593	26.14
715.776	26.67
715.959	25.68
716.142	26.32
716.325	25.94
716.508	25.23
716.691	26.56
716.874	26.53
717.057	26.16
717.239	26.02
717.422	26.25
717.605	26.24
717.788	25.31
717.971	26.34
718.154	26.78
718.337	27.36
718.519	27.65
718.702	27.94
718.885	27.43
719.068	28.68
719.25	28.07
719.433	28.36
719.616	29.56
719.798	30.6
719.981	30.05
720.164	29.35
720.346	30.66
720.529	29.78
720.712	29.25
720.894	29.58
721.077	29.43
721.259	30.2
721.442	29.24
721.624	27.95
721.807	28.22
721.989	29.18
722.172	28.9
722.354	28.37
722.537	30.26
722.719	29.22
722.901	29.48
723.084	29.19
723.266	30.15
723.448	30.15
723.631	30.35
723.813	29.55
723.995	29.06
724.178	30.3
724.36	29.6
724.542	26.82
724.724	27.9
724.907	28.28
725.089	28.42
725.271	27.7
725.453	29.24
725.635	29.79
725.817	29.19
725.999	29.55
726.181	28.99
726.364	28.56
726.546	29.31
726.728	28.76
726.91	28.83
727.092	28.72
727.274	28.82
727.456	28.49
727.638	28.36
727.819	28.87
728.001	28.78
728.183	29.62
728.365	28.72
728.547	29.21
728.729	28.33
728.911	28.26
729.093	28.35
729.274	28.96
729.456	29.1
729.638	28.41
729.82	27.02
730.001	27.88
730.183	26.79
730.365	27.54
730.546	27.38
730.728	30.05
730.91	30.22
731.091	30.19
731.273	29.09
731.455	28.39
731.636	29.41
731.818	30.76
731.999	29.7
732.181	29.62
732.362	28.37
732.544	28.48
732.725	27.53
732.907	26.09
733.088	26.16
733.27	26.18
733.451	25.88
733.633	25.25
733.814	24.67
733.995	25.08
734.177	26.02
734.358	26.86
734.539	26.98
734.721	25.97
734.902	25.9
735.083	25.68
735.264	25.29
735.446	25.65
735.627	25.66
735.808	26.27
735.989	25.82
736.17	26.13
736.351	26.82
736.533	26.36
736.714	27.28
736.895	27.31
737.076	27.05
737.257	27.99
737.438	28.9
737.619	27.79
737.8	27.24
737.981	27.24
738.162	26.98
738.343	27.42
738.524	26.88
738.705	26.57
738.886	28.51
739.067	28.23
739.247	27.48
739.428	27
739.609	28.35
739.79	28.45
739.971	28.28
740.151	26.67
740.332	27.88
740.513	29.03
740.694	28.82
740.874	27.08
741.055	27.69
741.236	27.65
741.417	28.33
741.597	27.62
741.778	29.03
741.958	29.69
742.139	30.98
742.32	28.4
742.5	28.98
742.681	29.01
742.861	29.96
743.042	30.81
743.222	30.99
743.403	29.36
743.583	29.47
743.764	27.72
743.944	28.04
744.124	27.63
744.305	28.64
744.485	27.58
744.666	27.02
744.846	27.52
745.026	26.31
745.207	26.33
745.387	26.51
745.567	27.86
745.747	29.59
745.928	29.15
746.108	30.27
746.288	30.93
746.468	30.02
746.648	31.55
746.829	30.16
747.009	31.31
747.189	32.08
747.369	32.64
747.549	31.64
747.729	31.31
747.909	31.47
748.089	31.47
748.269	30.8
748.449	31.45
748.629	30.98
748.809	32.53
748.989	32.06
749.169	32.25
749.349	32.67
749.529	32.23
749.709	30.31
749.889	31.1
750.068	29.87
750.248	28.76
750.428	27.97
750.608	26.15
750.788	24.82
750.967	24.46
751.147	24.01
751.327	23.58
751.507	24.62
751.686	26.33
751.866	24.69
752.046	23.37
752.225	24.86
752.405	26.85
752.585	29.01
752.764	30.31
752.944	29.88
753.123	29.15
753.303	30.48
753.482	30.44
753.662	29.32
753.841	29
754.021	30.28
754.2	30.41
754.38	28.87
754.559	28.08
754.739	28.01
754.918	26.46
755.097	27.11
755.277	25.87
755.456	25.19
755.635	26.59
755.815	28.33
755.994	28.1
756.173	26.54
756.352	28
756.532	26.14
756.711	25.64
756.89	27.16
757.069	27.25
757.248	26.6
757.427	25.88
757.607	25.58
757.786	26.03
757.965	24.7
758.144	26.65
758.323	26.17
758.502	28.13
758.681	27.45
758.86	28.11
759.039	28.12
759.218	27.88
759.397	30.38
759.576	29.56
759.755	29.12
759.934	29.12
760.113	27.81
760.291	27.26
760.47	27.67
760.649	28.84
760.828	29.08
761.007	28.97
761.186	28.99
761.364	28.28
761.543	28.91
761.722	27.86
761.901	30.49
762.079	31.56
762.258	31.32
762.437	30.33
762.615	30.71
762.794	30.6
762.972	31.03
763.151	30.78
763.33	30.57
763.508	29.65
763.687	29.37
763.865	28.64
764.044	28.67
764.222	28.18
764.401	28.05
764.579	27.11
764.758	26.62
764.936	25.85
765.114	26.62
765.293	25.66
765.471	25.34
765.65	26.48
765.828	25.68
766.006	24.52
766.184	24.53
766.363	25.71
766.541	24.95
766.719	24.86
766.898	26.26
767.076	26.43
767.254	26.5
767.432	28.91
767.61	29.15
767.788	29.67
767.967	28.78
768.145	28.89
768.323	27.5
768.501	28.9
768.679	29.63
768.857	28.37
769.035	29.3
769.213	29.43
769.391	28.44
769.569	28.74
769.747	29.54
769.925	30.61
770.103	32.71
770.281	33.08
770.459	33.35
770.636	33.82
770.814	34.14
770.992	32.87
771.17	33.67
771.348	32.24
771.525	29.1
771.703	28.71
771.881	30.23
772.059	28.53
772.236	29.26
772.414	28.23
772.592	25.6
772.769	24.09
772.947	22.94
773.125	24.28
773.302	28.79
773.48	32.14
773.657	32.48
773.835	32.71
774.013	34.17
774.19	32.3
774.368	33.97
774.545	38.72
774.723	39.45
774.9	40.3
775.077	37.78
775.255	34.38
775.432	33.44
775.61	32.16
775.787	30.85
775.964	31.81
776.142	32.83
776.319	32.45
776.496	28.18
776.674	30.77
776.851	30.17
777.028	31.39
777.205	32.32
777.382	30.91
777.56	30.99
777.737	30.5
777.914	31.34
778.091	31.24
778.268	30.94
778.445	32.86
778.622	30.79
778.8	30.85
778.977	30.36
779.154	29.72
779.331	30.44
779.508	31.75
779.685	32.33
779.862	29.06
780.038	28.9
780.215	29.26
780.392	28.66
780.569	24.65
780.746	24.45
780.923	27.13
781.1	28.52
781.277	26.79
781.453	25.45
781.63	24.66
781.807	24.13
781.984	26.13
782.16	26.07
782.337	23.34
782.514	27.66
782.691	28.11
782.867	23.97
783.044	23.99
783.221	27.02
783.397	28.39
783.574	27.32
783.75	30.16
783.927	29.18
784.103	30.29
784.28	31.8
784.456	31.1
784.633	31.81
784.809	33.22
784.986	31
785.162	31.13
785.339	33.51
785.515	33.57
785.692	33
785.868	34.35
786.044	31.7
786.221	33.13
786.397	31.68
786.573	30.76
786.749	32.36
786.926	36.29
787.102	31.93
787.278	28.48
787.454	28.89
787.631	27.3
787.807	25.52
787.983	25.16
788.159	22.45
788.335	23.42
788.511	23.01
788.687	25.52
788.863	22.12
789.039	27.11
789.216	28.74
789.392	33.05
789.568	32.27
789.744	33.48
789.919	35.94
790.095	40.55
790.271	43.3
790.447	43.92
790.623	40.77
790.799	42.21
790.975	43.3
791.151	43.12
791.327	38.36
791.502	41.76
791.678	37.21
791.854	34.51
792.03	29.35
792.205	28.76
792.381	29.68
792.557	26.5
792.733	23.95
792.908	21.67
793.084	19.38
793.259	22.28
793.435	17.25
793.611	19.6
793.786	20.55
793.962	23.39
794.137	20.59
794.313	22.1
794.488	25.31
794.664	27.01
794.839	30.59
795.015	32.07
795.19	29.12
795.366	33.02
795.541	31.73
795.716	29.21
795.892	24.69
796.067	26.61
796.242	22.71
796.418	24.97
796.593	28.93
796.768	26.88
796.944	25.65
797.119	29.12
797.294	27.4
797.469	30.51
797.644	34.03
797.82	38.97
797.995	39.02
798.17	40.58
798.345	39.62
798.52	35.07
798.695	33.72
798.87	36.26
799.045	37.37
799.22	36.2
799.395	35.9
799.57	36.56
799.745	34.51
799.92	30.15
800.095	31.54
800.27	32.28
800.445	33.68
800.62	34.01
800.795	32.63
800.97	29.2
801.145	29.75
801.319	27.77
801.494	25.26
801.669	24.79
801.844	28.45
802.018	28.76
802.193	27.17
802.368	24.64
802.543	21.85
802.717	21.38
802.892	22.08
803.067	28.09
803.241	24.92
803.416	24.87
803.59	24.5
803.765	25.67
803.94	24.76
804.114	27.23
804.289	31.91
804.463	33.99
804.638	38.24
804.812	37.61
804.986	32.87
805.161	36.98
805.335	38.74
805.51	36.99
805.684	36.89
805.858	33.81
806.033	29.92
806.207	25.63
806.381	21.69
806.556	18.18
806.73	20.54
806.904	25.93
807.078	25.2
807.253	22.51
807.427	28.52
807.601	27.99
807.775	31.83
807.949	34.4
808.123	34.47
808.298	39.54
808.472	37.21
808.646	32.45
808.82	34.2
808.994	34.54
809.168	33.77
809.342	32.08
809.516	30.96
809.69	29.65
809.864	26.95
810.038	29.12
810.212	25.1
810.385	25.93
810.559	25.76
810.733	20.22
810.907	13.5
811.081	16.22
811.255	18.16
811.428	18.95
811.602	15.43
811.776	21.58
811.95	23.54
812.123	24.74
812.297	28.11
812.471	29.03
812.644	27.57
812.818	28.42
812.992	28.53
813.165	33.26
813.339	34.35
813.512	40.1
813.686	36.56
813.86	34.6
814.033	33.86
814.207	33.24
814.38	34.69
814.554	38.41
814.727	42.17
814.9	39.13
815.074	31.78
815.247	33.74
815.421	28.6
815.594	35.66
815.767	36.41
815.941	36.51
816.114	35.1
816.287	35.49
816.46	34.33
816.634	35.27
816.807	34.97
816.98	35.06
817.153	34.71
817.327	37.43
817.5	31.6
817.673	28.22
817.846	31.61
818.019	31.71
818.192	30.02
818.365	25.68
818.538	24.25
818.711	29.14
818.884	31.83
819.057	30.06
819.23	30.76
819.403	29.18
819.576	34.6
819.749	31.89
819.922	33.2
820.095	32.38
820.268	39.15
820.441	40.63
820.614	38.46
820.786	33.98
820.959	35.25
821.132	29.85
821.305	30.7
821.477	29.45
821.65	31.11
821.823	31.79
821.996	30.84
822.168	29.22
822.341	28.4
822.514	27.62
822.686	28.37
822.859	27.8
823.031	28.87
823.204	29.94
823.376	29.36
823.549	28.65
823.722	27.9
823.894	28.64
824.067	28.62
824.239	29.63
824.411	30.24
824.584	30.33
824.756	30.25
824.929	30.85
825.101	29.41
825.273	30.52
825.446	30.85
825.618	29.81
825.79	27.8
825.963	27.41
826.135	26.5
826.307	26.44
826.479	26.83
826.652	28.25
826.824	27.92
826.996	28.95
827.168	28.55
827.34	27.57
827.512	27.65
827.684	29.46
827.856	30.42
828.029	29.47
828.201	30.47
828.373	30.37
828.545	28.67
828.717	28.21
828.889	26.65
829.061	25.71
829.232	27.07
829.404	28.11
829.576	29.62
829.748	28.68
829.92	29.57
830.092	31.13
830.264	31.61
830.436	28.44
830.607	28.31
830.779	29.03
830.951	26.42
831.123	29.15
831.294	27.4
831.466	24.53
831.638	27.49
831.809	29.07
831.981	21.2
832.153	18.51
832.324	26
832.496	28.24
832.667	27.62
832.839	31.92
833.011	33.31
833.182	37.43
833.354	36.47
833.525	34.44
833.697	30.11
833.868	31.45
834.039	36.44
834.211	33.5
834.382	35.03
834.554	36.82
834.725	35.85
834.896	30.32
835.068	27.48
835.239	27.78
835.41	26.47
835.581	26.75
835.753	26.91
835.924	21.33
836.095	22.21
836.266	17.71
836.438	16.29
836.609	17.62
836.78	19.88
836.951	27.12
837.122	27.26
837.293	29.24
837.464	33.69
837.635	38.24
837.806	36.16
837.977	36.82
838.148	35.96
838.319	30.75
838.49	28.58
838.661	25.87
838.832	23.11
839.003	29.11
839.174	32.85
839.345	30.2
839.516	31.97
839.687	36.32
839.857	30.01
840.028	33.43
840.199	33.41
840.37	31.97
840.54	31.41
840.711	25.87
840.882	21.65
841.053	21.03
841.223	22.61
841.394	17.01
841.564	19.77
841.735	21.01
841.906	16.79
842.076	22.18
842.247	24.97
842.417	23.03
842.588	20.02
842.758	22.3
842.929	14.34
843.099	14.06
843.27	16.22
843.44	14
843.611	21.33
843.781	31.85
843.951	24.84
844.122	21.37
844.292	37.16
844.462	43.34
844.633	41.27
844.803	47.47
844.973	47.32
845.144	48.5
845.314	49.97
845.484	57.9
845.654	44.99
845.824	47.83
845.995	61.5
846.165	48.73
846.335	37.49
846.505	37.31
846.675	27.59
846.845	36.67
847.015	21.36
847.185	21.51
847.355	0.27
847.525	11.42
847.695	29.27
847.865	25.19
848.035	15.9
848.205	31.79
848.375	25.58
848.545	31.71
848.715	-4.84
848.884	15.68
849.054	5.02
849.224	18.11
849.394	16.2
849.564	0.46
849.733	0.37
849.903	15.34
850.073	18.13
850.243	23.83
850.412	32.2
850.582	48.47
850.752	50.35
850.921	48.78
851.091	59.1
851.26	62.09
851.43	63
851.599	56.73
851.769	51.16
851.939	60.7
852.108	62.53
852.278	66.19
852.447	65.26
852.616	64.48
852.786	75.57
852.955	55.14
853.125	59.23
853.294	66.49
853.463	64.27
853.633	68.43
853.802	49.54
853.971	40.43
854.141	33.24
854.31	40.97
854.479	51.55
854.648	41.57
854.818	37.72
854.987	13.84
855.156	0.27
855.325	27.64
855.494	35.92
855.663	34.46
855.832	32.16
856.001	38.76
856.171	24.55
856.34	19.35
856.509	30.54
856.678	41.09
856.847	42.58
857.016	40.7
857.185	26.42
857.353	12.84
857.522	16.09
857.691	18.04
857.86	4.47
858.029	18.08
858.198	13.94
858.367	-18.94
858.535	-23.31
858.704	-8.56
858.873	6.96
859.042	15.65
859.21	23.27
859.379	14.07
859.548	10.77
859.717	18.47
859.885	31.24
860.054	35.91
860.222	39.31
860.391	37.8
860.56	34
860.728	25.46
860.897	8.94
861.065	14.4
861.234	34.33
861.402	66.91
861.571	52.79
861.739	19.49
861.908	-31.15
862.076	-8.81
862.244	34.05
862.413	31.14
862.581	50.9
862.749	66.07
862.918	37.42
863.086	42.34
863.254	-40.97
863.423	63.4
863.591	144.25
863.759	102.07
863.927	69.84
864.096	73
864.264	103.09
864.432	86.87
864.6	90.66
864.768	99.71
864.936	91.43
865.104	87.58
865.272	76.53
865.44	73.14
865.608	100.53
865.776	79.97
865.944	41.7
866.112	29.11
866.28	19.91
866.448	18.71
866.616	28.26
866.784	24.44
866.952	37.9
867.12	48.17
867.288	52.52
867.455	49.71
867.623	61.64
867.791	68.61
867.959	84.97
868.127	100.87
868.294	97.07
868.462	69.73
868.63	80.95
868.797	75.43
868.965	68.38
869.133	43.85
869.3	43.11
869.468	31.59
869.636	21.5
869.803	20.55
869.971	29.42
870.138	39.36
870.306	52.68
870.473	39.09
870.641	12.83
870.808	14.79
870.975	53.24
871.143	57.2
871.31	56.06
871.478	65.27
871.645	45.94
871.812	12.38
871.98	19.72
872.147	-21.51
872.314	-17.48
872.482	-0.49
872.649	25.04
872.816	10.48
872.983	0.65
873.15	18
873.318	12.92
873.485	14.53
873.652	8.54
873.819	1.3
873.986	29.41
874.153	58.42
874.32	50.31
874.487	-10.47
874.654	1.28
874.821	15.84
874.988	42.06
875.155	66.66
875.322	79.53
875.489	93.84
875.656	78.47
875.823	66.9
875.99	57.14
876.157	61.58
876.324	52.99
876.49	60.62
876.657	73.4
876.824	59.86
876.991	49.87
877.157	40.39
877.324	33.71
877.491	52.27
877.658	58.7
877.824	48.18
877.991	59.77
878.157	73.24
878.324	73.89
878.491	36.58
878.657	55.33
878.824	60.48
878.99	65.34
879.157	77.84
879.323	58.86
879.49	35.53
879.656	41.2
879.823	5.45
879.989	24.72
880.156	26.96
880.322	28.95
880.488	32.2
880.655	26
880.821	23.28
880.987	22.87
881.154	23.17
881.32	26.21
881.486	30.09
881.652	33.27
881.819	34.09
881.985	34.46
882.151	34.5
882.317	29.1
882.483	23.83
882.649	26.08
882.816	28.68
882.982	27.82
883.148	27.41
883.314	26.96
883.48	25.24
883.646	25.88
883.812	21.99
883.978	22.24
884.144	24.58
884.31	28.94
884.476	28.29
884.642	26.23
884.807	27.21
884.973	29.58
885.139	31.27
885.305	33.46
885.471	36.58
885.637	40.9
885.802	38.34
885.968	38.85
886.134	37.97
886.3	38.93
886.465	40.35
886.631	41.71
886.797	43.16
886.962	47.4
887.128	49.43
887.293	51.13
887.459	51.08
887.625	54.92
887.79	53.04
887.956	46.51
888.121	40.14
888.287	40.49
888.452	40.38
888.618	35.77
888.783	20.49
