Data from 2937856_Reflection_2.txt Node
Date: Wed Jul 15 15:39:45 EDT 2015
User: robert
Spectrometer: USB4E03001
Autoset integration time: false
Trigger mode: 4
Integration Time (sec): 1.000000E-1
Scans to average: 10
Electric dark correction enabled: true
Nonlinearity correction enabled: false
Boxcar width: 5
Stray light correction enabled: false
XAxis mode: Wavelengths
Stop averaging: false
Number of Pixels in Spectrum: 3648
>>>>>Begin Spectral Data<<<<<
177.566	-98.31
177.785	-461.9
178.005	46.56
178.225	59.42
178.445	159.48
178.665	127.65
178.885	82.6
179.105	121.32
179.324	167.08
179.544	-384.03
179.764	-2837.5
179.984	482.23
180.204	344.61
180.423	115.63
180.643	122.3
180.863	119.56
181.083	114.64
181.302	121.72
181.522	163.69
181.742	171.71
181.961	131.41
182.181	103.1
182.401	120.11
182.621	100.11
182.84	113.33
183.06	146.35
183.279	153.2
183.499	115.77
183.719	125.69
183.938	88.06
184.158	84.71
184.377	95.53
184.597	228.26
184.816	159.38
185.036	131.88
185.256	294.23
185.475	145.82
185.695	205.8
185.914	407.51
186.134	309.85
186.353	415.65
186.572	1475.59
186.792	420.19
187.011	373.77
187.231	195.47
187.45	268.25
187.67	335.66
187.889	422.77
188.108	656.76
188.328	370.91
188.547	595.57
188.766	42322.73
188.986	955.49
189.205	425.53
189.424	235.45
189.644	328.61
189.863	411.18
190.082	401.51
190.302	446.2
190.521	279.48
190.74	306.62
190.959	222.18
191.178	133.33
191.398	101.2
191.617	125.04
191.836	156.8
192.055	19.49
192.274	91.27
192.494	-128.29
192.713	-5.56
192.932	14.28
193.151	34.14
193.37	22.49
193.589	40.16
193.808	73.14
194.027	80.03
194.246	141.4
194.465	185.21
194.685	212.34
194.904	285.51
195.123	1004.14
195.342	-827.4
195.561	-255.96
195.78	-101.56
195.999	-61.68
196.218	-98
196.436	-44.18
196.655	-19747.06
196.874	446.68
197.093	183.39
197.312	48.73
197.531	-15.74
197.75	-103.75
197.969	-139.25
198.188	-220.09
198.407	-41.11
198.625	17.18
198.844	25.41
199.063	18
199.282	49.51
199.501	-18.09
199.719	24.66
199.938	43.22
200.157	90.69
200.376	49.63
200.594	26.79
200.813	-28.97
201.032	134.43
201.251	239.85
201.469	4255.41
201.688	334.5
201.907	213.66
202.125	112.36
202.344	92.77
202.563	60.14
202.781	19.57
203	48.21
203.218	85.93
203.437	163.13
203.656	-1071.91
203.874	11.47
204.093	15.41
204.311	65.51
204.53	189.64
204.748	144.71
204.967	96.26
205.185	100.17
205.404	72.24
205.622	79.91
205.841	86.02
206.059	141.6
206.278	189.16
206.496	152.49
206.715	134.1
206.933	154.44
207.151	177.78
207.37	-87.91
207.588	-175.17
207.806	-228.44
208.025	-169.08
208.243	-208.9
208.461	417.9
208.68	95.3
208.898	295.25
209.116	55.48
209.335	112.3
209.553	157.07
209.771	77.83
209.989	133.72
210.208	-1.85
210.426	321.01
210.644	119.89
210.862	42.77
211.081	-75.47
211.299	-351.98
211.517	-168.4
211.735	-2.44
211.953	28.09
212.171	-0.72
212.39	20.29
212.608	-14.91
212.826	-23.39
213.044	-116.9
213.262	311.82
213.48	225.34
213.698	136.74
213.916	350.7
214.134	30.34
214.352	-475.21
214.57	190.02
214.788	260.92
215.006	314.41
215.224	-210.55
215.442	190.38
215.66	179.19
215.878	229.28
216.096	374.57
216.314	-7804.35
216.532	684.98
216.75	163.01
216.968	158.72
217.185	150.85
217.403	136.81
217.621	125.53
217.839	121.09
218.057	169.97
218.275	145.42
218.492	152.65
218.71	134.51
218.928	125.29
219.146	283.51
219.363	287.43
219.581	553.77
219.799	755.13
220.017	-9330.43
220.234	-398.4
220.452	-222.22
220.67	-1206
220.887	-1208.17
221.105	-5435.07
221.323	-616.48
221.54	726.79
221.758	452.92
221.976	216.35
222.193	150.5
222.411	128.59
222.629	35.34
222.846	25.19
223.064	46.68
223.281	19.53
223.499	25.77
223.716	12.33
223.934	-10.59
224.151	2.23
224.369	14.86
224.586	30.52
224.804	23.22
225.021	87.24
225.239	226.28
225.456	65.33
225.674	798.26
225.891	-31.67
226.108	-202.97
226.326	181.08
226.543	63.39
226.76	49.8
226.978	36.56
227.195	30.78
227.413	23.61
227.63	26.14
227.847	29.26
228.064	24.9
228.282	19.85
228.499	20.52
228.716	12.63
228.934	9.69
229.151	12.87
229.368	13.81
229.585	11.98
229.802	13.7
230.02	9.15
230.237	7.08
230.454	7.41
230.671	14.96
230.888	13.95
231.105	16.39
231.323	16.38
231.54	17.9
231.757	17.88
231.974	21.63
232.191	22.14
232.408	28.37
232.625	32.33
232.842	32.86
233.059	28.47
233.276	32.26
233.493	36.1
233.71	39.34
233.927	36.87
234.144	38.7
234.361	38.2
234.578	39.53
234.795	33.52
235.012	34.08
235.229	30.79
235.446	25.4
235.663	22.07
235.879	24.05
236.096	27.82
236.313	30.62
236.53	32.85
236.747	31.43
236.964	29.18
237.181	35.94
237.397	28.12
237.614	26.16
237.831	34.5
238.048	35.64
238.264	28.28
238.481	27.5
238.698	24.66
238.915	25.45
239.131	27.61
239.348	26.77
239.565	27.47
239.781	26.53
239.998	28.7
240.215	24.42
240.431	23.07
240.648	24.97
240.865	20.38
241.081	17.94
241.298	13.67
241.514	13.74
241.731	12.88
241.947	12.04
242.164	11.13
242.38	12.44
242.597	14.63
242.814	13.48
243.03	13.12
243.246	13.19
243.463	12.54
243.679	14.26
243.896	13.83
244.112	14.3
244.329	12.74
244.545	15.06
244.762	14.37
244.978	13.72
245.194	12.94
245.411	14.37
245.627	16.57
245.843	17.78
246.06	16
246.276	16.78
246.492	17.13
246.709	17.19
246.925	16.59
247.141	15.96
247.357	15.83
247.574	16.5
247.79	16.55
248.006	15.23
248.222	15.84
248.439	16.11
248.655	14.46
248.871	12.56
249.087	13.84
249.303	14.05
249.519	13.53
249.736	14.28
249.952	13.74
250.168	13.31
250.384	13.76
250.6	14.14
250.816	14.46
251.032	15.83
251.248	16.89
251.464	15.73
251.68	14.48
251.896	15.45
252.112	12.41
252.328	14.13
252.544	14.58
252.76	16.48
252.976	16.77
253.192	16.5
253.408	18.67
253.624	21.32
253.84	20.61
254.056	21.74
254.272	24
254.487	24.85
254.703	24.44
254.919	21.52
255.135	17.78
255.351	14.7
255.567	15.33
255.782	11.88
255.998	8.39
256.214	9.89
256.43	9.23
256.646	8.98
256.861	12.96
257.077	14.75
257.293	15.68
257.508	17.38
257.724	16.72
257.94	15.84
258.155	12.9
258.371	12.22
258.587	10.45
258.802	10.65
259.018	9.98
259.234	9.45
259.449	8.87
259.665	9.11
259.88	8.74
260.096	8.91
260.312	8.57
260.527	9.88
260.743	10.77
260.958	11.59
261.174	11.59
261.389	10.77
261.605	10.77
261.82	10.26
262.036	10.04
262.251	11
262.466	9.74
262.682	10.18
262.897	11.78
263.113	10.63
263.328	9.13
263.543	9.47
263.759	10.61
263.974	8.36
264.189	10.42
264.405	10.27
264.62	8.84
264.835	9.9
265.051	11.19
265.266	8.78
265.481	9.11
265.696	10.72
265.912	10.92
266.127	12.4
266.342	13.28
266.557	12.21
266.773	14.75
266.988	14.88
267.203	14.53
267.418	13.27
267.633	12.61
267.848	13.07
268.064	11.36
268.279	12.71
268.494	13.05
268.709	13.17
268.924	12.89
269.139	11.33
269.354	11.73
269.569	13.53
269.784	13.31
269.999	14.08
270.214	14.07
270.429	15.52
270.644	13.71
270.859	12.96
271.074	14.27
271.289	14.76
271.504	15.41
271.719	15.76
271.934	14.13
272.149	13.85
272.363	13.8
272.578	14.96
272.793	14.4
273.008	14.85
273.223	15
273.438	14.05
273.653	13.56
273.867	12.54
274.082	12.17
274.297	13.49
274.512	15.37
274.726	14.95
274.941	13.77
275.156	13.68
275.371	14
275.585	14.38
275.8	15.61
276.015	16.2
276.229	15.47
276.444	13.51
276.659	13.85
276.873	12.21
277.088	11.85
277.302	11.71
277.517	11.83
277.732	11.63
277.946	10.82
278.161	9.4
278.375	8.91
278.59	10.44
278.804	11.09
279.019	10.31
279.233	10.66
279.448	11.55
279.662	12.54
279.877	13.33
280.091	12.18
280.306	12.88
280.52	13.53
280.735	13.53
280.949	12.07
281.163	12.66
281.378	12.96
281.592	12.01
281.806	12.28
282.021	10.95
282.235	9.99
282.449	11.28
282.664	11.46
282.878	10.7
283.092	12.06
283.307	13.97
283.521	14.59
283.735	15.42
283.949	16.66
284.164	16.61
284.378	16.42
284.592	16.73
284.806	15.56
285.02	15.75
285.234	14.64
285.449	12.1
285.663	11.76
285.877	12.18
286.091	10.44
286.305	10.03
286.519	8.63
286.733	9.02
286.947	8.96
287.161	9.34
287.375	8.64
287.589	10.22
287.803	12.23
288.017	11.65
288.231	10.52
288.445	11.8
288.659	12.6
288.873	13.97
289.087	12.44
289.301	11.86
289.515	12.08
289.729	11.82
289.943	10.78
290.157	10.49
290.371	11.13
290.584	11.08
290.798	10.52
291.012	10.42
291.226	9.78
291.44	10.44
291.654	10.37
291.867	10.97
292.081	11.35
292.295	11.84
292.509	11.18
292.722	10.61
292.936	11.25
293.15	11.18
293.364	10.18
293.577	10.8
293.791	11.67
294.005	13.94
294.218	13.67
294.432	14.84
294.645	15.32
294.859	15.01
295.073	15.08
295.286	13.63
295.5	13.54
295.713	14.66
295.927	14.34
296.14	14.21
296.354	13.13
296.568	12.37
296.781	10.75
296.994	11.35
297.208	11.81
297.421	11.43
297.635	12.15
297.848	12.19
298.062	12.18
298.275	11.3
298.489	12.05
298.702	12.02
298.915	11.13
299.129	11.06
299.342	10.6
299.555	10.6
299.769	9.92
299.982	11.93
300.195	12.02
300.409	10.53
300.622	11.79
300.835	11.91
301.048	11.23
301.262	12.95
301.475	13.69
301.688	14.2
301.901	15.11
302.115	16.68
302.328	15.66
302.541	15.88
302.754	16.02
302.967	17.18
303.18	16.49
303.393	16.38
303.607	16.73
303.82	16.18
304.033	15.99
304.246	15.07
304.459	15.05
304.672	14.03
304.885	14.69
305.098	14.58
305.311	13.24
305.524	13.11
305.737	12.44
305.95	12.82
306.163	12.47
306.376	11.24
306.589	10.53
306.802	10.14
307.015	10.67
307.228	10.65
307.44	12.16
307.653	12.84
307.866	13.35
308.079	15.21
308.292	14.67
308.505	15.75
308.718	15.97
308.93	15.79
309.143	15.82
309.356	15.47
309.569	16.1
309.781	15.23
309.994	14.84
310.207	13.01
310.42	12.5
310.632	11.82
310.845	11.02
311.058	11.6
311.27	11.81
311.483	12.23
311.696	12.44
311.908	11.93
312.121	12.3
312.333	13.06
312.546	14.35
312.759	14.55
312.971	15
313.184	15.22
313.396	13.98
313.609	13.58
313.821	12.51
314.034	12.69
314.246	12.81
314.459	13.16
314.671	14.12
314.884	14.62
315.096	15.11
315.309	16.06
315.521	16.1
315.733	16.55
315.946	18.32
316.158	18.91
316.371	18.52
316.583	17.49
316.795	17.43
317.008	14.5
317.22	14.7
317.432	14.56
317.644	13.6
317.857	14.2
318.069	14.61
318.281	11.73
318.494	13.51
318.706	15.03
318.918	13.68
319.13	14.75
319.342	17.1
319.555	16.06
319.767	16.37
319.979	15.86
320.191	15.82
320.403	15.75
320.615	18.64
320.827	15.37
321.039	15.94
321.252	18.19
321.464	16.15
321.676	15.57
321.888	16.22
322.1	15.12
322.312	15.06
322.524	15.03
322.736	14.88
322.948	13.54
323.16	14.66
323.372	13.21
323.584	14.05
323.796	14.05
324.007	13.6
324.219	14.09
324.431	14.13
324.643	15.38
324.855	13.64
325.067	13.76
325.279	14.5
325.491	13.85
325.702	13.14
325.914	11.68
326.126	12.33
326.338	14.11
326.55	13.85
326.761	13.05
326.973	13.29
327.185	15.3
327.396	15.37
327.608	15.55
327.82	16.03
328.032	17.41
328.243	17.24
328.455	16.95
328.666	15.47
328.878	14.5
329.09	15.33
329.301	14.4
329.513	13.72
329.725	14.47
329.936	12.97
330.148	14.08
330.359	12.24
330.571	12.27
330.782	13.08
330.994	11.35
331.205	12.23
331.417	11.89
331.628	12.3
331.84	12.39
332.051	11.9
332.262	13.22
332.474	12.63
332.685	15.04
332.897	16.07
333.108	15.31
333.319	16.52
333.531	15.31
333.742	16.31
333.953	15.93
334.165	15.48
334.376	16.35
334.587	15.96
334.799	16.13
335.01	14.57
335.221	14.08
335.432	13.15
335.644	13.05
335.855	15.78
336.066	16.11
336.277	15.68
336.488	15.4
336.7	13.89
336.911	15.66
337.122	14.19
337.333	15.61
337.544	17.41
337.755	18.18
337.966	16.72
338.177	14.26
338.388	14.56
338.599	15.87
338.811	15.66
339.022	15.21
339.233	13.93
339.444	16.16
339.655	15.59
339.866	13.61
340.076	14.17
340.287	15.74
340.498	15.52
340.709	14.23
340.92	13.1
341.131	14.06
341.342	14.93
341.553	14.6
341.764	13.08
341.975	12.92
342.185	13.71
342.396	14.48
342.607	13.96
342.818	15.7
343.029	16.14
343.239	17.3
343.45	17.52
343.661	18.44
343.872	18.12
344.082	18.15
344.293	18.15
344.504	16.96
344.714	15.28
344.925	17.21
345.136	16.02
345.346	15.56
345.557	13.82
345.768	13.95
345.978	12.82
346.189	12.91
346.399	14.57
346.61	14.09
346.821	15.31
347.031	15.46
347.242	15.06
347.452	15.33
347.663	15.85
347.873	17.39
348.084	16.89
348.294	16.58
348.504	17.19
348.715	15.96
348.925	15.23
349.136	14.45
349.346	14.1
349.557	12.91
349.767	14.74
349.977	15.06
350.188	15.19
350.398	15.55
350.608	16.96
350.819	16.01
351.029	14.96
351.239	16.22
351.449	16.8
351.66	17.23
351.87	16.93
352.08	16.3
352.29	16.7
352.501	15.44
352.711	15.55
352.921	15.66
353.131	16.45
353.341	17.59
353.552	15.71
353.762	15.14
353.972	14.16
354.182	14.53
354.392	13.54
354.602	13.4
354.812	12.11
355.022	12.19
355.232	12.38
355.442	12.6
355.652	11.72
355.862	13.52
356.072	12.15
356.282	13.3
356.492	13.58
356.702	14.1
356.912	13.85
357.122	16.29
357.332	15.32
357.542	15.31
357.752	15.48
357.962	15.59
358.171	15.59
358.381	16.51
358.591	15.95
358.801	16.19
359.011	15.54
359.221	16.46
359.43	15.76
359.64	17.34
359.85	16.18
360.06	15.24
360.269	15.41
360.479	14.77
360.689	14.47
360.899	14.94
361.108	14.82
361.318	15.19
361.528	14.22
361.737	13.35
361.947	12.83
362.156	12.8
362.366	13.02
362.576	13.33
362.785	13.4
362.995	12.99
363.204	13.45
363.414	12.38
363.623	11.66
363.833	11.97
364.042	12.82
364.252	12.23
364.461	12.39
364.671	13.17
364.88	13.15
365.09	13.53
365.299	14.44
365.509	14.76
365.718	15.57
365.927	15.49
366.137	15.16
366.346	15.52
366.555	14.54
366.765	14.32
366.974	14.07
367.183	13.09
367.393	12.78
367.602	12.76
367.811	11.91
368.021	11.39
368.23	12.34
368.439	12.17
368.648	11.08
368.857	12.13
369.067	12.83
369.276	11.73
369.485	12.7
369.694	11.85
369.903	11.64
370.112	11.35
370.321	11.73
370.531	11.28
370.74	11.45
370.949	10.99
371.158	11
371.367	10.3
371.576	10.52
371.785	9.8
371.994	10.58
372.203	10.68
372.412	10.98
372.621	11.03
372.83	11.45
373.039	10.94
373.248	11.48
373.457	10.76
373.666	10.65
373.874	10.31
374.083	10.69
374.292	10.48
374.501	11.07
374.71	10.76
374.919	10.92
375.128	10.02
375.336	9.72
375.545	9.79
375.754	10.05
375.963	10.19
376.171	10.71
376.38	11.02
376.589	10.93
376.798	10.74
377.006	11.11
377.215	11.7
377.424	11.78
377.632	12.06
377.841	11.86
378.05	12.37
378.258	12.16
378.467	12.08
378.675	11.87
378.884	11.68
379.093	10.92
379.301	10.48
379.51	9.44
379.718	9.9
379.927	8.91
380.135	9.01
380.344	8.63
380.552	8.35
380.761	8.06
380.969	7.83
381.177	7.58
381.386	8
381.594	8.4
381.803	8.71
382.011	8.32
382.219	9.35
382.428	9.61
382.636	9.37
382.845	9.6
383.053	9.5
383.261	9.45
383.469	9.75
383.678	9.74
383.886	9.39
384.094	9.31
384.302	9.43
384.511	9.68
384.719	9.4
384.927	9.5
385.135	9.44
385.343	9.64
385.552	9.84
385.76	9.31
385.968	9.25
386.176	9.37
386.384	9.06
386.592	9.29
386.8	8.77
387.008	8.62
387.216	8.72
387.424	8.43
387.633	8.41
387.841	8.16
388.049	8.4
388.257	8.28
388.465	7.78
388.672	7.63
388.88	7.11
389.088	7.23
389.296	7.62
389.504	7.28
389.712	7.79
389.92	7.16
390.128	7.05
390.336	7.26
390.544	7.65
390.751	7.88
390.959	8.03
391.167	8.28
391.375	8.17
391.583	7.68
391.79	7.83
391.998	7.67
392.206	8.05
392.414	7.86
392.621	8.02
392.829	7.36
393.037	7.34
393.244	7.43
393.452	7.55
393.66	7.55
393.867	8
394.075	7.95
394.283	7.92
394.49	7.61
394.698	7.72
394.905	7.48
395.113	7.93
395.32	7.7
395.528	7.64
395.735	7.01
395.943	6.93
396.15	6.54
396.358	6.59
396.565	6.57
396.773	7.01
396.98	6.93
397.188	6.57
397.395	6.66
397.602	7.11
397.81	7.27
398.017	7.75
398.225	7.66
398.432	7.64
398.639	7.57
398.847	7.85
399.054	7.62
399.261	7.75
399.468	7.89
399.676	7.5
399.883	7.39
400.09	7.3
400.297	7.15
400.505	7.43
400.712	7.76
400.919	8.15
401.126	7.92
401.333	7.86
401.54	7.82
401.748	7.93
401.955	8.13
402.162	7.94
402.369	7.54
402.576	7.26
402.783	7.18
402.99	6.86
403.197	6.51
403.404	6.48
403.611	6.45
403.818	6.68
404.025	6.74
404.232	6.79
404.439	6.82
404.646	7.08
404.853	7.31
405.06	7.14
405.267	7
405.474	6.94
405.681	6.93
405.887	7.08
406.094	6.81
406.301	6.49
406.508	6.3
406.715	6.37
406.922	6.14
407.128	6.06
407.335	6.07
407.542	6.32
407.749	6.25
407.955	6.02
408.162	5.91
408.369	6.11
408.575	6.29
408.782	6.21
408.989	6.04
409.195	6.02
409.402	5.89
409.609	5.84
409.815	5.59
410.022	5.91
410.228	6.33
410.435	6.33
410.642	6.3
410.848	6.59
411.055	7.12
411.261	7.44
411.468	7.48
411.674	7.51
411.881	7.75
412.087	7.94
412.294	7.79
412.5	7.62
412.706	7.52
412.913	7.6
413.119	7.33
413.326	7.49
413.532	7.54
413.738	7.65
413.945	7.77
414.151	7.61
414.357	7.32
414.564	7.06
414.77	7.12
414.976	7.39
415.182	7.04
415.389	6.95
415.595	6.41
415.801	5.98
416.007	6.18
416.214	6.11
416.42	5.99
416.626	6.2
416.832	6.44
417.038	6.3
417.244	6.3
417.45	6.58
417.657	6.58
417.863	6.66
418.069	6.82
418.275	6.5
418.481	6.47
418.687	6.52
418.893	6.31
419.099	6.25
419.305	6.15
419.511	6.04
419.717	5.89
419.923	5.89
420.129	5.72
420.335	5.55
420.541	5.67
420.746	5.68
420.952	5.71
421.158	5.86
421.364	5.92
421.57	5.96
421.776	5.97
421.982	5.99
422.187	5.9
422.393	5.95
422.599	6.19
422.805	6.3
423.01	6.4
423.216	6.44
423.422	6.33
423.628	6.18
423.833	6.14
424.039	6.11
424.245	6.09
424.45	6.08
424.656	6.07
424.862	5.88
425.067	5.66
425.273	5.6
425.478	5.46
425.684	5.51
425.889	5.67
426.095	5.73
426.301	5.73
426.506	5.84
426.712	5.85
426.917	5.71
427.123	5.57
427.328	5.59
427.533	5.51
427.739	5.6
427.944	5.74
428.15	5.59
428.355	5.54
428.561	5.56
428.766	5.37
428.971	5.24
429.177	5.49
429.382	5.82
429.587	6.04
429.793	6.1
429.998	5.98
430.203	6.02
430.408	5.89
430.614	6.08
430.819	5.94
431.024	5.94
431.229	6.13
431.434	6.25
431.64	6.12
431.845	6
432.05	6.15
432.255	6.43
432.46	6.32
432.665	6.47
432.87	6.31
433.076	6.36
433.281	6.26
433.486	6.3
433.691	6.09
433.896	6.08
434.101	6.08
434.306	5.88
434.511	5.9
434.716	6
434.921	5.96
435.126	5.94
435.331	6.05
435.535	6.08
435.74	6.1
435.945	6.29
436.15	6.46
436.355	6.43
436.56	6.59
436.765	6.48
436.97	6.48
437.174	6.45
437.379	6.44
437.584	6.28
437.789	6.43
437.993	6.38
438.198	6.11
438.403	5.94
438.608	5.96
438.812	5.75
439.017	5.48
439.222	5.39
439.426	5.18
439.631	5.16
439.836	5.23
440.04	5.19
440.245	4.99
440.45	5.18
440.654	5.17
440.859	5.14
441.063	5.12
441.268	5.29
441.472	5.29
441.677	5.45
441.881	5.51
442.086	5.51
442.29	5.44
442.495	5.66
442.699	5.47
442.904	5.51
443.108	5.51
443.312	5.5
443.517	5.43
443.721	5.47
443.925	5.56
444.13	5.42
444.334	5.33
444.538	5.37
444.743	5.4
444.947	5.4
445.151	5.41
445.356	5.45
445.56	5.58
445.764	5.47
445.968	5.38
446.173	5.34
446.377	5.48
446.581	5.5
446.785	5.49
446.989	5.41
447.193	5.45
447.398	5.44
447.602	5.27
447.806	5.24
448.01	5.32
448.214	5.28
448.418	5.33
448.622	5.27
448.826	5.4
449.03	5.41
449.234	5.51
449.438	5.52
449.642	5.41
449.846	5.75
450.05	5.88
450.254	5.86
450.458	5.82
450.662	5.67
450.866	5.63
451.069	5.55
451.273	5.51
451.477	5.51
451.681	5.55
451.885	5.7
452.089	5.62
452.292	5.61
452.496	5.62
452.7	5.77
452.904	5.78
453.107	5.81
453.311	5.69
453.515	5.71
453.719	5.74
453.922	5.55
454.126	5.43
454.33	5.28
454.533	5.25
454.737	5.37
454.94	5.28
455.144	5.43
455.348	5.54
455.551	5.61
455.755	5.55
455.958	5.65
456.162	5.77
456.365	5.77
456.569	5.88
456.772	5.74
456.976	5.62
457.179	5.59
457.383	5.43
457.586	5.26
457.79	5.38
457.993	5.57
458.196	5.38
458.4	5.48
458.603	5.35
458.807	5.3
459.01	5.39
459.213	5.31
459.417	5.23
459.62	5.16
459.823	5.21
460.026	5.06
460.23	5.04
460.433	5.05
460.636	4.99
460.839	4.81
461.042	4.84
461.246	4.76
461.449	4.88
461.652	5.13
461.855	5.18
462.058	5.23
462.261	5.25
462.464	5.36
462.668	5.42
462.871	5.44
463.074	6
463.277	5.83
463.48	5.99
463.683	6.08
463.886	5.97
464.089	5.95
464.292	5.84
464.495	5.96
464.698	5.65
464.901	5.39
465.104	5.32
465.306	5.02
465.509	5.13
465.712	4.88
465.915	4.8
466.118	4.75
466.321	4.73
466.524	4.77
466.726	4.56
466.929	4.7
467.132	4.86
467.335	5
467.538	5.12
467.74	5.27
467.943	5.25
468.146	5.26
468.348	5.3
468.551	5.58
468.754	5.58
468.956	5.72
469.159	5.64
469.362	5.67
469.564	5.79
469.767	5.78
469.969	5.57
470.172	5.73
470.375	5.77
470.577	5.71
470.78	5.53
470.982	5.59
471.185	5.74
471.387	5.9
471.59	6.04
471.792	5.86
471.995	5.78
472.197	5.92
472.399	5.72
472.602	5.56
472.804	5.53
473.007	5.46
473.209	5.6
473.411	5.6
473.614	5.4
473.816	5.38
474.018	5.52
474.22	5.61
474.423	5.56
474.625	5.79
474.827	5.82
475.03	5.77
475.232	5.8
475.434	5.71
475.636	5.56
475.838	5.66
476.04	5.42
476.243	5.33
476.445	5.26
476.647	5.21
476.849	5.14
477.051	5.26
477.253	5.3
477.455	5.15
477.657	5.06
477.859	5.09
478.061	5.06
478.263	5.07
478.465	4.98
478.667	4.97
478.869	4.96
479.071	4.86
479.273	4.74
479.475	4.72
479.677	4.92
479.879	4.78
480.081	4.76
480.283	4.61
480.485	4.62
480.686	4.7
480.888	4.88
481.09	4.92
481.292	4.87
481.494	4.81
481.695	4.83
481.897	4.75
482.099	4.91
482.301	4.81
482.502	4.83
482.704	4.81
482.906	4.83
483.107	4.85
483.309	4.85
483.511	4.92
483.712	4.97
483.914	4.99
484.115	5.04
484.317	5
484.519	5.07
484.72	5.1
484.922	5.11
485.123	5.06
485.325	4.99
485.526	5
485.728	5.06
485.929	5
486.131	4.91
486.332	4.89
486.534	4.94
486.735	4.94
486.936	4.96
487.138	5.02
487.339	5.12
487.541	5.19
487.742	5.18
487.943	5.12
488.144	5.16
488.346	5.18
488.547	5.19
488.748	5.11
488.95	5.11
489.151	5.18
489.352	5.12
489.553	5.01
489.755	4.91
489.956	4.95
490.157	4.9
490.358	4.92
490.559	5
490.76	5.08
490.961	5.16
491.163	5.14
491.364	5.07
491.565	5.09
491.766	5.14
491.967	5.11
492.168	5.08
492.369	5.05
492.57	5.03
492.771	5.07
492.972	4.96
493.173	4.95
493.374	4.97
493.575	4.99
493.776	5.08
493.976	5.07
494.177	5.18
494.378	5.15
494.579	5.31
494.78	5.31
494.981	5.2
495.182	5.25
495.382	5.26
495.583	5.15
495.784	5.2
495.985	5.13
496.185	5.13
496.386	5.22
496.587	5.46
496.788	5.47
496.988	5.51
497.189	5.74
497.39	5.84
497.59	5.77
497.791	5.86
497.992	5.77
498.192	5.8
498.393	5.84
498.593	5.89
498.794	5.66
498.994	5.64
499.195	5.71
499.395	5.62
499.596	5.52
499.796	5.57
499.997	5.64
500.197	5.68
500.398	5.86
500.598	5.81
500.799	5.55
500.999	5.61
501.199	5.57
501.4	5.68
501.6	5.51
501.801	5.67
502.001	5.7
502.201	5.6
502.402	5.67
502.602	5.59
502.802	5.76
503.002	5.85
503.203	5.9
503.403	5.89
503.603	5.84
503.803	5.93
504.003	5.69
504.204	5.74
504.404	5.71
504.604	5.72
504.804	5.65
505.004	5.45
505.204	5.42
505.404	5.42
505.604	5.48
505.804	5.38
506.005	5.52
506.205	5.65
506.405	5.68
506.605	5.65
506.805	5.45
507.005	5.49
507.204	5.54
507.404	5.69
507.604	5.83
507.804	5.87
508.004	5.89
508.204	5.75
508.404	5.72
508.604	5.61
508.804	5.79
509.003	5.97
509.203	5.96
509.403	5.91
509.603	5.86
509.803	5.84
510.002	5.8
510.202	5.89
510.402	5.92
510.602	5.88
510.801	5.84
511.001	5.77
511.201	5.72
511.4	5.62
511.6	5.8
511.8	5.83
511.999	5.65
512.199	5.81
512.398	5.82
512.598	5.82
512.797	5.87
512.997	5.9
513.197	5.88
513.396	5.89
513.596	5.93
513.795	5.84
513.994	5.86
514.194	6.1
514.393	5.89
514.593	5.97
514.792	6.01
514.992	6.03
515.191	6.28
515.39	6.33
515.59	6.33
515.789	6.36
515.988	6.45
516.188	6.53
516.387	6.43
516.586	6.45
516.786	6.23
516.985	6.18
517.184	6.15
517.383	6.01
517.582	5.82
517.782	5.84
517.981	5.9
518.18	5.88
518.379	5.8
518.578	5.8
518.777	5.8
518.976	5.76
519.176	5.72
519.375	5.76
519.574	5.81
519.773	5.92
519.972	5.9
520.171	5.91
520.37	5.98
520.569	5.9
520.768	5.77
520.967	5.85
521.166	6.01
521.365	6.04
521.564	6.08
521.762	6.08
521.961	6.31
522.16	6.43
522.359	6.41
522.558	6.25
522.757	6.36
522.956	6.54
523.154	6.51
523.353	6.55
523.552	6.53
523.751	6.47
523.949	6.47
524.148	6.35
524.347	6.43
524.546	6.34
524.744	6.5
524.943	6.5
525.142	6.38
525.34	6.33
525.539	6.45
525.737	6.54
525.936	6.56
526.135	6.59
526.333	6.66
526.532	6.43
526.73	6.49
526.929	6.46
527.127	6.54
527.326	6.61
527.524	6.67
527.723	6.62
527.921	6.59
528.12	6.59
528.318	6.56
528.516	6.47
528.715	6.53
528.913	6.56
529.112	6.55
529.31	6.51
529.508	6.53
529.707	6.57
529.905	6.52
530.103	6.53
530.301	6.48
530.5	6.55
530.698	6.61
530.896	6.66
531.094	6.68
531.293	6.75
531.491	6.93
531.689	7
531.887	6.98
532.085	7.04
532.283	7.16
532.481	7.31
532.68	7.19
532.878	7.19
533.076	7.17
533.274	7.21
533.472	7.1
533.67	7.04
533.868	7.05
534.066	7.11
534.264	7.18
534.462	7.04
534.66	6.98
534.858	7.15
535.056	7.17
535.253	7.27
535.451	7.32
535.649	7.47
535.847	7.45
536.045	7.44
536.243	7.33
536.441	7.28
536.638	7.34
536.836	7.5
537.034	7.49
537.232	7.57
537.43	7.56
537.627	7.58
537.825	7.57
538.023	7.55
538.22	7.54
538.418	7.61
538.616	7.64
538.813	7.77
539.011	7.81
539.209	7.73
539.406	7.8
539.604	7.82
539.801	7.79
539.999	7.93
540.196	8.09
540.394	8.27
540.591	8.27
540.789	8.34
540.986	8.37
541.184	8.32
541.381	8.38
541.579	8.35
541.776	8.38
541.974	8.46
542.171	8.38
542.368	8.34
542.566	8.36
542.763	8.48
542.96	8.43
543.158	8.52
543.355	8.64
543.552	8.66
543.75	8.67
543.947	8.8
544.144	8.79
544.341	8.83
544.539	8.89
544.736	8.85
544.933	8.79
545.13	8.99
545.327	9.03
545.524	8.9
545.722	8.98
545.919	9.15
546.116	9.18
546.313	9.21
546.51	9.35
546.707	9.35
546.904	9.29
547.101	9.39
547.298	9.46
547.495	9.42
547.692	9.67
547.889	9.75
548.086	9.68
548.283	9.71
548.48	9.88
548.677	9.91
548.874	10.09
549.07	10.5
549.267	10.44
549.464	10.37
549.661	10.4
549.858	10.42
550.055	10.55
550.251	10.79
550.448	10.76
550.645	10.84
550.842	11.17
551.038	11.26
551.235	11.06
551.432	11.2
551.628	11.27
551.825	11.64
552.022	11.47
552.218	11.41
552.415	11.52
552.612	11.6
552.808	11.62
553.005	11.61
553.201	11.72
553.398	11.78
553.594	12
553.791	12.23
553.987	12.1
554.184	12.43
554.38	12.6
554.577	12.58
554.773	12.63
554.97	12.57
555.166	12.5
555.362	12.39
555.559	12.42
555.755	12.54
555.952	12.48
556.148	12.53
556.344	12.49
556.541	12.48
556.737	12.59
556.933	12.92
557.129	13.06
557.326	13.07
557.522	13.24
557.718	13.43
557.914	12.95
558.11	12.9
558.307	12.83
558.503	12.83
558.699	13
558.895	12.92
559.091	12.84
559.287	13.01
559.483	13.35
559.679	13.45
559.876	13.53
560.072	13.97
560.268	14.19
560.464	14.32
560.66	14.53
560.856	14.63
561.052	14.8
561.247	14.91
561.443	15
561.639	14.97
561.835	15.05
562.031	14.98
562.227	15.08
562.423	15.26
562.619	15.43
562.815	15.08
563.01	15.25
563.206	15.37
563.402	15.31
563.598	15.23
563.793	15.23
563.989	15.28
564.185	15.35
564.381	15.4
564.576	15.36
564.772	15.65
564.968	15.9
565.163	15.85
565.359	15.75
565.555	15.91
565.75	15.93
565.946	15.99
566.141	16.12
566.337	16.28
566.532	16.25
566.728	16.25
566.923	16.18
567.119	16.2
567.314	16.05
567.51	16.22
567.705	16.17
567.901	16.39
568.096	16.44
568.292	16.47
568.487	16.59
568.682	16.74
568.878	16.71
569.073	16.63
569.268	16.93
569.464	17.24
569.659	17.41
569.854	17.62
570.05	17.37
570.245	17.34
570.44	17.41
570.635	17.63
570.831	17.67
571.026	17.82
571.221	17.8
571.416	17.77
571.611	17.87
571.806	17.73
572.002	17.62
572.197	17.85
572.392	17.85
572.587	17.74
572.782	17.48
572.977	17.61
573.172	17.66
573.367	17.72
573.562	17.8
573.757	17.73
573.952	17.87
574.147	17.98
574.342	17.85
574.537	17.88
574.732	17.82
574.927	17.99
575.121	17.8
575.316	17.86
575.511	18.15
575.706	18.22
575.901	18.29
576.096	18.42
576.29	18.39
576.485	18.62
576.68	18.97
576.875	19.11
577.069	18.99
577.264	19.05
577.459	18.98
577.654	18.89
577.848	18.96
578.043	19.22
578.238	19.17
578.432	19.3
578.627	19.4
578.821	19.3
579.016	19.47
579.21	19.55
579.405	19.81
579.6	20.18
579.794	20.18
579.989	20.04
580.183	19.53
580.378	19.41
580.572	19.43
580.766	19.62
580.961	19.54
581.155	19.54
581.35	19.74
581.544	19.73
581.738	19.62
581.933	19.65
582.127	19.77
582.321	20.09
582.516	20.25
582.71	20.45
582.904	20.05
583.099	20.09
583.293	20.3
583.487	20.08
583.681	19.86
583.875	19.71
584.07	19.56
584.264	19.29
584.458	19.57
584.652	19.32
584.846	19.34
585.04	19.65
585.234	19.79
585.428	19.42
585.623	19.66
585.817	19.92
586.011	20.34
586.205	20.3
586.399	20.55
586.593	20.14
586.787	20.38
586.981	20.24
587.174	20.16
587.368	20.14
587.562	20.27
587.756	20.32
587.95	20.07
588.144	19.73
588.338	20.18
588.532	20.45
588.725	20.72
588.919	20.63
589.113	20.66
589.307	20.52
589.501	20.57
589.694	20.6
589.888	20.44
590.082	20.57
590.275	20.64
590.469	20.3
590.663	20.06
590.856	19.96
591.05	19.87
591.244	19.8
591.437	20.06
591.631	19.94
591.824	20.11
592.018	20.24
592.212	20.43
592.405	20.39
592.599	20.74
592.792	20.76
592.986	21.12
593.179	21.43
593.372	21.73
593.566	21.6
593.759	21.81
593.953	21.89
594.146	21.85
594.339	21.75
594.533	21.88
594.726	21.59
594.92	21.54
595.113	21.12
595.306	21.22
595.499	20.91
595.693	21.24
595.886	21.08
596.079	20.85
596.272	20.88
596.466	21.09
596.659	21.13
596.852	21.18
597.045	21.13
597.238	21.33
597.431	21.22
597.624	21.27
597.818	21.2
598.011	21.24
598.204	21.24
598.397	21.39
598.59	21.17
598.783	21.03
598.976	21.04
599.169	20.87
599.362	20.97
599.555	20.93
599.748	21.03
599.941	21.05
600.134	21.16
600.326	21.47
600.519	21.5
600.712	21.73
600.905	21.53
601.098	21.61
601.291	21.85
601.483	21.81
601.676	21.86
601.869	21.95
602.062	21.8
602.255	21.88
602.447	21.72
602.64	21.76
602.833	21.71
603.025	22.14
603.218	22.14
603.411	22.4
603.603	22.24
603.796	22.35
603.989	22.31
604.181	22.28
604.374	22.06
604.566	22.13
604.759	22.18
604.951	22.28
605.144	22
605.336	22.01
605.529	21.62
605.721	21.74
605.914	21.79
606.106	21.63
606.299	21.6
606.491	21.55
606.683	21.4
606.876	21.18
607.068	20.92
607.26	21.16
607.453	21.16
607.645	21.34
607.837	21.39
608.03	21.33
608.222	21.54
608.414	21.57
608.606	21.78
608.799	21.82
608.991	21.95
609.183	22
609.375	21.89
609.567	22.11
609.759	22.2
609.952	22.22
610.144	21.99
610.336	22.04
610.528	21.99
610.72	22.1
610.912	22.08
611.104	22.01
611.296	21.92
611.488	21.86
611.68	21.74
611.872	21.81
612.064	21.74
612.256	21.91
612.448	21.96
612.64	21.9
612.832	21.71
613.023	21.96
613.215	22.11
613.407	22.53
613.599	22.78
613.791	22.68
613.983	22.51
614.174	22.34
614.366	22.27
614.558	22.38
614.75	22.58
614.941	22.56
615.133	22.5
615.325	22.54
615.516	22.33
615.708	22.31
615.9	22.45
616.091	22.47
616.283	22.33
616.475	22.52
616.666	22.55
616.858	22.35
617.049	22.52
617.241	22.71
617.432	22.45
617.624	22.66
617.815	22.51
618.007	22.6
618.198	22.79
618.39	23.22
618.581	23.11
618.773	23.07
618.964	23.43
619.155	23.23
619.347	23.25
619.538	23.2
619.729	22.88
619.921	22.94
620.112	22.7
620.303	22.61
620.494	22.76
620.686	22.88
620.877	22.55
621.068	22.3
621.259	22.38
621.451	22.2
621.642	22.28
621.833	22.59
622.024	22.61
622.215	22.59
622.406	22.43
622.597	22.26
622.788	21.96
622.98	22.14
623.171	22.22
623.362	22.17
623.553	22.29
623.744	22.1
623.935	22.15
624.126	22.33
624.317	22.35
624.508	22.95
624.698	23.03
624.889	23.2
625.08	23.3
625.271	23.28
625.462	23.3
625.653	23.14
625.844	23.29
626.034	23.32
626.225	23.02
626.416	23.05
626.607	22.82
626.798	22.79
626.988	23.05
627.179	23.13
627.37	23.14
627.56	23.07
627.751	23.16
627.942	23.31
628.132	23.02
628.323	23.23
628.514	23.42
628.704	23.17
628.895	23.17
629.085	23.05
629.276	22.85
629.466	22.94
629.657	23.35
629.847	23.57
630.038	23.49
630.228	23.77
630.419	23.69
630.609	23.66
630.8	24.15
630.99	23.76
631.181	23.44
631.371	23.5
631.561	23.58
631.752	23.34
631.942	23.12
632.132	22.97
632.323	22.78
632.513	22.91
632.703	22.41
632.893	22.04
633.084	22.02
633.274	22.43
633.464	22.46
633.654	22.26
633.844	22.32
634.034	22.18
634.225	22.41
634.415	22.36
634.605	22.25
634.795	22.51
634.985	22.5
635.175	23.05
635.365	22.79
635.555	22.82
635.745	22.85
635.935	22.65
636.125	22.91
636.315	22.93
636.505	23.13
636.695	23.41
636.885	23.44
637.075	23.73
637.265	23.3
637.455	23.21
637.644	23.41
637.834	23.73
638.024	23.97
638.214	23.83
638.404	24.1
638.593	23.91
638.783	23.72
638.973	23.69
639.163	23.67
639.352	23.81
639.542	24.01
639.732	23.72
639.921	23.28
640.111	23.54
640.301	23.59
640.49	23.08
640.68	23.4
640.87	23.38
641.059	23
641.249	22.64
641.438	22.66
641.628	22.49
641.817	22.47
642.007	22.65
642.196	22.43
642.386	22.51
642.575	22.52
642.764	22.05
642.954	22.47
643.143	22.93
643.333	23.1
643.522	23.05
643.711	23.34
643.901	23.24
644.09	23.57
644.279	23.06
644.469	22.89
644.658	22.75
644.847	23.25
645.036	22.93
645.226	23.07
645.415	23.2
645.604	23.56
645.793	23.31
645.982	23.5
646.171	23.27
646.361	23.74
646.55	23.97
646.739	24.38
646.928	24.12
647.117	23.57
647.306	23.71
647.495	23.75
647.684	23.51
647.873	23.93
648.062	23.89
648.251	23.77
648.44	23.99
648.629	23.86
648.818	23.8
649.007	23.78
649.196	24.27
649.384	23.5
649.573	23.27
649.762	23.17
649.951	22.86
650.14	22.9
650.328	23.04
650.517	22.82
650.706	23.05
650.895	23.05
651.083	22.82
651.272	22.58
651.461	23.22
651.65	23.42
651.838	23.56
652.027	23.36
652.216	23.37
652.404	22.93
652.593	23.29
652.781	23.44
652.97	23.36
653.158	23.96
653.347	24.53
653.535	25.18
653.724	25.58
653.912	25.66
654.101	26.18
654.289	26.14
654.478	26.72
654.666	26.15
654.855	25.77
655.043	26.11
655.231	25.67
655.42	25.29
655.608	24.33
655.796	23.74
655.985	23.79
656.173	23.67
656.361	24.02
656.55	24.25
656.738	24.53
656.926	24.8
657.114	24.71
657.302	24.97
657.491	24.83
657.679	24.97
657.867	25.01
658.055	24.96
658.243	25.09
658.431	24.95
658.619	24.54
658.807	24.69
658.996	24.64
659.184	24.54
659.372	24.12
659.56	24.17
659.748	24.13
659.936	24.14
660.124	23.87
660.311	23.61
660.499	23.36
660.687	23.38
660.875	23.27
661.063	22.77
661.251	22.82
661.439	23.18
661.627	22.5
661.814	22.63
662.002	22.74
662.19	22.97
662.378	23.11
662.565	23.18
662.753	23.1
662.941	23.37
663.129	23.77
663.316	23.8
663.504	24.07
663.692	24.83
663.879	24.89
664.067	25.17
664.254	25.16
664.442	24.91
664.63	25.2
664.817	25.17
665.005	24.74
665.192	24.79
665.38	24.5
665.567	24.47
665.755	24.75
665.942	25.02
666.13	24.7
666.317	24.94
666.504	25.41
666.692	25.29
666.879	25.32
667.067	25.43
667.254	25.22
667.441	24.97
667.629	24.81
667.816	24.53
668.003	24.12
668.19	24.54
668.378	24.26
668.565	23.88
668.752	23.61
668.939	23.55
669.127	23.44
669.314	23.93
669.501	24.65
669.688	24.59
669.875	24.97
670.062	24.97
670.249	24.47
670.436	24.7
670.623	25.4
670.81	25.97
670.997	26.14
671.184	26.12
671.371	25.75
671.558	25.46
671.745	25.71
671.932	25.62
672.119	25.85
672.306	26.2
672.493	25.87
672.68	25.3
672.867	25.27
673.054	25.61
673.24	25.56
673.427	25.8
673.614	25.58
673.801	25.24
673.988	24.91
674.174	24.7
674.361	24.15
674.548	24.08
674.734	24.18
674.921	24.15
675.108	24.1
675.294	24.34
675.481	24.16
675.668	24.72
675.854	25.05
676.041	25.27
676.227	25.23
676.414	25.99
676.601	26.39
676.787	26.66
676.974	26.62
677.16	26.26
677.347	26.02
677.533	25.95
677.719	25.06
677.906	25.11
678.092	25.16
678.279	24.97
678.465	24.61
678.651	24.74
678.838	24.63
679.024	24.52
679.21	24.5
679.397	24.77
679.583	25.21
679.769	25.9
679.955	25.98
680.142	26.2
680.328	26.31
680.514	26.5
680.7	26.19
680.886	26.44
681.073	26.33
681.259	26.36
681.445	26.37
681.631	26.01
681.817	25.76
682.003	25.74
682.189	25.59
682.375	25.99
682.561	26.29
682.747	26.63
682.933	26.48
683.119	26.47
683.305	27.03
683.491	26.88
683.677	27.07
683.863	27.51
684.049	27.42
684.235	26.45
684.42	26.04
684.606	25.39
684.792	25.01
684.978	23.97
685.164	24.25
685.349	23.99
685.535	23.83
685.721	24.06
685.907	23.76
686.092	23.49
686.278	24.55
686.464	24.64
686.649	24.34
686.835	24.15
687.021	24.95
687.206	24.97
687.392	25.07
687.577	25.36
687.763	24.71
687.948	24.26
688.134	24.18
688.319	24.28
688.505	24.9
688.69	25.58
688.876	25.72
689.061	25.78
689.247	25.33
689.432	24.97
689.618	25
689.803	25.55
689.988	26.08
690.174	25.88
690.359	25.49
690.544	24.82
690.73	23.99
690.915	24.26
691.1	24.05
691.285	24.36
691.471	24.16
691.656	23.99
691.841	24.13
692.026	23.48
692.211	24.19
692.396	24.6
692.582	24.68
692.767	25.01
692.952	25.05
693.137	25.45
693.322	24.91
693.507	25.46
693.692	25.4
693.877	24.79
694.062	25.12
694.247	24.8
694.432	24.61
694.617	24.69
694.802	25.04
694.987	24.86
695.172	24.49
695.357	24.83
695.541	25.25
695.726	25.09
695.911	24.97
696.096	25.21
696.281	25.28
696.466	25.4
696.65	25.81
696.835	25.37
697.02	25.56
697.204	25.64
697.389	25.47
697.574	25.13
697.759	25.63
697.943	25.93
698.128	25.83
698.312	25.28
698.497	25.15
698.682	25.17
698.866	25.05
699.051	25
699.235	24.95
699.42	25.27
699.604	25
699.789	24.64
699.973	24.44
700.158	24.31
700.342	25.03
700.527	24.8
700.711	24.72
700.895	25.06
701.08	25.15
701.264	25.79
701.448	26.22
701.633	26.4
701.817	26.9
702.001	27.04
702.186	27.13
702.37	26.36
702.554	26.84
702.738	26.82
702.923	26.8
703.107	26.47
703.291	25.61
703.475	24.85
703.659	24.77
703.843	24.16
704.027	24.9
704.212	25.47
704.396	26.25
704.58	26.5
704.764	26.33
704.948	26.65
705.132	26.44
705.316	26.71
705.5	26.9
705.684	27.16
705.868	27.98
706.052	27.88
706.235	27.24
706.419	26.85
706.603	26.27
706.787	26.32
706.971	26.19
707.155	26.58
707.339	26.74
707.522	26.74
707.706	26.48
707.89	26.38
708.074	26.78
708.257	27.02
708.441	26.92
708.625	27.93
708.808	28.15
708.992	27.83
709.176	27.86
709.359	28.13
709.543	28.49
709.727	28.15
709.91	27.91
710.094	27.19
710.277	27.44
710.461	27.88
710.644	26.83
710.828	26.26
711.011	27.05
711.195	26.97
711.378	26.62
711.562	26.19
711.745	27.07
711.928	26.78
712.112	26.65
712.295	26.38
712.478	25.75
712.662	26
712.845	26
713.028	25.26
713.212	25.34
713.395	24.63
713.578	24.58
713.761	24.81
713.945	24.79
714.128	24.89
714.311	25.59
714.494	26.02
714.677	26.12
714.86	26.06
715.043	26.16
715.227	26.08
715.41	26.82
715.593	27.05
715.776	26.72
715.959	26.68
716.142	26.37
716.325	26
716.508	26.01
716.691	25.72
716.874	26.58
717.057	27.54
717.239	27.95
717.422	27.99
717.605	28.08
717.788	28.22
717.971	28.74
718.154	28.57
718.337	28.62
718.519	29.52
718.702	30.13
718.885	29.39
719.068	29.44
719.25	29.31
719.433	29.53
719.616	28.81
719.798	28.36
719.981	28.43
720.164	28.41
720.346	28.36
720.529	26.98
720.712	26.98
720.894	27.37
721.077	25.66
721.259	25.32
721.442	24.05
721.624	24.64
721.807	24.79
721.989	23.4
722.172	23.69
722.354	23.55
722.537	24.1
722.719	24.68
722.901	24.26
723.084	25.35
723.266	25.73
723.448	26.8
723.631	27.18
723.813	27.07
723.995	28.3
724.178	28.68
724.36	28.11
724.542	28.25
724.724	27.29
724.907	27.54
725.089	27.67
725.271	26.83
725.453	26.88
725.635	25.87
725.817	25.83
725.999	25.8
726.181	25.25
726.364	25.8
726.546	26.14
726.728	26.07
726.91	26.01
727.092	25.78
727.274	26.09
727.456	25.92
727.638	26.47
727.819	27.42
728.001	27.29
728.183	27.33
728.365	27.65
728.547	26.78
728.729	26.9
728.911	27.05
729.093	26.89
729.274	27.32
729.456	27.87
729.638	28.53
729.82	28.8
730.001	28.39
730.183	29.41
730.365	28.93
730.546	28.66
730.728	29.16
730.91	29.58
731.091	29.41
731.273	29.31
731.455	27.93
731.636	27.46
731.818	26.64
731.999	26.8
732.181	25.45
732.362	25.78
732.544	26.19
732.725	25.32
732.907	24.14
733.088	24.13
733.27	24.02
733.451	25.09
733.633	25.48
733.814	25.12
733.995	25.53
734.177	26.43
734.358	26.44
734.539	26.69
734.721	26.29
734.902	27.37
735.083	27.16
735.264	27.15
735.446	27.13
735.627	25.78
735.808	25.75
735.989	25.35
736.17	25.77
736.351	25.34
736.533	25.42
736.714	26.59
736.895	26.3
737.076	26.94
737.257	26.66
737.438	26.32
737.619	27.81
737.8	28.17
737.981	27.84
738.162	27.74
738.343	27.28
738.524	26.84
738.705	27.66
738.886	27.96
739.067	27.27
739.247	28.2
739.428	27.7
739.609	26.05
739.79	26.56
739.971	27.2
740.151	27.18
740.332	27.6
740.513	28.57
740.694	27.27
740.874	28.03
741.055	29.3
741.236	29.28
741.417	29.52
741.597	30.5
741.778	29.67
741.958	29.41
742.139	30.01
742.32	30.41
742.5	30.68
742.681	31.74
742.861	30.57
743.042	30.65
743.222	30.74
743.403	31.24
743.583	31.83
743.764	32.14
743.944	32.25
744.124	31.71
744.305	31.52
744.485	32.2
744.666	32.02
744.846	33.04
745.026	32.59
745.207	31.54
745.387	31.57
745.567	31.38
745.747	30.54
745.928	30.68
746.108	29.01
746.288	28.3
746.468	26.89
746.648	26.75
746.829	25.58
747.009	24.6
747.189	24.86
747.369	25.14
747.549	23.77
747.729	25.29
747.909	25.3
748.089	27.49
748.269	29.01
748.449	29.3
748.629	29.41
748.809	29.33
748.989	29.37
749.169	28.92
749.349	27.59
749.529	28.4
749.709	27.9
749.889	28.61
750.068	28.23
750.248	27.68
750.428	27.74
750.608	26.33
750.788	26.89
750.967	27.22
751.147	28.84
751.327	28.56
751.507	29.16
751.686	28.66
751.866	28.68
752.046	27.88
752.225	27.93
752.405	27.25
752.585	27.83
752.764	28.14
752.944	27.1
753.123	26.33
753.303	28.5
753.482	27.97
753.662	28.44
753.841	27.13
754.021	27.53
754.2	28.16
754.38	27.7
754.559	27.85
754.739	28.19
754.918	29.52
755.097	30.64
755.277	28.65
755.456	29.73
755.635	29.46
755.815	29.88
755.994	29.79
756.173	31
756.352	32.46
756.532	32.13
756.711	30.67
756.89	30.39
757.069	29.69
757.248	31.52
757.427	31.46
757.607	32.79
757.786	32.41
757.965	32.61
758.144	31.36
758.323	30.6
758.502	29.88
758.681	30.11
758.86	29.95
759.039	29.63
759.218	28.57
759.397	27.29
759.576	26.05
759.755	25.75
759.934	25.86
760.113	25.04
760.291	24.56
760.47	25.2
760.649	25.41
760.828	25.76
761.007	26.02
761.186	25.61
761.364	25.89
761.543	25.73
761.722	27.5
761.901	26.63
762.079	26.73
762.258	26.88
762.437	27.3
762.615	27.27
762.794	27.74
762.972	27.15
763.151	27.28
763.33	26.64
763.508	27.66
763.687	26.97
763.865	27.21
764.044	27.38
764.222	28.56
764.401	28.6
764.579	28.33
764.758	26.7
764.936	26.89
765.114	27.88
765.293	28.19
765.471	26.33
765.65	27.48
765.828	27.88
766.006	28.14
766.184	26.98
766.363	27.2
766.541	26.91
766.719	28.19
766.898	29.11
767.076	28.76
767.254	29.92
767.432	31.7
767.61	30.73
767.788	30.14
767.967	29.49
768.145	29.3
768.323	28.84
768.501	30.08
768.679	29.55
768.857	28.98
769.035	27.1
769.213	25.6
769.391	25.81
769.569	25.65
769.747	26.68
769.925	25.95
770.103	27.91
770.281	28.6
770.459	29.57
770.636	32.8
770.814	32.17
770.992	32.32
771.17	33.66
771.348	31.66
771.525	32.68
771.703	33.29
771.881	35.6
772.059	33.88
772.236	32.79
772.414	32.65
772.592	31.45
772.769	31.83
772.947	32.63
773.125	33.14
773.302	34.75
773.48	34.4
773.657	32.51
773.835	31.12
774.013	31.03
774.19	31.39
774.368	30.63
774.545	29.38
774.723	30.59
774.9	30.88
775.077	29.6
775.255	28.88
775.432	26.51
775.61	27.36
775.787	28.92
775.964	29.17
776.142	29.19
776.319	29.93
776.496	30.3
776.674	28.88
776.851	28.15
777.028	28.18
777.205	27.35
777.382	28.69
777.56	28.56
777.737	25.69
777.914	25.99
778.091	25.49
778.268	25.44
778.445	24.09
778.622	23.39
778.8	25.1
778.977	27.33
779.154	29.28
779.331	31.34
779.508	32.93
779.685	35.75
779.862	34.4
780.038	34.64
780.215	35.27
780.392	35.2
780.569	36.43
780.746	35.48
780.923	34.88
781.1	35.47
781.277	33.85
781.453	32.45
781.63	31.13
781.807	32.01
781.984	31.61
782.16	29.47
782.337	30.9
782.514	31.78
782.691	31.9
782.867	30.14
783.044	27.1
783.221	29.61
783.397	29.73
783.574	28.37
783.75	28.31
783.927	32.07
784.103	32.03
784.28	30.92
784.456	29.62
784.633	32.33
784.809	31.56
784.986	32.3
785.162	31.98
785.339	29.49
785.515	30.9
785.692	30.94
785.868	27.27
786.044	26.62
786.221	26.3
786.397	25.7
786.573	23.38
786.749	23.31
786.926	24.21
787.102	22.59
787.278	26.2
787.454	26.47
787.631	26
787.807	25.6
787.983	28.2
788.159	26.89
788.335	26.93
788.511	27.29
788.687	28.83
788.863	30.36
789.039	30.29
789.216	27.05
789.392	25.7
789.568	29.35
789.744	30.68
789.919	28.86
790.095	31.21
790.271	30.43
790.447	31.47
790.623	33.05
790.799	31.35
790.975	28.68
791.151	30.65
791.327	29.52
791.502	24.81
791.678	25.99
791.854	25.7
792.03	25.22
792.205	26
792.381	25.68
792.557	23.18
792.733	24.55
792.908	27.08
793.084	27.7
793.259	31.47
793.435	31.2
793.611	27.63
793.786	29.33
793.962	31.45
794.137	32.49
794.313	32.03
794.488	32.33
794.664	31.88
794.839	30.1
795.015	30.77
795.19	29.68
795.366	29.74
795.541	31
795.716	30.27
795.892	29.48
796.067	31.51
796.242	29.41
796.418	31.53
796.593	30.8
796.768	31.47
796.944	30.29
797.119	30.17
797.294	30.64
797.469	32.77
797.644	32.76
797.82	31.64
797.995	31.68
798.17	33.16
798.345	31.99
798.52	30.73
798.695	30.71
798.87	34.6
799.045	34.72
799.22	36.69
799.395	37.14
799.57	37.14
799.745	37.04
799.92	35.12
800.095	33.75
800.27	33.16
800.445	37.54
800.62	38.45
800.795	36.05
800.97	38.79
801.145	39.1
801.319	39.33
801.494	37.42
801.669	37.65
801.844	38.84
802.018	42.78
802.193	42.66
802.368	38.5
802.543	39.68
802.717	37.33
802.892	37.31
803.067	37.47
803.241	31.45
803.416	35.54
803.59	37.69
803.765	38.71
803.94	41.59
804.114	42.78
804.289	43.07
804.463	37.67
804.638	41.61
804.812	40.29
804.986	40.93
805.161	45.78
805.335	44.52
805.51	44.53
805.684	41.67
805.858	38.68
806.033	36.37
806.207	37.91
806.381	42.2
806.556	40.38
806.73	40.55
806.904	36.89
807.078	35.02
807.253	37.8
807.427	35.47
807.601	34.03
807.775	32.77
807.949	34.6
808.123	36.41
808.298	37.4
808.472	39.17
808.646	36.77
808.82	38.17
808.994	37.88
809.168	37.69
809.342	37.19
809.516	37.17
809.69	40.7
809.864	39.78
810.038	38.81
810.212	33.62
810.385	31.34
810.559	33.65
810.733	33.98
810.907	33.02
811.081	30.1
811.255	30.4
811.428	34.21
811.602	31.84
811.776	35.14
811.95	34.01
812.123	38.19
812.297	39.66
812.471	37.82
812.644	38.86
812.818	38.73
812.992	39.61
813.165	39.6
813.339	40.9
813.512	41.37
813.686	38.49
813.86	38.93
814.033	35.97
814.207	39.28
814.38	41.52
814.554	40.37
814.727	42.12
814.9	40.71
815.074	42.79
815.247	41.7
815.421	33.97
815.594	37.26
815.767	40.39
815.941	42.67
816.114	39.52
816.287	35.77
816.46	37.82
816.634	37.12
816.807	39.15
816.98	35.94
817.153	39.2
817.327	42.19
817.5	41.85
817.673	39.19
817.846	39.44
818.019	36.38
818.192	37.06
818.365	39.6
818.538	41.5
818.711	40.25
818.884	39.57
819.057	35.96
819.23	37.03
819.403	40.14
819.576	43.02
819.749	42.58
819.922	41.17
820.095	41.01
820.268	32.93
820.441	31.37
820.614	30.1
820.786	29.63
820.959	29.44
821.132	29.64
821.305	25.86
821.477	24.2
821.65	24
821.823	24.36
821.996	24.81
822.168	26.6
822.341	27.35
822.514	27.96
822.686	27.95
822.859	27.25
823.031	26.23
823.204	26.31
823.376	26.26
823.549	26.22
823.722	26.96
823.894	27.26
824.067	27.44
824.239	26.67
824.411	25.9
824.584	26.07
824.756	25.32
824.929	25.79
825.101	25.87
825.273	25.45
825.446	25.63
825.618	24.13
825.79	23.1
825.963	22.92
826.135	23.74
826.307	24.99
826.479	25.74
826.652	26.53
826.824	26.09
826.996	24.99
827.168	25.43
827.34	25.83
827.512	26.52
827.684	26.9
827.856	27.84
828.029	27.6
828.201	25.17
828.373	23.47
828.545	23.72
828.717	24.33
828.889	25.23
829.061	25.22
829.232	24.56
829.404	23.92
829.576	23.17
829.748	20.37
829.92	18.53
830.092	20.05
830.264	21.48
830.436	23.7
830.607	21.59
830.779	21.09
830.951	22.55
831.123	21.09
831.294	21.34
831.466	22.61
831.638	24.5
831.809	25.1
831.981	24.06
832.153	21.81
832.324	22.98
832.496	27.88
832.667	26.88
832.839	23.41
833.011	21.9
833.182	25.22
833.354	24.41
833.525	27.54
833.697	28.65
833.868	31.72
834.039	33.07
834.211	30.06
834.382	28.95
834.554	28.82
834.725	31.36
834.896	34.35
835.068	33.86
835.239	34.39
835.41	29.93
835.581	29.94
835.753	27.72
835.924	27.03
836.095	29.09
836.266	32.43
836.438	35.07
836.609	30.99
836.78	29.56
836.951	28.61
837.122	27.37
837.293	31.73
837.464	32.1
837.635	35.51
837.806	39.71
837.977	38.04
838.148	31.61
838.319	29.93
838.49	34.99
838.661	39.42
838.832	43.34
839.003	45.34
839.174	39.13
839.345	39.88
839.516	40.06
839.687	34.63
839.857	40.33
840.028	42.73
840.199	45.22
840.37	43.01
840.54	39.76
840.711	41.44
840.882	44
841.053	46.88
841.223	40.86
841.394	34.21
841.564	40.46
841.735	40.27
841.906	38.47
842.076	38.05
842.247	44.99
842.417	46.6
842.588	43.05
842.758	39.5
842.929	42.44
843.099	48.37
843.27	57.21
843.44	52.69
843.611	52.09
843.781	50.72
843.951	51.33
844.122	48.21
844.292	56.51
844.462	51.8
844.633	53.51
844.803	53.21
844.973	63.64
845.144	68.78
845.314	74.75
845.484	66.61
845.654	71.86
845.824	51.38
845.995	35.16
846.165	17.12
846.335	17.04
846.505	23.67
846.675	24.54
846.845	23.82
847.015	15.77
847.185	22.92
847.355	19.71
847.525	25.4
847.695	45.66
847.865	55.73
848.035	58.73
848.205	63.21
848.375	61.37
848.545	59.46
848.715	50.94
848.884	48.88
849.054	49.47
849.224	54.67
849.394	51.98
849.564	38.6
849.733	41.94
849.903	40.52
850.073	41.98
850.243	42.89
850.412	40.07
850.582	33.69
850.752	26.81
850.921	35.33
851.091	41.85
851.26	42.16
851.43	53.95
851.599	51.66
851.769	62.72
851.939	50.14
852.108	57.25
852.278	66.02
852.447	92.78
852.616	95.79
852.786	85.43
852.955	63.21
853.125	66.73
853.294	73.08
853.463	60.8
853.633	34.61
853.802	34.08
853.971	25.5
854.141	17.78
854.31	10.26
854.479	8.77
854.648	10.68
854.818	37.97
854.987	43.78
855.156	30.36
855.325	37.16
855.494	45.32
855.663	62.78
855.832	57.07
856.001	56.47
856.171	56.85
856.34	64.15
856.509	67.32
856.678	65.68
856.847	59.97
857.016	52.11
857.185	58.95
857.353	58.07
857.522	52.02
857.691	48.53
857.86	60.77
858.029	64.43
858.198	71.37
858.367	53.21
858.535	39.55
858.704	42.94
858.873	64.82
859.042	54.87
859.21	66.75
859.379	78.05
859.548	81.06
859.717	71.04
859.885	75.43
860.054	80.29
860.222	85.24
860.391	111.58
860.56	107.06
860.728	82.19
860.897	91.58
861.065	82.43
861.234	72.62
861.402	73.25
861.571	72.13
861.739	55.63
861.908	50.32
862.076	55.88
862.244	39.05
862.413	39.11
862.581	40.91
862.749	27.64
862.918	17.79
863.086	17.69
863.254	17.54
863.423	11.05
863.591	22.38
863.759	25.2
863.927	6.96
864.096	13.21
864.264	10.86
864.432	38.69
864.6	49.06
864.768	87.11
864.936	79.7
865.104	106.79
865.272	120.65
865.44	97.31
865.608	53.36
865.776	84.95
865.944	83.39
866.112	60.96
866.28	78.28
866.448	104.31
866.616	91.03
866.784	105
866.952	90.16
867.12	87.19
867.288	99.86
867.455	112.48
867.623	120.95
867.791	85.2
867.959	94.46
868.127	77.12
868.294	53.15
868.462	53.17
868.63	60.72
868.797	51.92
868.965	44.72
869.133	41.31
869.3	47.19
869.468	43.9
869.636	42.89
869.803	45.82
869.971	55.79
870.138	70.21
870.306	60.04
870.473	48.76
870.641	74.4
870.808	69.91
870.975	127.12
871.143	122.97
871.31	108.79
871.478	131.55
871.645	96.23
871.812	55.31
871.98	38
872.147	44.45
872.314	57.44
872.482	56.46
872.649	56.08
872.816	50.38
872.983	40.88
873.15	53.72
873.318	51.42
873.485	70.16
873.652	68.01
873.819	60.95
873.986	61.59
874.153	60.38
874.32	51.39
874.487	65.31
874.654	62.7
874.821	57.68
874.988	49
875.155	56.37
875.322	54.85
875.489	51.95
875.656	44.71
875.823	47.88
875.99	57.49
876.157	59.49
876.324	49.34
876.49	46.79
876.657	45.13
876.824	52.89
876.991	51.25
877.157	44.27
877.324	54.99
877.491	68.7
877.658	84.7
877.824	60.39
877.991	75.08
878.157	77.31
878.324	74.06
878.491	80.01
878.657	73.69
878.824	64.81
878.99	72.6
879.157	72.02
879.323	81.06
879.49	72.26
879.656	88.59
879.823	76.93
879.989	69.97
880.156	76.1
880.322	76.52
880.488	79.01
880.655	86.89
880.821	78.14
880.987	73.4
881.154	58.18
881.32	47.82
881.486	46.85
881.652	42.78
881.819	46.05
881.985	41.18
882.151	44.01
882.317	41.99
882.483	38.79
882.649	38.22
882.816	36.85
882.982	35.22
883.148	34.91
883.314	33.55
883.48	35.67
883.646	32.97
883.812	34.73
883.978	32.76
884.144	29.15
884.31	29.35
884.476	29.32
884.642	29.11
884.807	28.15
884.973	27.01
885.139	28.39
885.305	25.89
885.471	27.31
885.637	24.3
885.802	24.32
885.968	30.54
886.134	29.8
886.3	29.46
886.465	27.51
886.631	29.53
886.797	33.26
886.962	31.53
887.128	37.48
887.293	41.17
887.459	45.86
887.625	41.67
887.79	38.09
887.956	39.29
888.121	38.51
888.287	40.51
888.452	42
888.618	42.88
888.783	44.53
