Data from 2937834_Reflection_2.txt Node
Date: Wed Jul 15 16:36:26 EDT 2015
User: robert
Spectrometer: USB4E03001
Autoset integration time: false
Trigger mode: 4
Integration Time (sec): 1.000000E-1
Scans to average: 10
Electric dark correction enabled: true
Nonlinearity correction enabled: false
Boxcar width: 5
Stray light correction enabled: false
XAxis mode: Wavelengths
Stop averaging: false
Number of Pixels in Spectrum: 3648
>>>>>Begin Spectral Data<<<<<
177.566	263.35
177.785	227.93
178.005	-266.33
178.225	-28.5
178.445	45.79
178.665	43.15
178.885	101.92
179.105	177.44
179.324	174.57
179.544	205.2
179.764	154.83
179.984	163.39
180.204	-278.06
180.423	-133.03
180.643	5.38
180.863	89.95
181.083	40.54
181.302	721.98
181.522	298.33
181.742	58.08
181.961	103.92
182.181	103.61
182.401	99.13
182.621	227.35
182.84	44.92
183.06	69.86
183.279	9.81
183.499	39.28
183.719	54.31
183.938	47.91
184.158	56.47
184.377	88.72
184.597	78.5
184.816	76
185.036	73.59
185.256	77.13
185.475	97.6
185.695	118.56
185.914	80.62
186.134	91.52
186.353	89.92
186.572	72.35
186.792	63.97
187.011	53.4
187.231	39.24
187.45	58.91
187.67	79.65
187.889	60.57
188.108	88.37
188.328	86.18
188.547	97.1
188.766	78.7
188.986	68.53
189.205	60.28
189.424	79.66
189.644	95.43
189.863	93.45
190.082	80.07
190.302	73.75
190.521	71.79
190.74	72.96
190.959	77.09
191.178	87.14
191.398	190.08
191.617	121.55
191.836	33.8
192.055	133.8
192.274	95.7
192.494	89.77
192.713	40.95
192.932	-1.37
193.151	100.63
193.37	43.95
193.589	67.69
193.808	59.73
194.027	57.08
194.246	74.94
194.465	55.94
194.685	39.64
194.904	24.8
195.123	-2.08
195.342	27.67
195.561	6.73
195.78	5.92
195.999	-68.24
196.218	-101.35
196.436	-429.21
196.655	-283.65
196.874	-374.5
197.093	11772.31
197.312	429.44
197.531	-121.39
197.75	710.33
197.969	199.55
198.188	464.52
198.407	48.82
198.625	60.67
198.844	102.56
199.063	97.66
199.282	73.81
199.501	78.76
199.719	77.53
199.938	75.33
200.157	82.55
200.376	77.82
200.594	85.02
200.813	74.3
201.032	83.36
201.251	69.92
201.469	84.69
201.688	98.27
201.907	84.34
202.125	82.7
202.344	83.49
202.563	63.51
202.781	60.74
203	60.02
203.218	58.36
203.437	50.66
203.656	59.87
203.874	51.36
204.093	59.48
204.311	66
204.53	63.85
204.748	61.04
204.967	59.25
205.185	64.15
205.404	66.19
205.622	67.34
205.841	64.21
206.059	55.13
206.278	49.27
206.496	23.19
206.715	-4.95
206.933	-125.54
207.151	-196.52
207.37	6515.38
207.588	592.69
207.806	-192.09
208.025	-186.48
208.243	-103.81
208.461	36.71
208.68	237.51
208.898	347.33
209.116	408.85
209.335	156.93
209.553	236.32
209.771	230.81
209.989	207.27
210.208	138.14
210.426	78.47
210.644	73.76
210.862	34.64
211.081	21.72
211.299	30.08
211.517	36.84
211.735	38.5
211.953	41
212.171	31.78
212.39	8.95
212.608	14
212.826	28.53
213.044	34.1
213.262	38.6
213.48	43.81
213.698	39.32
213.916	37.22
214.134	51.96
214.352	65.51
214.57	69.95
214.788	88.61
215.006	108.28
215.224	100.71
215.442	83.51
215.66	83.54
215.878	83.12
216.096	76.07
216.314	68.63
216.532	48.7
216.75	50.56
216.968	32.96
217.185	25.69
217.403	-8.28
217.621	9.44
217.839	-4.22
218.057	23.73
218.275	27.07
218.492	47.67
218.71	40.56
218.928	51.23
219.146	31.83
219.363	47.48
219.581	58.7
219.799	79.05
220.017	71.2
220.234	65.81
220.452	59.6
220.67	46.18
220.887	51.55
221.105	59.95
221.323	52.11
221.54	55.85
221.758	51.27
221.976	42.5
222.193	50.99
222.411	53.04
222.629	67.59
222.846	48.93
223.064	58.91
223.281	33.44
223.499	39.79
223.716	50.04
223.934	33.79
224.151	35.63
224.369	49.72
224.586	48.27
224.804	44.78
225.021	26.71
225.239	36.49
225.456	25.01
225.674	21.92
225.891	13.35
226.108	3.37
226.326	10.77
226.543	12.7
226.76	11.58
226.978	11.04
227.195	6.14
227.413	3.24
227.63	7.25
227.847	8.24
228.064	11.5
228.282	13.24
228.499	13.13
228.716	15.46
228.934	15.4
229.151	16.93
229.368	18.01
229.585	16.71
229.802	15.13
230.02	15.92
230.237	15.82
230.454	13.75
230.671	17.53
230.888	16.17
231.105	15.74
231.323	18.3
231.54	17.73
231.757	15.15
231.974	16.21
232.191	20.06
232.408	17.74
232.625	14.02
232.842	18.72
233.059	11.87
233.276	22.94
233.493	20.79
233.71	13.26
233.927	16.17
234.144	14.85
234.361	13.69
234.578	17.04
234.795	18.09
235.012	22.56
235.229	21.19
235.446	20.45
235.663	18.19
235.879	17.58
236.096	21.17
236.313	21.24
236.53	23.15
236.747	29.12
236.964	25.03
237.181	21.46
237.397	30.46
237.614	29.18
237.831	27.93
238.048	26.85
238.264	24.94
238.481	21.7
238.698	17.11
238.915	18.45
239.131	17.02
239.348	17.48
239.565	19.73
239.781	13.81
239.998	17
240.215	18.36
240.431	18.15
240.648	21.39
240.865	22.72
241.081	25.89
241.298	26.34
241.514	23.55
241.731	24.23
241.947	22.18
242.164	19.58
242.38	18.62
242.597	20.1
242.814	20.57
243.03	20.93
243.246	21.18
243.463	19.2
243.679	17.34
243.896	18.9
244.112	19.8
244.329	22.48
244.545	24.58
244.762	25.01
244.978	21.75
245.194	20.52
245.411	18.7
245.627	17.03
245.843	16.57
246.06	15.6
246.276	15.44
246.492	15.07
246.709	14.27
246.925	12.83
247.141	13.85
247.357	14.86
247.574	14.92
247.79	14.33
248.006	14.73
248.222	15.19
248.439	15.95
248.655	14.84
248.871	15.03
249.087	15.04
249.303	15.65
249.519	13.64
249.736	14.44
249.952	15.04
250.168	15.02
250.384	13.65
250.6	13.25
250.816	12.17
251.032	14.39
251.248	12.36
251.464	11.92
251.68	13.46
251.896	13.93
252.112	13.6
252.328	14.15
252.544	14.64
252.76	14.31
252.976	13.57
253.192	15.02
253.408	14.67
253.624	16.84
253.84	17.55
254.056	17.58
254.272	18.54
254.487	15.64
254.703	15.48
254.919	15.65
255.135	17.95
255.351	17.7
255.567	16.06
255.782	16.97
255.998	13.92
256.214	11.29
256.43	12.25
256.646	12.06
256.861	11.74
257.077	10.17
257.293	9.41
257.508	9.74
257.724	11.37
257.94	11.11
258.155	9.19
258.371	9.71
258.587	11.64
258.802	10.24
259.018	10.95
259.234	12.61
259.449	11.13
259.665	11.04
259.88	10.88
260.096	10.42
260.312	10.41
260.527	11.91
260.743	11.53
260.958	10.96
261.174	10.94
261.389	10.74
261.605	10.08
261.82	10.84
262.036	11.26
262.251	10.92
262.466	10.25
262.682	9.65
262.897	7.04
263.113	6.66
263.328	6.63
263.543	6.59
263.759	5.18
263.974	4.7
264.189	5.05
264.405	3.85
264.62	3.64
264.835	5.09
265.051	6.64
265.266	9.54
265.481	10.72
265.696	11.06
265.912	13.67
266.127	13.02
266.342	12.35
266.557	12.77
266.773	12.78
266.988	12.48
267.203	12.49
267.418	12.58
267.633	9.79
267.848	10.68
268.064	11.15
268.279	10.53
268.494	11.84
268.709	13.46
268.924	13.37
269.139	13.56
269.354	14.29
269.569	13.43
269.784	13.23
269.999	14.99
270.214	14.05
270.429	12.95
270.644	13.89
270.859	13.66
271.074	12.64
271.289	12.83
271.504	15.87
271.719	15.64
271.934	15.91
272.149	15.13
272.363	14.96
272.578	16.34
272.793	17.24
273.008	15.78
273.223	15.94
273.438	16.61
273.653	16.51
273.867	14
274.082	12.94
274.297	14.08
274.512	14.76
274.726	14.36
274.941	12.2
275.156	11.77
275.371	11.56
275.585	10.75
275.8	9.14
276.015	10.32
276.229	9.61
276.444	10.5
276.659	10.27
276.873	10.17
277.088	11.09
277.302	11.74
277.517	11.63
277.732	11.72
277.946	10.35
278.161	12.31
278.375	9
278.59	9.62
278.804	9.42
279.019	8.87
279.233	8.82
279.448	7.04
279.662	7.92
279.877	8.76
280.091	9.14
280.306	11.16
280.52	10.6
280.735	11.46
280.949	12.71
281.163	12.15
281.378	12.08
281.592	12.33
281.806	11.27
282.021	10.45
282.235	8.9
282.449	9.22
282.664	9.32
282.878	9.31
283.092	10.9
283.307	12.21
283.521	13.29
283.735	13.66
283.949	12.51
284.164	15.52
284.378	15.66
284.592	15.41
284.806	15.35
285.02	14.28
285.234	13.83
285.449	12.68
285.663	10.65
285.877	10.36
286.091	9.51
286.305	9.71
286.519	8.78
286.733	8.06
286.947	8.61
287.161	8.6
287.375	9.91
287.589	10.58
287.803	11.95
288.017	12.75
288.231	12.24
288.445	12.67
288.659	14.96
288.873	14.35
289.087	16
289.301	15.87
289.515	15.73
289.729	15.22
289.943	14.42
290.157	12.94
290.371	12.12
290.584	12.17
290.798	13.24
291.012	10.23
291.226	10.16
291.44	8.21
291.654	7.29
291.867	5.58
292.081	5.93
292.295	5.92
292.509	6.43
292.722	7.06
292.936	7.87
293.15	8.15
293.364	10
293.577	11.03
293.791	13.6
294.005	16.59
294.218	18.44
294.432	18.29
294.645	19.97
294.859	19.91
295.073	20.71
295.286	20.39
295.5	20.35
295.713	19.75
295.927	19.59
296.14	18.35
296.354	16.93
296.568	16.75
296.781	16.45
296.994	15.01
297.208	15.48
297.421	15.04
297.635	14.4
297.848	13.26
298.062	13.9
298.275	13.1
298.489	13.17
298.702	12.61
298.915	12.27
299.129	12.12
299.342	12.7
299.555	11.82
299.769	13.15
299.982	14.45
300.195	15.77
300.409	15.58
300.622	16.06
300.835	16.16
301.048	16.77
301.262	16.65
301.475	18.02
301.688	17.67
301.901	17.22
302.115	15.34
302.328	14.26
302.541	14.2
302.754	13.94
302.967	14.43
303.18	13.05
303.393	14.5
303.607	16.52
303.82	15.88
304.033	15.86
304.246	17.63
304.459	16.8
304.672	17.27
304.885	16.02
305.098	17.35
305.311	17.17
305.524	19.34
305.737	17.95
305.95	16.67
306.163	15.81
306.376	16.41
306.589	15.08
306.802	16.13
307.015	17.21
307.228	18.18
307.44	16.56
307.653	17.09
307.866	16.69
308.079	17.75
308.292	16.11
308.505	17.4
308.718	15.52
308.93	16.62
309.143	17.55
309.356	18
309.569	17.78
309.781	19.34
309.994	18.1
310.207	17.66
310.42	16.64
310.632	16.72
310.845	15.81
311.058	16.12
311.27	15.34
311.483	14.3
311.696	14.37
311.908	13.92
312.121	12.84
312.333	13.48
312.546	13.06
312.759	13.38
312.971	12.68
313.184	11.93
313.396	12.22
313.609	11.33
313.821	9.94
314.034	8.25
314.246	9.21
314.459	9.64
314.671	10.09
314.884	8.55
315.096	8.49
315.309	9.94
315.521	10.67
315.733	11.78
315.946	12.02
316.158	14.28
316.371	13.79
316.583	12.26
316.795	11.96
317.008	10.51
317.22	12.54
317.432	13.46
317.644	14.46
317.857	14.91
318.069	16.07
318.281	16.32
318.494	15.82
318.706	16.99
318.918	17.63
319.13	17.27
319.342	17.68
319.555	18.39
319.767	18.77
319.979	17.53
320.191	17.85
320.403	15.68
320.615	16.2
320.827	15.77
321.039	16.15
321.252	17.88
321.464	18.12
321.676	18.41
321.888	17.48
322.1	17.56
322.312	19.43
322.524	19.88
322.736	20.59
322.948	20.66
323.16	20.99
323.372	20.63
323.584	18.85
323.796	19.52
324.007	19.8
324.219	20.3
324.431	18.82
324.643	16.79
324.855	14.9
325.067	14.94
325.279	15.39
325.491	15.56
325.702	14.23
325.914	14.46
326.126	13.59
326.338	12.88
326.55	12.33
326.761	12.04
326.973	13.18
327.185	13.47
327.396	12.53
327.608	11.82
327.82	12.35
328.032	10.96
328.243	10.12
328.455	9.66
328.666	9.33
328.878	9.98
329.09	10.07
329.301	8.81
329.513	10.67
329.725	10.31
329.936	9.96
330.148	8.59
330.359	9.58
330.571	10.47
330.782	10.94
330.994	12.22
331.205	11.3
331.417	11.99
331.628	12.74
331.84	12.56
332.051	12.45
332.262	13.03
332.474	15.86
332.685	18.72
332.897	17.77
333.108	19.31
333.319	17.73
333.531	18.05
333.742	18.81
333.953	18.69
334.165	17.5
334.376	17.37
334.587	18.6
334.799	17.14
335.01	16.04
335.221	16.71
335.432	15.88
335.644	16.92
335.855	17.37
336.066	17.03
336.277	16.29
336.488	16.97
336.7	18.09
336.911	17.73
337.122	17.53
337.333	17.07
337.544	16.27
337.755	16.14
337.966	13.98
338.177	13.49
338.388	14.19
338.599	14.07
338.811	12.84
339.022	11.88
339.233	11.21
339.444	11.36
339.655	13.73
339.866	14.72
340.076	15.73
340.287	17.1
340.498	17.95
340.709	17.03
340.92	18.83
341.131	20.53
341.342	20.99
341.553	21.18
341.764	21.99
341.975	20.81
342.185	22.14
342.396	21.61
342.607	22.55
342.818	22.7
343.029	22.93
343.239	22.29
343.45	22.01
343.661	22.22
343.872	22.09
344.082	20.95
344.293	19.97
344.504	18.16
344.714	18.24
344.925	17.16
345.136	16.42
345.346	16.22
345.557	15.97
345.768	14.99
345.978	15.41
346.189	15.38
346.399	16.48
346.61	16.16
346.821	16.28
347.031	16.29
347.242	16.13
347.452	15.76
347.663	16.55
347.873	16.55
348.084	17.71
348.294	16.66
348.504	16.13
348.715	15.19
348.925	15.33
349.136	16.82
349.346	15.82
349.557	16.67
349.767	18.49
349.977	17.99
350.188	18.56
350.398	18.27
350.608	19.95
350.819	19.04
351.029	19.19
351.239	20.18
351.449	19.45
351.66	18.92
351.87	18.8
352.08	17.6
352.29	17.17
352.501	16.64
352.711	16
352.921	15.84
353.131	16.84
353.341	17
353.552	17.44
353.762	16.58
353.972	17.6
354.182	18.72
354.392	18.59
354.602	18.74
354.812	18.7
355.022	18.82
355.232	18.51
355.442	18.81
355.652	18.42
355.862	16.5
356.072	17.08
356.282	16.3
356.492	15.96
356.702	15.02
356.912	14.73
357.122	15.05
357.332	14.96
357.542	13.97
357.752	14.29
357.962	13.71
358.171	14.78
358.381	14.5
358.591	14.42
358.801	13.88
359.011	14.14
359.221	14.26
359.43	14.01
359.64	14.03
359.85	13.59
360.06	13.84
360.269	13.9
360.479	13.89
360.689	14.1
360.899	14.94
361.108	15.5
361.318	15.61
361.528	15.5
361.737	15.39
361.947	15.54
362.156	16.08
362.366	15.65
362.576	16.05
362.785	15.89
362.995	15.71
363.204	15.13
363.414	14.31
363.623	14.7
363.833	14.23
364.042	14.78
364.252	14.65
364.461	14.17
364.671	14.13
364.88	13.65
365.09	14.43
365.299	14.93
365.509	16.14
365.718	16.27
365.927	15.53
366.137	15.61
366.346	15.03
366.555	15.34
366.765	16.06
366.974	16
367.183	16.54
367.393	15.39
367.602	14.53
367.811	13.53
368.021	13.6
368.23	14
368.439	14.63
368.648	14.66
368.857	13.76
369.067	13.02
369.276	12.19
369.485	12.44
369.694	12.66
369.903	13.53
370.112	13.88
370.321	14.31
370.531	14.06
370.74	13.62
370.949	14.02
371.158	14.65
371.367	15.56
371.576	16.19
371.785	15.66
371.994	15.87
372.203	15.19
372.412	14.85
372.621	13.97
372.83	14.12
373.039	14.58
373.248	14.04
373.457	14.27
373.666	13.6
373.874	13.23
374.083	13.8
374.292	13.17
374.501	13.04
374.71	12.96
374.919	14.05
375.128	13.63
375.336	12.92
375.545	12.56
375.754	12.15
375.963	12.26
376.171	11.73
376.38	10.67
376.589	10.54
376.798	11.07
377.006	10.56
377.215	9.67
377.424	10.49
377.632	11.46
377.841	11.77
378.05	11.81
378.258	11.17
378.467	11.55
378.675	11.68
378.884	12.14
379.093	11.84
379.301	12.29
379.51	12.89
379.718	12.82
379.927	12.05
380.135	12.51
380.344	12.05
380.552	12.45
380.761	12.66
380.969	12.68
381.177	12.74
381.386	12.21
381.594	12.45
381.803	11.81
382.011	10.97
382.219	10.97
382.428	10.43
382.636	10.35
382.845	10.06
383.053	9.58
383.261	9.71
383.469	9.37
383.678	10.01
383.886	9.56
384.094	9.39
384.302	9.51
384.511	9.69
384.719	9.71
384.927	10.18
385.135	9.89
385.343	10.11
385.552	9.99
385.76	9.68
385.968	9.15
386.176	9.27
386.384	9.56
386.592	9.77
386.8	9.56
387.008	9.46
387.216	9.39
387.424	9.51
387.633	9.55
387.841	9.09
388.049	9.27
388.257	9.62
388.465	9.34
388.672	9.48
388.88	9.42
389.088	9.45
389.296	9.06
389.504	8.55
389.712	8.59
389.92	8.59
390.128	8.92
390.336	8.93
390.544	8.84
390.751	8.9
390.959	8.42
391.167	7.87
391.375	7.64
391.583	8.04
391.79	8.38
391.998	8.36
392.206	7.96
392.414	8.11
392.621	8.22
392.829	8.12
393.037	8.07
393.244	8.12
393.452	8.34
393.66	8.51
393.867	8.6
394.075	8.33
394.283	8.35
394.49	8.88
394.698	8.86
394.905	8.69
395.113	8.54
395.32	8.54
395.528	8.48
395.735	8.34
395.943	8.33
396.15	8.06
396.358	8.35
396.565	8.39
396.773	7.98
396.98	8.07
397.188	7.83
397.395	7.81
397.602	7.78
397.81	8.03
398.017	8.17
398.225	7.84
398.432	8.06
398.639	7.92
398.847	7.62
399.054	7.59
399.261	7.13
399.468	7.47
399.676	7.57
399.883	7.45
400.09	7.39
400.297	7.08
400.505	6.99
400.712	6.99
400.919	6.56
401.126	6.78
401.333	6.63
401.54	6.74
401.748	6.76
401.955	6.46
402.162	6.37
402.369	6.32
402.576	6.71
402.783	6.86
402.99	6.95
403.197	7.25
403.404	7.31
403.611	7.44
403.818	7.38
404.025	7.18
404.232	7.31
404.439	7.47
404.646	7.13
404.853	7.25
405.06	7.28
405.267	7.23
405.474	7.13
405.681	7.25
405.887	7.66
406.094	7.78
406.301	7.75
406.508	7.87
406.715	8.18
406.922	8.42
407.128	8.37
407.335	8.15
407.542	7.8
407.749	7.72
407.955	7.35
408.162	7.01
408.369	7.21
408.575	7.5
408.782	7.36
408.989	6.9
409.195	6.96
409.402	6.89
409.609	7.36
409.815	7.37
410.022	7.63
410.228	7.87
410.435	7.61
410.642	7.16
410.848	6.96
411.055	7.23
411.261	7.31
411.468	7.28
411.674	7.43
411.881	7.23
412.087	7.27
412.294	7.36
412.5	7.13
412.706	7.3
412.913	7.71
413.119	7.81
413.326	7.64
413.532	7.93
413.738	8.1
413.945	7.68
414.151	7.59
414.357	7.55
414.564	7.12
414.77	6.98
414.976	6.83
415.182	6.73
415.389	6.91
415.595	6.98
415.801	6.84
416.007	6.29
416.214	6.21
416.42	6.19
416.626	6.16
416.832	6.28
417.038	6.53
417.244	6.34
417.45	6.15
417.657	5.78
417.863	5.82
418.069	5.87
418.275	6.07
418.481	6.18
418.687	6.26
418.893	6.18
419.099	6.07
419.305	6.14
419.511	6.27
419.717	6.42
419.923	6.47
420.129	6.51
420.335	6.4
420.541	6.57
420.746	6.79
420.952	6.88
421.158	6.98
421.364	7.19
421.57	7.11
421.776	7.15
421.982	7.18
422.187	7.29
422.393	7.2
422.599	7.1
422.805	7
423.01	6.72
423.216	6.68
423.422	6.6
423.628	6.54
423.833	6.48
424.039	6.42
424.245	6.44
424.45	6.58
424.656	6.57
424.862	6.77
425.067	6.73
425.273	6.91
425.478	7.03
425.684	7.05
425.889	6.89
426.095	6.99
426.301	7.11
426.506	7.12
426.712	6.89
426.917	6.82
427.123	6.63
427.328	6.9
427.533	6.92
427.739	6.53
427.944	6.8
428.15	7.09
428.355	6.94
428.561	6.96
428.766	6.86
428.971	6.73
429.177	6.84
429.382	6.84
429.587	6.64
429.793	6.61
429.998	6.85
430.203	6.65
430.408	6.38
430.614	6.52
430.819	6.35
431.024	6.27
431.229	6.57
431.434	6.36
431.64	6.62
431.845	6.64
432.05	6.53
432.255	6.4
432.46	6.42
432.665	6.63
432.87	6.51
433.076	6.43
433.281	6.51
433.486	6.43
433.691	6.55
433.896	6.54
434.101	6.38
434.306	6.4
434.511	6.43
434.716	6.4
434.921	6.18
435.126	6.21
435.331	6.33
435.535	6.07
435.74	6.15
435.945	6.04
436.15	5.83
436.355	5.84
436.56	5.73
436.765	5.7
436.97	5.74
437.174	5.83
437.379	5.96
437.584	5.81
437.789	6.04
437.993	5.87
438.198	6.05
438.403	6.03
438.608	6.21
438.812	6.22
439.017	6.36
439.222	6.32
439.426	6.41
439.631	6.3
439.836	6.48
440.04	6.48
440.245	6.56
440.45	6.55
440.654	6.57
440.859	6.65
441.063	6.69
441.268	6.53
441.472	6.43
441.677	6.36
441.881	6.35
442.086	6.13
442.29	6.05
442.495	6.11
442.699	6.12
442.904	6.14
443.108	5.89
443.312	5.99
443.517	6.17
443.721	6.31
443.925	6.29
444.13	6.44
444.334	6.73
444.538	6.95
444.743	6.8
444.947	6.7
445.151	6.7
445.356	6.78
445.56	6.59
445.764	6.5
445.968	6.43
446.173	6.4
446.377	6.33
446.581	6.4
446.785	6.21
446.989	6.28
447.193	6.24
447.398	6.13
447.602	6.02
447.806	5.96
448.01	5.92
448.214	5.83
448.418	5.77
448.622	5.81
448.826	5.62
449.03	5.57
449.234	5.52
449.438	5.41
449.642	5.58
449.846	5.53
450.05	5.68
450.254	5.82
450.458	5.84
450.662	5.91
450.866	5.82
451.069	5.72
451.273	5.89
451.477	5.63
451.681	5.91
451.885	6.1
452.089	6.42
452.292	6.33
452.496	6.35
452.7	6.48
452.904	6.56
453.107	6.61
453.311	6.64
453.515	6.73
453.719	7.02
453.922	6.78
454.126	6.59
454.33	6.49
454.533	6.64
454.737	6.38
454.94	6.49
455.144	6.36
455.348	6.31
455.551	6.49
455.755	6.32
455.958	6.15
456.162	6.28
456.365	6.25
456.569	6.22
456.772	6.01
456.976	6.1
457.179	6.02
457.383	6.05
457.586	6.02
457.79	5.9
457.993	5.91
458.196	6.08
458.4	5.93
458.603	5.79
458.807	5.78
459.01	5.9
459.213	6
459.417	5.88
459.62	5.9
459.823	5.93
460.026	5.99
460.23	5.9
460.433	5.78
460.636	5.87
460.839	6.06
461.042	6.12
461.246	6.1
461.449	5.99
461.652	6.17
461.855	6.19
462.058	6.13
462.261	5.97
462.464	6.03
462.668	6.07
462.871	6.09
463.074	6.13
463.277	6.12
463.48	6.07
463.683	6.07
463.886	5.83
464.089	5.86
464.292	5.85
464.495	6.03
464.698	6.11
464.901	6.07
465.104	6.05
465.306	5.83
465.509	5.62
465.712	5.73
465.915	5.69
466.118	5.85
466.321	5.64
466.524	5.76
466.726	5.7
466.929	5.73
467.132	5.7
467.335	5.72
467.538	5.76
467.74	5.88
467.943	5.8
468.146	5.92
468.348	6.18
468.551	6.29
468.754	6.08
468.956	6.2
469.159	6.15
469.362	6.15
469.564	6.2
469.767	6.2
469.969	6.14
470.172	6.18
470.375	6.27
470.577	6.01
470.78	6.06
470.982	6.2
471.185	6.17
471.387	5.97
471.59	6.01
471.792	5.95
471.995	5.91
472.197	6.16
472.399	6.25
472.602	6.25
472.804	6.18
473.007	6.19
473.209	6.26
473.411	6.23
473.614	6.33
473.816	6.33
474.018	6.3
474.22	6.31
474.423	6.24
474.625	6.21
474.827	6.1
475.03	6.19
475.232	6.23
475.434	6.22
475.636	6.08
475.838	6.22
476.04	6.2
476.243	6.33
476.445	6.34
476.647	6.27
476.849	6.32
477.051	6.38
477.253	6.31
477.455	6.33
477.657	6.35
477.859	6.43
478.061	6.34
478.263	6.41
478.465	6.21
478.667	6.27
478.869	6.11
479.071	5.89
479.273	5.74
479.475	5.72
479.677	5.54
479.879	5.66
480.081	5.68
480.283	5.84
480.485	5.85
480.686	5.96
480.888	5.94
481.09	6.15
481.292	6.19
481.494	6.18
481.695	6.12
481.897	6.18
482.099	5.92
482.301	5.98
482.502	5.92
482.704	5.81
482.906	5.86
483.107	5.93
483.309	5.85
483.511	5.86
483.712	5.85
483.914	5.9
484.115	5.88
484.317	5.89
484.519	5.85
484.72	5.81
484.922	5.86
485.123	5.85
485.325	5.77
485.526	5.77
485.728	5.79
485.929	5.81
486.131	5.79
486.332	5.78
486.534	5.84
486.735	5.78
486.936	5.85
487.138	5.79
487.339	5.75
487.541	5.72
487.742	5.72
487.943	5.76
488.144	5.78
488.346	5.77
488.547	5.8
488.748	5.75
488.95	5.81
489.151	5.76
489.352	5.77
489.553	5.78
489.755	5.85
489.956	5.84
490.157	5.72
490.358	5.76
490.559	5.79
490.76	5.82
490.961	5.84
491.163	5.81
491.364	5.83
491.565	5.89
491.766	5.85
491.967	5.89
492.168	5.86
492.369	5.85
492.57	5.82
492.771	5.82
492.972	5.76
493.173	5.84
493.374	5.84
493.575	5.84
493.776	5.83
493.976	5.87
494.177	5.86
494.378	5.96
494.579	5.93
494.78	5.94
494.981	5.84
495.182	5.93
495.382	5.73
495.583	5.95
495.784	5.99
495.985	5.99
496.185	6.04
496.386	5.91
496.587	5.85
496.788	5.96
496.988	5.84
497.189	5.72
497.39	5.62
497.59	5.67
497.791	5.5
497.992	5.34
498.192	5.22
498.393	5.13
498.593	5.08
498.794	5.13
498.994	5.16
499.195	5.29
499.395	5.49
499.596	5.6
499.796	5.57
499.997	5.49
500.197	5.46
500.398	5.53
500.598	5.62
500.799	5.93
500.999	5.87
501.199	5.91
501.4	5.8
501.6	5.77
501.801	5.85
502.001	5.98
502.201	5.99
502.402	6.24
502.602	6.3
502.802	6.23
503.002	6.06
503.203	6.16
503.403	6.11
503.603	6.2
503.803	6.22
504.003	6.07
504.204	6.21
504.404	6.24
504.604	6.21
504.804	6.28
505.004	6.38
505.204	6.39
505.404	6.32
505.604	6.28
505.804	6.16
506.005	5.95
506.205	5.81
506.405	5.73
506.605	5.81
506.805	5.8
507.005	5.64
507.204	5.58
507.404	5.48
507.604	5.66
507.804	5.63
508.004	5.78
508.204	5.88
508.404	6.08
508.604	6
508.804	5.77
509.003	5.78
509.203	5.83
509.403	5.94
509.603	6.09
509.803	6.02
510.002	6.11
510.202	6.07
510.402	6.32
510.602	6.3
510.801	6.33
511.001	6.47
511.201	6.34
511.4	6.35
511.6	6.32
511.8	6.11
511.999	6.12
512.199	6.16
512.398	6.23
512.598	6.03
512.797	6.13
512.997	6.26
513.197	6.34
513.396	6.48
513.596	6.49
513.795	6.5
513.994	6.76
514.194	6.83
514.393	6.9
514.593	7.06
514.792	7.22
514.992	7.16
515.191	7.07
515.39	7.05
515.59	7.12
515.789	7.15
515.988	7.21
516.188	7.04
516.387	7.11
516.586	7.17
516.786	7.04
516.985	7.05
517.184	7.02
517.383	7.09
517.582	7.19
517.782	7.19
517.981	7.15
518.18	7.1
518.379	7.17
518.578	7.13
518.777	6.93
518.976	6.96
519.176	6.97
519.375	7.04
519.574	7.02
519.773	7.05
519.972	6.92
520.171	6.94
520.37	7.04
520.569	7.05
520.768	7.15
520.967	7.4
521.166	7.38
521.365	7.27
521.564	7.11
521.762	7.25
521.961	7.29
522.16	7.6
522.359	7.68
522.558	7.58
522.757	7.58
522.956	7.39
523.154	7.34
523.353	7.39
523.552	7.35
523.751	7.53
523.949	7.46
524.148	7.51
524.347	7.41
524.546	7.4
524.744	7.56
524.943	7.65
525.142	7.76
525.34	7.71
525.539	7.83
525.737	7.95
525.936	7.96
526.135	7.94
526.333	7.89
526.532	7.89
526.73	7.94
526.929	7.92
527.127	7.91
527.326	7.83
527.524	7.87
527.723	7.79
527.921	7.87
528.12	7.83
528.318	7.81
528.516	7.77
528.715	7.76
528.913	7.78
529.112	7.84
529.31	7.88
529.508	8.03
529.707	8.04
529.905	8.09
530.103	8.05
530.301	8.15
530.5	8.22
530.698	8.27
530.896	8.32
531.094	8.34
531.293	8.25
531.491	8.25
531.689	8.2
531.887	8.25
532.085	8.19
532.283	8.23
532.481	8.19
532.68	8.28
532.878	8.42
533.076	8.47
533.274	8.48
533.472	8.45
533.67	8.41
533.868	8.31
534.066	8.33
534.264	8.33
534.462	8.42
534.66	8.4
534.858	8.33
535.056	8.18
535.253	8.25
535.451	8.25
535.649	8.29
535.847	8.34
536.045	8.42
536.243	8.35
536.441	8.43
536.638	8.43
536.836	8.58
537.034	8.63
537.232	8.73
537.43	8.77
537.627	8.72
537.825	8.94
538.023	8.99
538.22	9.12
538.418	9.18
538.616	9.26
538.813	9.23
539.011	9.17
539.209	9.33
539.406	9.31
539.604	9.35
539.801	9.56
539.999	9.5
540.196	9.4
540.394	9.28
540.591	9.38
540.789	9.44
540.986	9.57
541.184	9.65
541.381	9.64
541.579	9.59
541.776	9.53
541.974	9.59
542.171	9.54
542.368	9.63
542.566	9.68
542.763	9.7
542.96	9.62
543.158	9.59
543.355	9.55
543.552	9.48
543.75	9.6
543.947	9.66
544.144	9.65
544.341	9.69
544.539	9.52
544.736	9.61
544.933	9.65
545.13	9.81
545.327	9.86
545.524	9.95
545.722	10.09
545.919	10.11
546.116	10.19
546.313	10.16
546.51	10.33
546.707	10.65
546.904	10.7
547.101	10.62
547.298	10.46
547.495	10.5
547.692	10.42
547.889	10.4
548.086	10.52
548.283	10.46
548.48	10.51
548.677	10.18
548.874	10.07
549.07	10.03
549.267	10.23
549.464	10.47
549.661	10.45
549.858	10.55
550.055	10.93
550.251	10.94
550.448	11.3
550.645	11.13
550.842	11.62
551.038	11.84
551.235	11.86
551.432	11.78
551.628	11.91
551.825	11.63
552.022	11.74
552.218	11.49
552.415	11.45
552.612	11.32
552.808	11.44
553.005	11.47
553.201	11.64
553.398	11.57
553.594	11.52
553.791	11.55
553.987	11.94
554.184	11.85
554.38	11.96
554.577	12.04
554.773	11.97
554.97	12.15
555.166	12.13
555.362	12.01
555.559	12.42
555.755	12.7
555.952	12.52
556.148	12.46
556.344	12.58
556.541	12.51
556.737	12.63
556.933	12.97
557.129	13.02
557.326	12.95
557.522	12.74
557.718	12.5
557.914	12.45
558.11	12.68
558.307	12.91
558.503	13.09
558.699	13.3
558.895	13.49
559.091	13.43
559.287	13.51
559.483	13.76
559.679	14.12
559.876	14.3
560.072	14.46
560.268	14.49
560.464	14.13
560.66	14.04
560.856	14.05
561.052	13.97
561.247	14.02
561.443	14.16
561.639	14.3
561.835	14.55
562.031	14.54
562.227	14.6
562.423	14.77
562.619	15.25
562.815	15.59
563.01	15.77
563.206	16.02
563.402	15.8
563.598	15.52
563.793	15.66
563.989	15.24
564.185	15.45
564.381	15.5
564.576	15.44
564.772	15.43
564.968	15.35
565.163	15.28
565.359	15.18
565.555	15.62
565.75	15.81
565.946	15.72
566.141	15.96
566.337	16.04
566.532	16.23
566.728	16.21
566.923	16.16
567.119	16.24
567.314	16.32
567.51	16.42
567.705	16.33
567.901	16.54
568.096	16.5
568.292	16.6
568.487	16.72
568.682	16.45
568.878	16.64
569.073	16.72
569.268	16.84
569.464	16.88
569.659	16.91
569.854	17.15
570.05	17.26
570.245	17.38
570.44	17.53
570.635	17.46
570.831	17.89
571.026	18.02
571.221	18.17
571.416	17.99
571.611	18.21
571.806	18.24
572.002	18.2
572.197	18.22
572.392	18.33
572.587	18.29
572.782	18.48
572.977	18.23
573.172	18.24
573.367	18.1
573.562	18.29
573.757	18.25
573.952	18.26
574.147	18.3
574.342	18.4
574.537	18.28
574.732	18.32
574.927	18.08
575.121	18.25
575.316	18.25
575.511	18.46
575.706	18.58
575.901	18.52
576.096	18.81
576.29	18.98
576.485	18.83
576.68	18.93
576.875	18.95
577.069	19.02
577.264	19.24
577.459	19.11
577.654	19.02
577.848	18.99
578.043	19.19
578.238	19.12
578.432	19.06
578.627	19.15
578.821	19.28
579.016	19.57
579.21	19.75
579.405	19.74
579.6	19.99
579.794	20.19
579.989	20.42
580.183	20.84
580.378	20.79
580.572	20.62
580.766	20.84
580.961	20.96
581.155	20.86
581.35	21.16
581.544	21.12
581.738	21.22
581.933	21.32
582.127	21.03
582.321	20.55
582.516	20.49
582.71	20.75
582.904	20.5
583.099	20.47
583.293	20.46
583.487	20.08
583.681	19.95
583.875	20.02
584.07	20.04
584.264	20.01
584.458	20.19
584.652	20.16
584.846	19.94
585.04	20.35
585.234	20.2
585.428	20.14
585.623	20.41
585.817	20.75
586.011	20.55
586.205	20.66
586.399	21.06
586.593	20.95
586.787	21.3
586.981	21.46
587.174	21.29
587.368	21.43
587.562	21.38
587.756	21.32
587.95	21.12
588.144	21.38
588.338	21.05
588.532	20.88
588.725	20.76
588.919	20.64
589.113	20.74
589.307	20.55
589.501	20.77
589.694	20.77
589.888	20.52
590.082	20.35
590.275	20.3
590.469	20.57
590.663	20.58
590.856	20.78
591.05	20.89
591.244	21.06
591.437	21.43
591.631	21.37
591.824	21.28
592.018	21.45
592.212	21.79
592.405	21.87
592.599	21.71
592.792	21.86
592.986	21.67
593.179	21.54
593.372	21.46
593.566	21.72
593.759	21.48
593.953	21.94
594.146	22.28
594.339	22.34
594.533	22.26
594.726	22.37
594.92	22.44
595.113	22.43
595.306	22.4
595.499	22.48
595.693	22.28
595.886	22.68
596.079	22.93
596.272	22.85
596.466	22.71
596.659	22.71
596.852	22.82
597.045	22.67
597.238	22.97
597.431	22.91
597.624	22.82
597.818	22.78
598.011	22.5
598.204	22.17
598.397	22.05
598.59	22.13
598.783	22.09
598.976	21.92
599.169	22.31
599.362	22.03
599.555	22.1
599.748	22.25
599.941	22.14
600.134	22.43
600.326	22.64
600.519	22.76
600.712	23
600.905	23.25
601.098	23.52
601.291	23.2
601.483	23.82
601.676	23.95
601.869	23.75
602.062	23.82
602.255	23.79
602.447	23.63
602.64	23.57
602.833	23.56
603.025	23.49
603.218	23.54
603.411	23.73
603.603	23.44
603.796	23.46
603.989	23.64
604.181	23.67
604.374	23.79
604.566	23.71
604.759	23.99
604.951	24.2
605.144	24.14
605.336	24.05
605.529	23.78
605.721	23.81
605.914	23.89
606.106	23.96
606.299	23.88
606.491	23.65
606.683	23.79
606.876	23.43
607.068	23.22
607.26	23.36
607.453	23.51
607.645	23.76
607.837	23.61
608.03	23.7
608.222	23.5
608.414	23.63
608.606	23.68
608.799	23.71
608.991	24.01
609.183	23.92
609.375	23.98
609.567	23.69
609.759	23.67
609.952	23.72
610.144	23.68
610.336	23.77
610.528	23.62
610.72	23.65
610.912	23.7
611.104	23.25
611.296	23.21
611.488	23.05
611.68	23.32
611.872	23.35
612.064	23.32
612.256	23.01
612.448	22.82
612.64	23
612.832	22.94
613.023	22.86
613.215	23.31
613.407	23.54
613.599	23.69
613.791	23.4
613.983	23.27
614.174	23.45
614.366	23.67
614.558	23.6
614.75	23.59
614.941	23.57
615.133	23.44
615.325	23.37
615.516	22.94
615.708	22.91
615.9	23.15
616.091	23.63
616.283	23.64
616.475	23.7
616.666	24
616.858	24.07
617.049	24.28
617.241	24.27
617.432	24.37
617.624	24.65
617.815	24.68
618.007	24.73
618.198	24.49
618.39	24.29
618.581	24.49
618.773	24.7
618.964	24.8
619.155	24.62
619.347	24.8
619.538	24.98
619.729	24.82
619.921	24.74
620.112	24.61
620.303	24.53
620.494	24.8
620.686	25.02
620.877	24.92
621.068	25.03
621.259	25.09
621.451	25.18
621.642	24.86
621.833	25.2
622.024	25.16
622.215	25.28
622.406	25.23
622.597	25.09
622.788	24.72
622.98	24.45
623.171	24.38
623.362	24.38
623.553	24.18
623.744	24.15
623.935	24.17
624.126	24.39
624.317	24.65
624.508	24.78
624.698	25.1
624.889	25.19
625.08	25.4
625.271	25.46
625.462	25.58
625.653	25.84
625.844	26.01
626.034	25.92
626.225	26.07
626.416	26.11
626.607	26.38
626.798	26.57
626.988	26.72
627.179	26.73
627.37	26.57
627.56	27.15
627.751	27.01
627.942	26.75
628.132	26.57
628.323	26.32
628.514	25.9
628.704	25.8
628.895	25.76
629.085	25.94
629.276	26.05
629.466	26.29
629.657	25.52
629.847	25.72
630.038	25.98
630.228	26.29
630.419	26.34
630.609	26.51
630.8	26.44
630.99	26
631.181	25.83
631.371	25.98
631.561	26.17
631.752	26.48
631.942	26.67
632.132	26.86
632.323	26.74
632.513	26.79
632.703	26.89
632.893	26.76
633.084	26.91
633.274	26.8
633.464	26.47
633.654	25.79
633.844	25.83
634.034	26.04
634.225	26.09
634.415	26.05
634.605	26.28
634.795	26.53
634.985	26.5
635.175	26.2
635.365	26.27
635.555	26.66
635.745	27.09
635.935	26.83
636.125	26.26
636.315	25.92
636.505	26.23
636.695	26.29
636.885	25.74
637.075	25.91
637.265	26.27
637.455	26.19
637.644	26.03
637.834	26.09
638.024	26.32
638.214	26.21
638.404	26.29
638.593	26.07
638.783	26.04
638.973	26.01
639.163	25.97
639.352	25.96
639.542	25.97
639.732	25.74
639.921	25.58
640.111	25.53
640.301	25.99
640.49	26.26
640.68	26.48
640.87	26.19
641.059	26.33
641.249	26.2
641.438	26.31
641.628	26.52
641.817	26.72
642.007	27.29
642.196	27.37
642.386	26.98
642.575	26.71
642.764	26.46
642.954	26.71
643.143	27.17
643.333	27.44
643.522	27.43
643.711	26.88
643.901	26.6
644.09	26.03
644.279	26.13
644.469	26.3
644.658	26.47
644.847	26.68
645.036	26.43
645.226	26.38
645.415	26.16
645.604	25.98
645.793	25.95
645.982	26.51
646.171	26.46
646.361	26.56
646.55	26.44
646.739	26.15
646.928	26.54
647.117	26.21
647.306	26.28
647.495	26.7
647.684	26.79
647.873	27.07
648.062	26.76
648.251	27
648.44	26.67
648.629	27.04
648.818	27.63
649.007	27.09
649.196	27.29
649.384	27.47
649.573	27.19
649.762	27.3
649.951	27.13
650.14	27.37
650.328	27.13
650.517	27.42
650.706	27.4
650.895	27.13
651.083	26.93
651.272	27.09
651.461	27.13
651.65	27.08
651.838	27.08
652.027	27.31
652.216	27.06
652.404	27.25
652.593	27.14
652.781	27.1
652.97	27.04
653.158	27.43
653.347	27.02
653.535	26.75
653.724	26.68
653.912	26.32
654.101	26.86
654.289	26.69
654.478	26.92
654.666	26.81
654.855	26.76
655.043	26.94
655.231	26.36
655.42	26.51
655.608	26.39
655.796	26.78
655.985	27.05
656.173	26.04
656.361	26.34
656.55	25.96
656.738	25.77
656.926	25.67
657.114	25.64
657.302	26.26
657.491	26.57
657.679	26.5
657.867	26.42
658.055	26.06
658.243	26.53
658.431	26.47
658.619	26.75
658.807	26.9
658.996	27.44
659.184	27.55
659.372	27.13
659.56	27.46
659.748	27.75
659.936	27.67
660.124	28.1
660.311	28.23
660.499	28.6
660.687	28.56
660.875	28.47
661.063	28.26
661.251	27.96
661.439	28.27
661.627	27.91
661.814	27.84
662.002	28.25
662.19	28.22
662.378	27.86
662.565	27.75
662.753	27.87
662.941	28.25
663.129	28.09
663.316	28.29
663.504	28.41
663.692	28.25
663.879	28.29
664.067	27.62
664.254	27.39
664.442	27.57
664.63	27.19
664.817	27.2
665.005	27.2
665.192	27.08
665.38	26.39
665.567	26.02
665.755	26.5
665.942	25.91
666.13	26.18
666.317	26.76
666.504	26.63
666.692	26.84
666.879	26.89
667.067	26.82
667.254	26.84
667.441	27.22
667.629	27.67
667.816	27.44
668.003	27.82
668.19	28.05
668.378	27.31
668.565	27.66
668.752	27.65
668.939	27.28
669.127	27.26
669.314	27.9
669.501	28.27
669.688	28.2
669.875	28.3
670.062	28.7
670.249	28.68
670.436	29.27
670.623	29.17
670.81	29.25
670.997	29.42
671.184	29.31
671.371	28.94
671.558	29.26
671.745	29.48
671.932	28.98
672.119	28.46
672.306	28.26
672.493	28.42
672.68	28.38
672.867	27.76
673.054	27.96
673.24	28.35
673.427	28.43
673.614	27.53
673.801	27.35
673.988	28.3
674.174	28.68
674.361	28.62
674.548	29.08
674.734	28.99
674.921	29.86
675.108	29.54
675.294	29.18
675.481	28.76
675.668	29.52
675.854	29.62
676.041	29.07
676.227	29.12
676.414	29.46
676.601	28.68
676.787	28.17
676.974	27.66
677.16	27.34
677.347	27.31
677.533	27.52
677.719	27.48
677.906	27.72
678.092	27.65
678.279	27.5
678.465	27.44
678.651	27.97
678.838	28.48
679.024	28.35
679.21	28.98
679.397	29.26
679.583	29.67
679.769	29.51
679.955	29.09
680.142	29.17
680.328	29.05
680.514	28.76
680.7	28.37
680.886	28.05
681.073	28.71
681.259	28.88
681.445	28.98
681.631	28.56
681.817	28.77
682.003	28.75
682.189	28.99
682.375	29.75
682.561	30.35
682.747	30.19
682.933	30.56
683.119	30.38
683.305	30.17
683.491	29.56
683.677	29.51
683.863	29.24
684.049	29.19
684.235	29.24
684.42	28.91
684.606	28.65
684.792	28.95
684.978	29.17
685.164	28.88
685.349	28.51
685.535	28.6
685.721	29.2
685.907	29.96
686.092	30.77
686.278	30.99
686.464	30.62
686.649	30.33
686.835	30.29
687.021	30.06
687.206	30.63
687.392	30.83
687.577	30.9
687.763	30.94
687.948	30.09
688.134	29.57
688.319	29.03
688.505	28.96
688.69	29.13
688.876	28.95
689.061	29.36
689.247	29.06
689.432	29.52
689.618	30.06
689.803	30.09
689.988	30.18
690.174	29.62
690.359	30.03
690.544	29.49
690.73	29.93
690.915	29.93
691.1	29.79
691.285	29.87
691.471	29.75
691.656	29.65
691.841	29.4
692.026	29.97
692.211	30.19
692.396	29.95
692.582	30.76
692.767	30.42
692.952	30.27
693.137	30.64
693.322	30.43
693.507	30.4
693.692	29.98
693.877	29.87
694.062	30.2
694.247	30.95
694.432	31.53
694.617	31.69
694.802	31.6
694.987	32.05
695.172	31.55
695.357	31.45
695.541	31.72
695.726	31.23
695.911	31.06
696.096	30.44
696.281	30.12
696.466	29.32
696.65	28.83
696.835	29.14
697.02	29.39
697.204	29.41
697.389	29.23
697.574	28.89
697.759	29.43
697.943	29.51
698.128	29.56
698.312	29.63
698.497	29.76
698.682	29.93
698.866	30.07
699.051	30.03
699.235	30.08
699.42	30.13
699.604	29.79
699.789	29.82
699.973	29.73
700.158	29.73
700.342	30.05
700.527	30.52
700.711	30.56
700.895	30
701.08	29.87
701.264	29.63
701.448	29.52
701.633	30.1
701.817	30.29
702.001	30.24
702.186	29.88
702.37	29.57
702.554	29.77
702.738	29.92
702.923	29.59
703.107	29.44
703.291	29.69
703.475	30.04
703.659	29.6
703.843	29.16
704.027	29.14
704.212	30.03
704.396	29.8
704.58	29.27
704.764	28.37
704.948	28.96
705.132	28.29
705.316	28.24
705.5	28.51
705.684	28.28
705.868	29.21
706.052	28.8
706.235	28
706.419	27.7
706.603	27.84
706.787	29.34
706.971	29.32
707.155	29.66
707.339	29.48
707.522	28.73
707.706	28.92
707.89	27.96
708.074	27.77
708.257	28.03
708.441	28.13
708.625	27.82
708.808	27.44
708.992	27.17
709.176	27.28
709.359	27.47
709.543	28.17
709.727	28.36
709.91	28.73
710.094	29.27
710.277	29.42
710.461	30.26
710.644	30.72
710.828	29.95
711.011	30.13
711.195	30.58
711.378	31.06
711.562	31.22
711.745	31.46
711.928	31.62
712.112	31.83
712.295	31.96
712.478	31.27
712.662	31.09
712.845	31.68
713.028	32.22
713.212	31.93
713.395	31.29
713.578	31.53
713.761	31.76
713.945	31.49
714.128	31.23
714.311	30.69
714.494	31.43
714.677	31.27
714.86	31.85
715.043	30.6
715.227	30.35
715.41	29.98
715.593	29.54
715.776	29.28
715.959	29.19
716.142	29.39
716.325	29.85
716.508	29.59
716.691	29.32
716.874	28.91
717.057	29.79
717.239	30.45
717.422	31.44
717.605	31.91
717.788	32.44
717.971	33.34
718.154	33.36
718.337	33.33
718.519	33.15
718.702	33.52
718.885	32.94
719.068	33.04
719.25	33.59
719.433	33.6
719.616	33.17
719.798	31.61
719.981	31.14
720.164	31.75
720.346	31.93
720.529	33.03
720.712	32.12
720.894	32.49
721.077	33.41
721.259	32.41
721.442	31.92
721.624	32.16
721.807	33.19
721.989	32.9
722.172	31.87
722.354	31.04
722.537	29.79
722.719	30.39
722.901	29.05
723.084	28.3
723.266	28.02
723.448	29.38
723.631	28.21
723.813	27.92
723.995	28.3
724.178	28.41
724.36	29.26
724.542	29.75
724.724	30.29
724.907	32.26
725.089	32.12
725.271	32.46
725.453	31.57
725.635	32.11
725.817	33.05
725.999	32.47
726.181	33.89
726.364	33.35
726.546	32.98
726.728	32.64
726.91	31.93
727.092	32.17
727.274	32.28
727.456	32.91
727.638	32.63
727.819	32.2
728.001	32.42
728.183	31.85
728.365	31.4
728.547	30.71
728.729	31.17
728.911	31.61
729.093	30.49
729.274	30.52
729.456	29.71
729.638	30.36
729.82	30.52
730.001	30.42
730.183	30.2
730.365	31.47
730.546	32.21
730.728	31.45
730.91	31.5
731.091	33.17
731.273	33.11
731.455	32.42
731.636	31.95
731.818	31.6
731.999	31.61
732.181	31.99
732.362	32.08
732.544	31.8
732.725	31.75
732.907	31.27
733.088	30.08
733.27	30.19
733.451	31.16
733.633	31.57
733.814	31.7
733.995	30.85
734.177	30.73
734.358	29.5
734.539	30.86
734.721	31.54
734.902	30.81
735.083	30.71
735.264	31.55
735.446	30.45
735.627	30.32
735.808	29.44
735.989	30.37
736.17	29.43
736.351	30.64
736.533	29
736.714	27.06
736.895	27.98
737.076	28.14
737.257	27.2
737.438	27.68
737.619	27.67
737.8	28.73
737.981	29.29
738.162	29.45
738.343	29.2
738.524	29.29
738.705	31.72
738.886	31.27
739.067	31.65
739.247	31.79
739.428	31.98
739.609	31.55
739.79	31.44
739.971	31.3
740.151	32.44
740.332	31.64
740.513	32.2
740.694	31.34
740.874	32.18
741.055	31.86
741.236	31.55
741.417	32.45
741.597	32.69
741.778	32.59
741.958	32.76
742.139	32.35
742.32	32.57
742.5	31.52
742.681	32.44
742.861	32.47
743.042	33.43
743.222	34.24
743.403	32.73
743.583	33.39
743.764	32.81
743.944	32.07
744.124	31.92
744.305	34.24
744.485	35.34
744.666	35.59
744.846	35.05
745.026	34.7
745.207	34
745.387	35.31
745.567	34.72
745.747	35.25
745.928	34.84
746.108	35.16
746.288	33.18
746.468	32.92
746.648	31.67
746.829	30.89
747.009	30.49
747.189	30.86
747.369	29.93
747.549	29.58
747.729	30.99
747.909	30.38
748.089	30.16
748.269	30.23
748.449	30.91
748.629	31.62
748.809	32.83
748.989	33.66
749.169	33.26
749.349	34.09
749.529	34.22
749.709	33.26
749.889	34.68
750.068	34.07
750.248	34.32
750.428	34.43
750.608	33.94
750.788	33.84
750.967	33.12
751.147	32.31
751.327	31.96
751.507	30.72
751.686	30.15
751.866	30.31
752.046	30.65
752.225	30.43
752.405	30.03
752.585	30.24
752.764	30.29
752.944	30.46
753.123	32.16
753.303	32.15
753.482	32.7
753.662	33.76
753.841	33.48
754.021	33.88
754.2	33.43
754.38	32.49
754.559	33.63
754.739	32.64
754.918	33.78
755.097	33.11
755.277	32.93
755.456	34.3
755.635	34.2
755.815	34.68
755.994	33.97
756.173	35.13
756.352	34.73
756.532	34.17
756.711	35.77
756.89	35.36
757.069	36.19
757.248	35.42
757.427	36.4
757.607	36.06
757.786	35.46
757.965	35.46
758.144	33.71
758.323	33.73
758.502	33.12
758.681	32.12
758.86	29.63
759.039	28.68
759.218	28.41
759.397	25.59
759.576	23.71
759.755	23.62
759.934	22.6
760.113	22.67
760.291	23.55
760.47	23.12
760.649	24.02
760.828	24.89
761.007	25.62
761.186	26.28
761.364	27.2
761.543	28.85
761.722	28.69
761.901	31.36
762.079	32.22
762.258	33.09
762.437	33.94
762.615	33.49
762.794	34.57
762.972	33.01
763.151	33.57
763.33	34.3
763.508	33.6
763.687	33.4
763.865	33.27
764.044	33.11
764.222	33.06
764.401	32.49
764.579	32.55
764.758	31.48
764.936	32.38
765.114	33.05
765.293	32.26
765.471	32.69
765.65	33.68
765.828	32.73
766.006	33.77
766.184	31.91
766.363	32.38
766.541	32.69
766.719	34.72
766.898	35.1
767.076	33.79
767.254	34.38
767.432	35.05
767.61	34.64
767.788	34.24
767.967	32.84
768.145	33.59
768.323	33.19
768.501	31.05
768.679	28.54
768.857	29.05
769.035	29.04
769.213	31.48
769.391	30.88
769.569	30.47
769.747	31.99
769.925	33.49
770.103	35.41
770.281	36.08
770.459	38.94
770.636	40.71
770.814	41.86
770.992	40.59
771.17	38.81
771.348	40.54
771.525	40.26
771.703	39.99
771.881	38.45
772.059	37.21
772.236	37.26
772.414	37.22
772.592	36.33
772.769	32.96
772.947	37.51
773.125	37.31
773.302	35.93
773.48	36.5
773.657	36.62
773.835	36.26
774.013	35.99
774.19	35.3
774.368	32.97
774.545	32.29
774.723	32.34
774.9	30.56
775.077	30.4
775.255	28.83
775.432	29.3
775.61	26.39
775.787	28.25
775.964	28.39
776.142	26.69
776.319	27.86
776.496	29.39
776.674	31.11
776.851	30.03
777.028	28.48
777.205	29.35
777.382	29.71
777.56	31.95
777.737	30.61
777.914	32
778.091	32.21
778.268	34.18
778.445	34.35
778.622	35.21
778.8	36.41
778.977	37.44
779.154	37.88
779.331	35.49
779.508	34.39
779.685	35.33
779.862	32.8
780.038	33.36
780.215	32.44
780.392	30.56
780.569	28.21
780.746	25.92
780.923	27.84
781.1	27.01
781.277	28.18
781.453	27.7
781.63	26.03
781.807	27
781.984	27.82
782.16	27.28
782.337	30.26
782.514	31.85
782.691	31.9
782.867	27.52
783.044	29.41
783.221	30.3
783.397	34.06
783.574	35.85
783.75	35.33
783.927	33.93
784.103	35.18
784.28	34.16
784.456	34.6
784.633	34.78
784.809	36.52
784.986	36.89
785.162	36.76
785.339	35.64
785.515	33.71
785.692	32.61
785.868	33.43
786.044	30.54
786.221	28.5
786.397	29.78
786.573	30
786.749	30.78
786.926	31.01
787.102	29.43
787.278	27.9
787.454	31.28
787.631	33.69
787.807	35.36
787.983	36.92
788.159	38.41
788.335	35.73
788.511	35.77
788.687	35.71
788.863	36.95
789.039	38.33
789.216	40.09
789.392	38.97
789.568	36.91
789.744	36.29
789.919	37.63
790.095	36.41
790.271	36.66
790.447	35.76
790.623	37.14
790.799	34.35
790.975	33.35
791.151	33.37
791.327	34.38
791.502	37.82
791.678	41.24
791.854	36.93
792.03	37.28
792.205	38.69
792.381	38.59
792.557	39.14
792.733	39.96
792.908	41.56
793.084	41.18
793.259	39.95
793.435	38.3
793.611	34.32
793.786	36.91
793.962	39.03
794.137	38.53
794.313	40.48
794.488	36.1
794.664	34.57
794.839	33.28
795.015	33.52
795.19	33.7
795.366	32.19
795.541	31.34
795.716	28.91
795.892	26.42
796.067	27.06
796.242	24.96
796.418	29.29
796.593	31.14
796.768	29.79
796.944	30.82
797.119	30.48
797.294	32.42
797.469	32.48
797.644	34.63
797.82	33.01
797.995	32.03
798.17	35.63
798.345	31.61
798.52	31.46
798.695	29.93
798.87	25.22
799.045	26.36
799.22	28.9
799.395	31.28
799.57	33.42
799.745	34.17
799.92	34.09
800.095	31.32
800.27	34.07
800.445	32.94
800.62	36.46
800.795	36.05
800.97	35.79
801.145	33.36
801.319	31.41
801.494	27.21
801.669	29.6
801.844	29.26
802.018	30.78
802.193	27.51
802.368	28.61
802.543	26.18
802.717	32.48
802.892	33.34
803.067	33.65
803.241	35.77
803.416	40.13
803.59	41.25
803.765	43.61
803.94	41.36
804.114	44.25
804.289	45.42
804.463	44.47
804.638	41.53
804.812	39.67
804.986	39.46
805.161	39.25
805.335	37.45
805.51	34.8
805.684	31.12
805.858	31.66
806.033	31.82
806.207	33.37
806.381	33.52
806.556	35.68
806.73	36.35
806.904	37.51
807.078	38.18
807.253	36.52
807.427	38
807.601	39.74
807.775	40.53
807.949	38.63
808.123	32.89
808.298	33.05
808.472	28.31
808.646	30.08
808.82	27.35
808.994	28.76
809.168	29.86
809.342	28.36
809.516	27.02
809.69	31.09
809.864	31.31
810.038	35.5
810.212	38.01
810.385	42.19
810.559	38.53
810.733	40.61
810.907	39.09
811.081	40.67
811.255	43.45
811.428	41.53
811.602	36.1
811.776	35.33
811.95	32.54
812.123	32.11
812.297	31.78
812.471	36.7
812.644	38.47
812.818	38.08
812.992	40.02
813.165	38.07
813.339	38.74
813.512	38.77
813.686	39.24
813.86	39.3
814.033	35.75
814.207	37.63
814.38	38.31
814.554	34.97
814.727	30.34
814.9	30.52
815.074	30.11
815.247	29.86
815.421	30.71
815.594	36.48
815.767	36.9
815.941	39.83
816.114	36.66
816.287	34.34
816.46	31.04
816.634	35.68
816.807	33.36
816.98	36.5
817.153	41
817.327	41.78
817.5	36.55
817.673	36.27
817.846	33.48
818.019	34.56
818.192	36.83
818.365	42.55
818.538	35.22
818.711	33.85
818.884	30.45
819.057	27.66
819.23	28.6
819.403	25.36
819.576	26.9
819.749	32.28
819.922	31.04
820.095	27.8
820.268	31.26
820.441	34.95
820.614	34.32
820.786	36
820.959	36.02
821.132	32.82
821.305	34.48
821.477	35.97
821.65	33.7
821.823	34.75
821.996	33.94
822.168	33.28
822.341	34.13
822.514	33.81
822.686	33.09
822.859	33.07
823.031	33.93
823.204	34.6
823.376	33.41
823.549	33.68
823.722	32.58
823.894	33.5
824.067	33
824.239	33.15
824.411	33.93
824.584	34.53
824.756	35.58
824.929	35.76
825.101	35.41
825.273	35.94
825.446	35.76
825.618	37.26
825.79	37.44
825.963	37.31
826.135	35.9
826.307	35.32
826.479	34.29
826.652	33.63
826.824	34.43
826.996	33.5
827.168	33.91
827.34	34.48
827.512	34.16
827.684	34.32
827.856	33.76
828.029	32.84
828.201	32.95
828.373	33.18
828.545	32.02
828.717	31.75
828.889	31.67
829.061	31.12
829.232	29.32
829.404	27.97
829.576	28.09
829.748	28.07
829.92	29.3
830.092	30.58
830.264	31.73
830.436	33.13
830.607	30.51
830.779	30.64
830.951	31.49
831.123	32.41
831.294	34.79
831.466	35.73
831.638	34.77
831.809	32.08
831.981	31.55
832.153	30.87
832.324	30.86
832.496	31.14
832.667	31.42
832.839	31.3
833.011	29.38
833.182	27.02
833.354	24.96
833.525	26.78
833.697	28.83
833.868	27.79
834.039	28
834.211	26.57
834.382	27.93
834.554	27.1
834.725	25.41
834.896	26.56
835.068	27.85
835.239	29.34
835.41	28.19
835.581	29.44
835.753	29.59
835.924	32.54
836.095	35.66
836.266	34.04
836.438	35.65
836.609	35.27
836.78	39.4
836.951	38.26
837.122	33.96
837.293	33.73
837.464	35.91
837.635	37.2
837.806	31.11
837.977	28.5
838.148	32.94
838.319	31.33
838.49	36.9
838.661	32.37
838.832	36.19
839.003	40.79
839.174	40.74
839.345	38.97
839.516	37.86
839.687	40.72
839.857	42.28
840.028	41.39
840.199	39.54
840.37	36.44
840.54	38.63
840.711	33.86
840.882	33.11
841.053	35.42
841.223	30.32
841.394	31.98
841.564	30.22
841.735	30.32
841.906	24.66
842.076	28.24
842.247	29.38
842.417	29.11
842.588	32.32
842.758	28.98
842.929	29.32
843.099	33.08
843.27	35.77
843.44	27.39
843.611	23.81
843.781	32.89
843.951	37.49
844.122	41.27
844.292	34.94
844.462	41.95
844.633	37.69
844.803	37.1
844.973	31.16
845.144	32.08
845.314	41.04
845.484	44.02
845.654	37.79
845.824	26.26
845.995	7.57
846.165	-0.19
846.335	-14.97
846.505	-2.17
846.675	7.77
846.845	11.78
847.015	6.36
847.185	15.93
847.355	17.91
847.525	9.6
847.695	19.77
847.865	28.61
848.035	38.58
848.205	48.07
848.375	49.83
848.545	41.56
848.715	44.05
848.884	46.35
849.054	44.83
849.224	41.55
849.394	47.61
849.564	32.84
849.733	24.3
849.903	21.98
850.073	28.18
850.243	33.72
850.412	38.23
850.582	34.37
850.752	37.19
850.921	33.25
851.091	31.26
851.26	44.06
851.43	47.9
851.599	58.14
851.769	69.42
851.939	63.02
852.108	55.07
852.278	66.59
852.447	79.63
852.616	81.97
852.786	89.55
852.955	94.85
853.125	93.06
853.294	98.84
853.463	84.92
853.633	66.52
853.802	59.98
853.971	65.13
854.141	51.79
854.31	27.86
854.479	35.46
854.648	30.95
854.818	13.22
854.987	27.99
855.156	35.12
855.325	32.48
855.494	30.95
855.663	35.74
855.832	37.78
856.001	39.84
856.171	53.8
856.34	49.56
856.509	51.96
856.678	70.31
856.847	68.31
857.016	61.29
857.185	64.37
857.353	75.32
857.522	74.47
857.691	65.46
857.86	63.81
858.029	76.42
858.198	79.71
858.367	82.11
858.535	72.32
858.704	70.7
858.873	61.18
859.042	57.46
859.21	48.41
859.379	49.89
859.548	61.73
859.717	53.38
859.885	36.63
860.054	18.91
860.222	16.54
860.391	21.63
860.56	20.65
860.728	21.45
860.897	31.62
861.065	28.09
861.234	26.21
861.402	29.39
861.571	37.46
861.739	29.29
861.908	39.61
862.076	43.64
862.244	53.64
862.413	65.78
862.581	92.98
862.749	83.87
862.918	83.89
863.086	74.78
863.254	69.76
863.423	63.6
863.591	72.41
863.759	65.37
863.927	70.44
864.096	59.17
864.264	49.06
864.432	45.94
864.6	36.28
864.768	32.62
864.936	36.16
865.104	27.62
865.272	19.91
865.44	26.02
865.608	21.07
865.776	16.22
865.944	17.42
866.112	29.51
866.28	25.14
866.448	20.88
866.616	25.67
866.784	29.2
866.952	38.94
867.12	44.69
867.288	28.35
867.455	30.15
867.623	27.39
867.791	53.23
867.959	48.43
868.127	51.32
868.294	65.89
868.462	58.86
868.63	58.77
868.797	64.43
868.965	64.9
869.133	59.35
869.3	58.78
869.468	61.86
869.636	47.57
869.803	31.41
869.971	29.68
870.138	14.07
870.306	12.72
870.473	-6.6
870.641	10.39
870.808	-5.2
870.975	9.69
871.143	-0.09
871.31	-22.95
871.478	-25.05
871.645	8.78
871.812	19.69
871.98	34.58
872.147	21.98
872.314	21.59
872.482	18.03
872.649	20.5
872.816	18.93
872.983	19.75
873.15	18.78
873.318	18.55
873.485	47.48
873.652	36.37
873.819	29.5
873.986	41.57
874.153	51.41
874.32	61.82
874.487	65.21
874.654	70.04
874.821	84.19
874.988	78.35
875.155	74.99
875.322	51.36
875.489	42.2
875.656	34.89
875.823	39.68
875.99	38.21
876.157	21.75
876.324	13.41
876.49	14.77
876.657	1.32
876.824	12.14
876.991	9.56
877.157	17.74
877.324	28.18
877.491	38.55
877.658	39.44
877.824	38.06
877.991	43.34
878.157	53.34
878.324	47.4
878.491	44.12
878.657	49.47
878.824	51.86
878.99	52.94
879.157	51.98
879.323	48.65
879.49	56.86
879.656	62.19
879.823	54.94
879.989	49.8
880.156	55.36
880.322	76.88
880.488	75.27
880.655	86.82
880.821	83.07
880.987	69.79
881.154	64.05
881.32	51.73
881.486	44.39
881.652	49.07
881.819	41.47
881.985	42.46
882.151	38.52
882.317	38.38
882.483	33.54
882.649	31.8
882.816	37.38
882.982	36.97
883.148	35.01
883.314	36.28
883.48	35.69
883.646	40.86
883.812	37.31
883.978	37.87
884.144	39.5
884.31	43.02
884.476	41.42
884.642	40.54
884.807	42.77
884.973	44.84
885.139	45.96
885.305	48.16
885.471	49.42
885.637	54.45
885.802	54.43
885.968	52.74
886.134	52.39
886.3	55.21
886.465	53.92
886.631	52.66
886.797	48.84
886.962	50.55
887.128	44.57
887.293	34.79
887.459	32.64
887.625	35.06
887.79	27.95
887.956	28.88
888.121	28.79
888.287	26.8
888.452	26.42
888.618	33.66
888.783	31.1
