Data from 2937808_Reflection_1.txt Node
Date: Wed Jul 15 17:52:39 EDT 2015
User: robert
Spectrometer: USB4E03001
Autoset integration time: false
Trigger mode: 4
Integration Time (sec): 1.000000E-1
Scans to average: 10
Electric dark correction enabled: true
Nonlinearity correction enabled: false
Boxcar width: 5
Stray light correction enabled: false
XAxis mode: Wavelengths
Stop averaging: false
Number of Pixels in Spectrum: 3648
>>>>>Begin Spectral Data<<<<<
177.566	-26.2
177.785	-81.93
178.005	-125
178.225	-1420.67
178.445	734.99
178.665	502.09
178.885	552.34
179.105	90.69
179.324	119.04
179.544	71.73
179.764	40.48
179.984	11.98
180.204	-8.91
180.423	-14.99
180.643	-45.79
180.863	-11.97
181.083	47.85
181.302	35.05
181.522	48.48
181.742	16.21
181.961	14760
182.181	281.64
182.401	115.85
182.621	182.83
182.84	62.23
183.06	89.26
183.279	71.75
183.499	84.06
183.719	38.27
183.938	40.43
184.158	42.22
184.377	-55.04
184.597	-294.1
184.816	699.32
185.036	466.82
185.256	105.86
185.475	124.7
185.695	139.53
185.914	176.08
186.134	108.09
186.353	120.67
186.572	113.48
186.792	85.27
187.011	117.96
187.231	114.6
187.45	115.86
187.67	189.84
187.889	304.14
188.108	143.59
188.328	102.49
188.547	184.87
188.766	144.18
188.986	138.04
189.205	164.19
189.424	126.62
189.644	117.42
189.863	139.18
190.082	127.66
190.302	76.67
190.521	61.4
190.74	33.98
190.959	-33.45
191.178	-102.29
191.398	-229.1
191.617	39.03
191.836	35.08
192.055	63.76
192.274	54.34
192.494	2.46
192.713	35.98
192.932	83.59
193.151	98.86
193.37	94.58
193.589	56.57
193.808	48.75
194.027	-26.27
194.246	9.91
194.465	-4.74
194.685	3.66
194.904	68.56
195.123	75.75
195.342	42.56
195.561	-21.18
195.78	1688.16
195.999	-379.84
196.218	192.6
196.436	183.48
196.655	113.93
196.874	89.77
197.093	99.39
197.312	184.01
197.531	511.93
197.75	-23.07
197.969	39.21
198.188	85.35
198.407	70.15
198.625	52.94
198.844	66.5
199.063	54.95
199.282	62.46
199.501	39.34
199.719	54.62
199.938	55.91
200.157	44.13
200.376	58.89
200.594	49.37
200.813	87.36
201.032	75.8
201.251	-69.25
201.469	-296.47
201.688	-218.41
201.907	-264.69
202.125	-344.49
202.344	-1718.26
202.563	-909.37
202.781	-550.92
203	-836.45
203.218	-777.89
203.437	5208.82
203.656	203.6
203.874	146.66
204.093	107.58
204.311	82.15
204.53	56.93
204.748	38.34
204.967	44.06
205.185	53.79
205.404	58.17
205.622	56.87
205.841	69.02
206.059	163.16
206.278	435.67
206.496	187.06
206.715	238.33
206.933	378.85
207.151	2328.86
207.37	-153.53
207.588	-343.35
207.806	138.44
208.025	94.72
208.243	35.44
208.461	-24.17
208.68	82.94
208.898	186.66
209.116	-486.04
209.335	498.89
209.553	596.19
209.771	294.6
209.989	-605.57
210.208	21.27
210.426	-142.36
210.644	5766.36
210.862	1447.3
211.081	387.22
211.299	287.37
211.517	-2153.07
211.735	23925
211.953	663.13
212.171	693.9
212.39	1822.64
212.608	1211.35
212.826	1421.04
213.044	-319.55
213.262	-934.04
213.48	-5761.26
213.698	-1831.25
213.916	338.12
214.134	266.19
214.352	501.49
214.57	-5079.59
214.788	-1753.02
215.006	4944.33
215.224	1402.26
215.442	332.9
215.66	491.35
215.878	605.13
216.096	-709.76
216.314	-125.44
216.532	-71.73
216.75	-45.07
216.968	-199.92
217.185	-89.98
217.403	-85.06
217.621	-35.32
217.839	-6.73
218.057	-8.96
218.275	-40.65
218.492	-475.48
218.71	775.16
218.928	380.93
219.146	370.34
219.363	402.94
219.581	257.89
219.799	818.25
220.017	2438.67
220.234	-3105.23
220.452	-4105.45
220.67	2174.53
220.887	-347.24
221.105	-168.37
221.323	-31.88
221.54	-34.49
221.758	-32.34
221.976	-573.67
222.193	155.96
222.411	104.15
222.629	98.98
222.846	131.1
223.064	130.46
223.281	122.97
223.499	121.32
223.716	80.49
223.934	67.35
224.151	41.17
224.369	31.1
224.586	43.15
224.804	83.06
225.021	73.05
225.239	34.99
225.456	44.73
225.674	60.76
225.891	62.89
226.108	108.8
226.326	78.17
226.543	2684.58
226.76	-196.43
226.978	-69.45
227.195	-97.48
227.413	-65.4
227.63	-27.64
227.847	-7.7
228.064	-6.3
228.282	-10.99
228.499	-5.91
228.716	-14.19
228.934	-6.76
229.151	-3.69
229.368	-5.22
229.585	-4.02
229.802	-1.11
230.02	-2.04
230.237	0.78
230.454	-2.97
230.671	0.99
230.888	-11.1
231.105	-5.3
231.323	-17.4
231.54	-5.7
231.757	-4.26
231.974	-6.06
232.191	-19.73
232.408	-13.96
232.625	-13.77
232.842	-7.81
233.059	-29.88
233.276	-20.99
233.493	-40.31
233.71	-28.12
233.927	-42.47
234.144	-22.75
234.361	-19.58
234.578	-19.17
234.795	-30.67
235.012	-16.65
235.229	-18.89
235.446	-6.79
235.663	-0.89
235.879	2.44
236.096	-0.19
236.313	-12.97
236.53	-14.72
236.747	-19.79
236.964	-13.65
237.181	-5.38
237.397	-23.32
237.614	-23.15
237.831	-9.22
238.048	-29.11
238.264	-33.16
238.481	-21.42
238.698	-3.68
238.915	1.4
239.131	4.99
239.348	14.12
239.565	14.81
239.781	13.67
239.998	11.28
240.215	6.11
240.431	10.44
240.648	13.36
240.865	14.17
241.081	12.85
241.298	9.57
241.514	10.51
241.731	5.7
241.947	-0.29
242.164	0.89
242.38	5.22
242.597	6.35
242.814	10.22
243.03	10.74
243.246	12.11
243.463	12.97
243.679	13.93
243.896	13.46
244.112	14.18
244.329	18.29
244.545	19.91
244.762	18.73
244.978	16.04
245.194	15.32
245.411	15.61
245.627	14.64
245.843	13.22
246.06	14.48
246.276	16.51
246.492	16.09
246.709	15.99
246.925	15.11
247.141	15.26
247.357	15.81
247.574	16.74
247.79	15.5
248.006	15.56
248.222	16.45
248.439	14.73
248.655	13.93
248.871	13.93
249.087	11.86
249.303	14.28
249.519	14.38
249.736	15.09
249.952	14.53
250.168	14.76
250.384	11.56
250.6	12.16
250.816	14.46
251.032	17.2
251.248	16.37
251.464	20.22
251.68	14.1
251.896	16.12
252.112	14.76
252.328	8.33
252.544	4.94
252.76	6.16
252.976	5.6
253.192	6.73
253.408	4.47
253.624	3.27
253.84	3.27
254.056	6.42
254.272	-1.17
254.487	-2
254.703	2.75
254.919	10.4
255.135	10.21
255.351	11.33
255.567	6.38
255.782	4.92
255.998	8
256.214	9.2
256.43	7.92
256.646	6.25
256.861	4.09
257.077	4.54
257.293	2.1
257.508	2.44
257.724	-2.08
257.94	-4.25
258.155	-5.05
258.371	-7.79
258.587	-5.01
258.802	-4.86
259.018	0.67
259.234	4.62
259.449	3.82
259.665	4.5
259.88	6.86
260.096	9.54
260.312	10.19
260.527	11.17
260.743	12.81
260.958	10.59
261.174	9.59
261.389	8.92
261.605	6.62
261.82	7.66
262.036	8.33
262.251	4.7
262.466	1.88
262.682	4.13
262.897	2.39
263.113	2.08
263.328	3.1
263.543	6.21
263.759	2.96
263.974	4.88
264.189	6.48
264.405	8.75
264.62	10.34
264.835	8.3
265.051	4
265.266	6.64
265.481	3.17
265.696	5.48
265.912	4.46
266.127	5.88
266.342	4.49
266.557	2.27
266.773	-2.47
266.988	-0.41
267.203	-0.57
267.418	-0.58
267.633	-1.29
267.848	-0.61
268.064	-3
268.279	-1.57
268.494	-1.98
268.709	-1.95
268.924	-1.27
269.139	3.56
269.354	1.39
269.569	2.71
269.784	3.88
269.999	2.5
270.214	2.19
270.429	3.3
270.644	1.79
270.859	3.48
271.074	6.49
271.289	6.06
271.504	3.48
271.719	4.21
271.934	6.13
272.149	6.14
272.363	6.9
272.578	7.2
272.793	7.08
273.008	8.56
273.223	7.11
273.438	6.59
273.653	8.11
273.867	8.49
274.082	7.91
274.297	6.94
274.512	5.58
274.726	7.23
274.941	8.25
275.156	9.31
275.371	8.57
275.585	11.57
275.8	7.83
276.015	3.8
276.229	1.94
276.444	3.12
276.659	2.94
276.873	4.32
277.088	2.7
277.302	2.78
277.517	0.67
277.732	-3.31
277.946	-6.26
278.161	-7.01
278.375	-4.29
278.59	-4.78
278.804	-4.96
279.019	-4.87
279.233	-7.01
279.448	-9.61
279.662	-7.18
279.877	-2.92
280.091	-0.52
280.306	2.56
280.52	6.86
280.735	4.49
280.949	4.76
281.163	4.48
281.378	3.27
281.592	3.3
281.806	5.43
282.021	5.09
282.235	1.87
282.449	4.47
282.664	4.65
282.878	6.72
283.092	10.2
283.307	10.15
283.521	9.79
283.735	12.31
283.949	15.37
284.164	15.78
284.378	14.72
284.592	17.62
284.806	15.79
285.02	15.79
285.234	12.19
285.449	12.22
285.663	12.21
285.877	12.28
286.091	11.05
286.305	10.28
286.519	9.22
286.733	10.13
286.947	7.81
287.161	9.99
287.375	9.34
287.589	9.97
287.803	9.02
288.017	9.02
288.231	9.62
288.445	6.03
288.659	5.32
288.873	5.85
289.087	4.4
289.301	4.68
289.515	4.31
289.729	4.38
289.943	3.96
290.157	4.37
290.371	3.97
290.584	2.61
290.798	6.73
291.012	7.61
291.226	7.9
291.44	6.16
291.654	7.63
291.867	6.77
292.081	5.7
292.295	4.69
292.509	4.86
292.722	4.75
292.936	5.77
293.15	5.59
293.364	6.48
293.577	6.04
293.791	7.38
294.005	6.39
294.218	8.25
294.432	7.83
294.645	11.1
294.859	10.4
295.073	13.35
295.286	13.03
295.5	12.78
295.713	12.31
295.927	12.43
296.14	15.14
296.354	15.07
296.568	14.14
296.781	14.4
296.994	15.3
297.208	14.98
297.421	14.16
297.635	14.29
297.848	12.49
298.062	10.89
298.275	10.96
298.489	9.95
298.702	8.46
298.915	8.81
299.129	9.89
299.342	6.54
299.555	6.92
299.769	6.26
299.982	7.75
300.195	9.18
300.409	10.41
300.622	9.36
300.835	7.47
301.048	6.12
301.262	3.16
301.475	2.13
301.688	2.39
301.901	3.29
302.115	1.85
302.328	1.7
302.541	-0.12
302.754	-1.83
302.967	1.94
303.18	2.94
303.393	6.34
303.607	9.04
303.82	10.94
304.033	12.77
304.246	12.22
304.459	14.75
304.672	12.7
304.885	15.56
305.098	18.42
305.311	14.26
305.524	14.16
305.737	12.96
305.95	13.68
306.163	11.49
306.376	11.34
306.589	12.45
306.802	11.33
307.015	13.52
307.228	11.77
307.44	9.88
307.653	13.59
307.866	14.55
308.079	15.16
308.292	13.76
308.505	13.1
308.718	12.89
308.93	14.53
309.143	15.11
309.356	15.2
309.569	14.67
309.781	15.47
309.994	13.38
310.207	11.97
310.42	12.63
310.632	12.39
310.845	14.24
311.058	14.46
311.27	10.85
311.483	9.3
311.696	9.91
311.908	9.72
312.121	7.36
312.333	7.48
312.546	9.78
312.759	7.91
312.971	7.69
313.184	3.78
313.396	-0.69
313.609	-0.06
313.821	2.25
314.034	-0.9
314.246	0.43
314.459	4.66
314.671	2.43
314.884	-1.56
315.096	-0.64
315.309	-0.13
315.521	5.05
315.733	9.08
315.946	10.62
316.158	9.3
316.371	8.34
316.583	8.59
316.795	8.05
317.008	11.8
317.22	11.29
317.432	11.42
317.644	11.09
317.857	7.24
318.069	2.98
318.281	5.36
318.494	3.84
318.706	7.91
318.918	5.21
319.13	3.86
319.342	2.76
319.555	3.76
319.767	5.89
319.979	7.56
320.191	8.35
320.403	10.43
320.615	9.81
320.827	10.91
321.039	3.87
321.252	5.54
321.464	3.24
321.676	7.04
321.888	8.04
322.1	6.53
322.312	6.7
322.524	4.91
322.736	5.82
322.948	1.46
323.16	1.94
323.372	5.54
323.584	5.51
323.796	7.21
324.007	5.86
324.219	7.55
324.431	6.09
324.643	5.02
324.855	7.45
325.067	9.65
325.279	11.99
325.491	11.87
325.702	11.39
325.914	11.02
326.126	10.97
326.338	10.13
326.55	10.66
326.761	10.39
326.973	11.24
327.185	10.7
327.396	7.54
327.608	6.08
327.82	5.79
328.032	8.18
328.243	9.25
328.455	6.28
328.666	7.46
328.878	5.94
329.09	6.4
329.301	6.21
329.513	6.59
329.725	7.54
329.936	8.85
330.148	7.79
330.359	6.71
330.571	7.5
330.782	6.48
330.994	4.57
331.205	4.74
331.417	3.39
331.628	4.01
331.84	3.53
332.051	3.64
332.262	3.53
332.474	6.7
332.685	5.63
332.897	3.22
333.108	7.3
333.319	7.4
333.531	7.05
333.742	10
333.953	5.9
334.165	7.75
334.376	10.48
334.587	10.25
334.799	10.72
335.01	10.18
335.221	11.07
335.432	10.18
335.644	8.76
335.855	7.56
336.066	6.07
336.277	8.95
336.488	7.92
336.7	5
336.911	3.98
337.122	2.11
337.333	2.8
337.544	0.3
337.755	1.51
337.966	1.94
338.177	4.17
338.388	5.81
338.599	6.42
338.811	6.9
339.022	8.05
339.233	8.3
339.444	8.19
339.655	7.49
339.866	8.39
340.076	7.12
340.287	8.16
340.498	6.53
340.709	6.13
340.92	5.95
341.131	6.13
341.342	4.29
341.553	4.24
341.764	6.03
341.975	7.36
342.185	8.24
342.396	10.18
342.607	10.46
342.818	11.26
343.029	10.2
343.239	9.47
343.45	8.16
343.661	11.27
343.872	12.69
344.082	11.26
344.293	9.71
344.504	9.92
344.714	9.24
344.925	9.76
345.136	10.21
345.346	10.67
345.557	10.76
345.768	12.42
345.978	11.51
346.189	9.59
346.399	9.24
346.61	9.47
346.821	9.44
347.031	9.87
347.242	8.11
347.452	6.28
347.663	6.26
347.873	5.42
348.084	3.55
348.294	1.7
348.504	3.42
348.715	3.98
348.925	4.22
349.136	6.34
349.346	4.95
349.557	4.35
349.767	3.46
349.977	3.74
350.188	3.55
350.398	4.43
350.608	5.68
350.819	6.05
351.029	5.19
351.239	6.63
351.449	3.81
351.66	3.59
351.87	4.07
352.08	5.74
352.29	4.14
352.501	5.45
352.711	5.08
352.921	3.48
353.131	2.54
353.341	2.32
353.552	2.78
353.762	2.73
353.972	3.53
354.182	4.54
354.392	4.98
354.602	8.24
354.812	7.76
355.022	6.79
355.232	8.4
355.442	10.18
355.652	11.21
355.862	11.17
356.072	12.04
356.282	13.19
356.492	13.69
356.702	13.1
356.912	11.77
357.122	9.43
357.332	10.32
357.542	11.24
357.752	9.36
357.962	9.49
358.171	8.79
358.381	8.03
358.591	7.48
358.801	6.96
359.011	5.7
359.221	5.37
359.43	7.86
359.64	7.24
359.85	5.52
360.06	5.52
360.269	6.06
360.479	6.55
360.689	6.97
360.899	6.47
361.108	5.69
361.318	6.08
361.528	5.8
361.737	6.01
361.947	5.68
362.156	5.93
362.366	6.88
362.576	5.89
362.785	5.92
362.995	5.89
363.204	5.75
363.414	6.28
363.623	6.04
363.833	6.24
364.042	5.7
364.252	6.52
364.461	6.4
364.671	5.43
364.88	5.65
365.09	4.21
365.299	4.27
365.509	5.01
365.718	3.27
365.927	5.36
366.137	4.69
366.346	4.22
366.555	3.3
366.765	2.33
366.974	2.29
367.183	0.84
367.393	1.65
367.602	1.49
367.811	1.22
368.021	2.27
368.23	0.95
368.439	1.39
368.648	1.4
368.857	1.82
369.067	2.63
369.276	2.99
369.485	4.15
369.694	4.81
369.903	4.43
370.112	4.6
370.321	5.48
370.531	5.39
370.74	5.67
370.949	6.57
371.158	5.89
371.367	7.15
371.576	7.96
371.785	9.07
371.994	8.46
372.203	9.28
372.412	8.15
372.621	7.69
372.83	7.35
373.039	6.85
373.248	5.99
373.457	5.92
373.666	5.4
373.874	3.59
374.083	3.17
374.292	3.04
374.501	1.89
374.71	1.76
374.919	1.94
375.128	2.3
375.336	2.48
375.545	3.22
375.754	3.82
375.963	3.29
376.171	4.41
376.38	4.28
376.589	4.85
376.798	5.93
377.006	6.04
377.215	6.25
377.424	6.56
377.632	5.77
377.841	4.88
378.05	4.45
378.258	4.78
378.467	4.44
378.675	3.27
378.884	2.81
379.093	2.14
379.301	3.01
379.51	3.49
379.718	3.21
379.927	4.38
380.135	4.33
380.344	4.06
380.552	3.79
380.761	3.55
380.969	4.38
381.177	4.55
381.386	4.91
381.594	4.45
381.803	4.12
382.011	3.5
382.219	2.99
382.428	3.2
382.636	3.72
382.845	3.13
383.053	2.69
383.261	2.62
383.469	2.81
383.678	2.7
383.886	3.16
384.094	3.05
384.302	3.87
384.511	4.02
384.719	4.44
384.927	4.18
385.135	4.14
385.343	4.25
385.552	4.7
385.76	4.08
385.968	4.02
386.176	2.73
386.384	2.86
386.592	2.8
386.8	2.48
387.008	2.3
387.216	3.02
387.424	3.69
387.633	4.14
387.841	3.81
388.049	4.03
388.257	4.12
388.465	4.56
388.672	4.26
388.88	4.37
389.088	4.93
389.296	4.89
389.504	4.53
389.712	4.51
389.92	4.36
390.128	4.45
390.336	4.35
390.544	4.24
390.751	4.65
390.959	4.54
391.167	4.3
391.375	3.58
391.583	4.01
391.79	4.1
391.998	3.94
392.206	4.22
392.414	4.07
392.621	3.9
392.829	3.92
393.037	3.82
393.244	3.69
393.452	3.45
393.66	3.66
393.867	3.19
394.075	3.06
394.283	3.32
394.49	3.06
394.698	3.15
394.905	3.15
395.113	3.71
395.32	3.3
395.528	3.5
395.735	3.78
395.943	3.81
396.15	4.19
396.358	3.93
396.565	3.98
396.773	4.14
396.98	4.02
397.188	4.25
397.395	3.48
397.602	3.92
397.81	3.83
398.017	3.95
398.225	3.86
398.432	3.23
398.639	3.45
398.847	2.91
399.054	2.71
399.261	2.54
399.468	2.78
399.676	3.03
399.883	2.82
400.09	2.99
400.297	3.04
400.505	3.31
400.712	3.3
400.919	3.25
401.126	3.59
401.333	4
401.54	4.06
401.748	3.55
401.955	3.2
402.162	3.75
402.369	3.5
402.576	3.29
402.783	3.09
402.99	3.1
403.197	3.12
403.404	2.93
403.611	2.4
403.818	2.37
404.025	2.4
404.232	2.78
404.439	2.5
404.646	2.52
404.853	2.82
405.06	3.55
405.267	3.53
405.474	3
405.681	3.04
405.887	3.23
406.094	3.56
406.301	3.61
406.508	3.5
406.715	3.23
406.922	3.5
407.128	3.24
407.335	2.45
407.542	2.51
407.749	2.95
407.955	3.29
408.162	3.21
408.369	3.17
408.575	3.11
408.782	3.36
408.989	3.32
409.195	3.07
409.402	3.07
409.609	3.38
409.815	3.49
410.022	3.87
410.228	3.78
410.435	3.92
410.642	4.22
410.848	4.18
411.055	3.82
411.261	4.01
411.468	4.06
411.674	3.91
411.881	3.68
412.087	3.81
412.294	3.3
412.5	3.01
412.706	2.75
412.913	2.18
413.119	2.23
413.326	2.28
413.532	2.76
413.738	2.91
413.945	3.02
414.151	2.84
414.357	2.6
414.564	2.59
414.77	2.87
414.976	2.96
415.182	3.25
415.389	3.27
415.595	3.33
415.801	2.9
416.007	2.76
416.214	2.71
416.42	2.93
416.626	2.73
416.832	2.83
417.038	2.62
417.244	2.68
417.45	2.27
417.657	2.45
417.863	2.41
418.069	2.5
418.275	2.5
418.481	2.68
418.687	2.47
418.893	2.47
419.099	2.68
419.305	2.7
419.511	2.87
419.717	2.91
419.923	2.69
420.129	2.62
420.335	2.69
420.541	2.74
420.746	2.6
420.952	2.67
421.158	2.8
421.364	2.83
421.57	2.68
421.776	2.64
421.982	2.74
422.187	2.88
422.393	2.93
422.599	2.9
422.805	2.9
423.01	2.91
423.216	2.92
423.422	3.09
423.628	2.75
423.833	2.9
424.039	2.61
424.245	2.85
424.45	2.68
424.656	2.67
424.862	2.61
425.067	2.49
425.273	2.46
425.478	2.38
425.684	2.25
425.889	2.47
426.095	2.55
426.301	2.75
426.506	2.61
426.712	2.78
426.917	2.72
427.123	2.57
427.328	2.61
427.533	2.61
427.739	2.66
427.944	2.45
428.15	2.45
428.355	2.35
428.561	2.3
428.766	2.01
428.971	2
429.177	2.05
429.382	2.16
429.587	2.3
429.793	2.11
429.998	2.27
430.203	2.33
430.408	2.4
430.614	2.7
430.819	2.52
431.024	2.37
431.229	2.22
431.434	1.94
431.64	1.9
431.845	1.67
432.05	2.05
432.255	1.87
432.46	2.01
432.665	2.14
432.87	1.96
433.076	1.98
433.281	2.13
433.486	2.27
433.691	2.53
433.896	2.42
434.101	2.47
434.306	2.24
434.511	2.25
434.716	2.27
434.921	1.84
435.126	1.76
435.331	1.8
435.535	1.96
435.74	1.93
435.945	1.79
436.15	1.79
436.355	1.79
436.56	1.62
436.765	1.92
436.97	1.9
437.174	2.34
437.379	2.44
437.584	2.44
437.789	2.28
437.993	2.38
438.198	2.26
438.403	2.29
438.608	2.44
438.812	2.53
439.017	2.32
439.222	2.24
439.426	2.04
439.631	1.92
439.836	1.95
440.04	2.03
440.245	1.99
440.45	2.21
440.654	2.35
440.859	2.32
441.063	2.4
441.268	2.57
441.472	2.59
441.677	2.66
441.881	2.72
442.086	2.76
442.29	2.72
442.495	2.8
442.699	2.71
442.904	2.65
443.108	2.74
443.312	2.76
443.517	2.64
443.721	2.83
443.925	2.94
444.13	2.94
444.334	2.92
444.538	2.86
444.743	2.85
444.947	2.94
445.151	2.88
445.356	2.79
445.56	2.67
445.764	2.61
445.968	2.56
446.173	2.43
446.377	2.38
446.581	2.35
446.785	2.38
446.989	2.26
447.193	2.13
447.398	2.14
447.602	2.12
447.806	2.19
448.01	2.22
448.214	2.14
448.418	2.03
448.622	1.8
448.826	1.73
449.03	1.65
449.234	1.56
449.438	1.65
449.642	1.7
449.846	1.5
450.05	1.34
450.254	1.28
450.458	1.08
450.662	1.02
450.866	1.19
451.069	1.17
451.273	1.02
451.477	1.04
451.681	1.03
451.885	1.03
452.089	1.13
452.292	1.19
452.496	1.16
452.7	1.31
452.904	1.5
453.107	1.68
453.311	1.89
453.515	1.97
453.719	2.15
453.922	2.12
454.126	2.02
454.33	1.89
454.533	2.12
454.737	2.33
454.94	2.24
455.144	2.18
455.348	1.92
455.551	1.99
455.755	2.16
455.958	2.26
456.162	2.37
456.365	2.28
456.569	2.26
456.772	2.08
456.976	1.88
457.179	1.87
457.383	1.72
457.586	1.83
457.79	1.57
457.993	1.63
458.196	1.39
458.4	1.3
458.603	1.6
458.807	1.75
459.01	1.87
459.213	1.86
459.417	1.96
459.62	2.01
459.823	2.03
460.026	2.06
460.23	1.89
460.433	1.96
460.636	2.01
460.839	1.89
461.042	1.72
461.246	1.71
461.449	1.78
461.652	1.76
461.855	1.74
462.058	1.7
462.261	1.78
462.464	1.85
462.668	1.9
462.871	1.76
463.074	1.85
463.277	1.98
463.48	1.91
463.683	1.68
463.886	1.7
464.089	1.8
464.292	1.91
464.495	1.88
464.698	2.05
464.901	1.98
465.104	1.99
465.306	1.83
465.509	2.08
465.712	2.1
465.915	2.23
466.118	2.27
466.321	2.22
466.524	2.1
466.726	2
466.929	1.88
467.132	1.96
467.335	2.03
467.538	2.15
467.74	2.08
467.943	2.21
468.146	2.33
468.348	2.11
468.551	2.13
468.754	2.32
468.956	2.35
469.159	2.27
469.362	2.25
469.564	2.35
469.767	2.18
469.969	2.25
470.172	1.83
470.375	1.74
470.577	1.88
470.78	1.88
470.982	1.87
471.185	1.96
471.387	1.97
471.59	1.92
471.792	1.78
471.995	1.62
472.197	1.41
472.399	1.49
472.602	1.45
472.804	1.44
473.007	1.57
473.209	1.51
473.411	1.37
473.614	1.47
473.816	1.47
474.018	1.53
474.22	1.85
474.423	2.08
474.625	2.24
474.827	2.35
475.03	2.22
475.232	2.09
475.434	2.09
475.636	2.07
475.838	2.2
476.04	2.24
476.243	2.48
476.445	2.38
476.647	2.14
476.849	1.93
477.051	1.99
477.253	2.1
477.455	2.14
477.657	1.95
477.859	2.07
478.061	1.83
478.263	1.81
478.465	1.51
478.667	1.38
478.869	1.67
479.071	1.82
479.273	1.73
479.475	1.81
479.677	1.84
479.879	1.78
480.081	1.72
480.283	1.83
480.485	1.84
480.686	1.84
480.888	1.94
481.09	1.82
481.292	1.82
481.494	1.83
481.695	1.82
481.897	1.81
482.099	2.08
482.301	2.17
482.502	2.15
482.704	2.25
482.906	2.3
483.107	2.34
483.309	2.27
483.511	2.29
483.712	2.25
483.914	2.25
484.115	2.26
484.317	2.21
484.519	2.23
484.72	2.27
484.922	2.18
485.123	2.15
485.325	2.16
485.526	2.22
485.728	2.21
485.929	2.24
486.131	2.25
486.332	2.31
486.534	2.31
486.735	2.32
486.936	2.3
487.138	2.36
487.339	2.38
487.541	2.36
487.742	2.33
487.943	2.35
488.144	2.36
488.346	2.36
488.547	2.23
488.748	2.27
488.95	2.17
489.151	2.15
489.352	2.11
489.553	2.1
489.755	2.09
489.956	2.04
490.157	2
490.358	1.98
490.559	1.99
490.76	2.07
490.961	2.05
491.163	2.23
491.364	2.27
491.565	2.26
491.766	2.22
491.967	2.08
492.168	2.22
492.369	2.26
492.57	2.23
492.771	2.18
492.972	2.12
493.173	2.14
493.374	2.04
493.575	2.01
493.776	2.07
493.976	2.1
494.177	2.23
494.378	2.14
494.579	2.09
494.78	2.06
494.981	2.14
495.182	2.14
495.382	1.99
495.583	1.87
495.784	1.88
495.985	1.59
496.185	1.74
496.386	1.72
496.587	1.62
496.788	1.52
496.988	1.57
497.189	1.5
497.39	1.59
497.59	1.5
497.791	1.55
497.992	1.58
498.192	1.72
498.393	1.63
498.593	1.49
498.794	1.57
498.994	1.63
499.195	1.75
499.395	1.74
499.596	1.69
499.796	1.71
499.997	1.74
500.197	1.56
500.398	1.69
500.598	1.52
500.799	1.68
500.999	1.63
501.199	1.71
501.4	1.58
501.6	1.48
501.801	1.54
502.001	1.52
502.201	1.54
502.402	1.53
502.602	1.35
502.802	1.73
503.002	1.85
503.203	1.78
503.403	1.72
503.603	1.66
503.803	1.95
504.003	2.05
504.204	2.23
504.404	2.27
504.604	2.3
504.804	2.4
505.004	2.26
505.204	2.28
505.404	2.28
505.604	2.17
505.804	2.27
506.005	2.28
506.205	2.24
506.405	2.4
506.605	2.34
506.805	2.35
507.005	2.42
507.204	2.43
507.404	2.4
507.604	2.59
507.804	2.81
508.004	2.87
508.204	2.71
508.404	2.65
508.604	2.54
508.804	2.46
509.003	2.52
509.203	2.54
509.403	2.55
509.603	2.65
509.803	2.56
510.002	2.44
510.202	2.33
510.402	2.27
510.602	2.33
510.801	2.35
511.001	2.4
511.201	2.55
511.4	2.62
511.6	2.53
511.8	2.63
511.999	2.6
512.199	2.76
512.398	2.92
512.598	3
512.797	3.01
512.997	2.88
513.197	2.87
513.396	2.69
513.596	2.6
513.795	2.76
513.994	2.49
514.194	2.37
514.393	2.23
514.593	2.16
514.792	2.1
514.992	1.97
515.191	2.3
515.39	2.25
515.59	2.45
515.789	2.59
515.988	2.51
516.188	2.75
516.387	2.81
516.586	2.96
516.786	3
516.985	3.15
517.184	3.21
517.383	3.01
517.582	2.99
517.782	2.96
517.981	2.88
518.18	2.87
518.379	2.84
518.578	2.96
518.777	3.04
518.976	3.07
519.176	3.06
519.375	3.17
519.574	3.1
519.773	3.2
519.972	3.2
520.171	3.31
520.37	3.3
520.569	3.14
520.768	3.17
520.967	3.13
521.166	3.18
521.365	3.07
521.564	2.93
521.762	3.17
521.961	3.26
522.16	3.22
522.359	3.03
522.558	3.05
522.757	3.19
522.956	3.2
523.154	3.18
523.353	3.14
523.552	3.2
523.751	3.18
523.949	3.18
524.148	3.14
524.347	3.19
524.546	3.23
524.744	3.39
524.943	3.37
525.142	3.38
525.34	3.45
525.539	3.45
525.737	3.44
525.936	3.48
526.135	3.45
526.333	3.47
526.532	3.44
526.73	3.47
526.929	3.52
527.127	3.56
527.326	3.55
527.524	3.61
527.723	3.63
527.921	3.7
528.12	3.68
528.318	3.67
528.516	3.63
528.715	3.69
528.913	3.72
529.112	3.68
529.31	3.73
529.508	3.77
529.707	3.74
529.905	3.71
530.103	3.69
530.301	3.76
530.5	3.82
530.698	3.88
530.896	3.84
531.094	3.81
531.293	3.75
531.491	3.74
531.689	3.64
531.887	3.56
532.085	3.66
532.283	3.68
532.481	3.75
532.68	3.69
532.878	3.82
533.076	3.95
533.274	3.93
533.472	3.97
533.67	3.96
533.868	4
534.066	4.04
534.264	4
534.462	4.05
534.66	4.03
534.858	4.13
535.056	4.04
535.253	3.98
535.451	4.14
535.649	4.2
535.847	4.3
536.045	4.38
536.243	4.43
536.441	4.47
536.638	4.58
536.836	4.65
537.034	4.52
537.232	4.55
537.43	4.66
537.627	4.53
537.825	4.48
538.023	4.45
538.22	4.54
538.418	4.52
538.616	4.73
538.813	4.72
539.011	4.62
539.209	4.81
539.406	4.76
539.604	4.77
539.801	4.94
539.999	5.15
540.196	5.14
540.394	5.08
540.591	5.21
540.789	5.18
540.986	5.17
541.184	5.21
541.381	5.28
541.579	5.39
541.776	5.41
541.974	5.48
542.171	5.53
542.368	5.52
542.566	5.65
542.763	5.62
542.96	5.62
543.158	5.78
543.355	5.82
543.552	5.78
543.75	5.84
543.947	5.83
544.144	5.84
544.341	5.73
544.539	5.88
544.736	5.79
544.933	5.88
545.13	5.94
545.327	5.83
545.524	6.04
545.722	6.16
545.919	6.25
546.116	6.37
546.313	6.5
546.51	6.66
546.707	6.74
546.904	6.73
547.101	6.76
547.298	6.72
547.495	6.82
547.692	6.88
547.889	6.88
548.086	6.84
548.283	6.87
548.48	6.84
548.677	6.71
548.874	6.9
549.07	6.96
549.267	6.96
549.464	7.19
549.661	7.32
549.858	7.09
550.055	7.15
550.251	7.28
550.448	7.37
550.645	7.44
550.842	7.49
551.038	7.27
551.235	7.49
551.432	7.63
551.628	7.47
551.825	7.29
552.022	7.56
552.218	7.68
552.415	7.75
552.612	7.86
552.808	7.87
553.005	8.15
553.201	8.23
553.398	8.25
553.594	8.34
553.791	8.5
553.987	8.61
554.184	8.49
554.38	8.51
554.577	8.44
554.773	8.5
554.97	8.49
555.166	8.63
555.362	8.83
555.559	8.91
555.755	8.95
555.952	8.99
556.148	9.24
556.344	9.49
556.541	9.59
556.737	9.72
556.933	9.84
557.129	9.99
557.326	9.79
557.522	9.85
557.718	9.85
557.914	9.91
558.11	10.09
558.307	10.17
558.503	10.42
558.699	10.29
558.895	10.53
559.091	10.36
559.287	10.46
559.483	10.78
559.679	10.66
559.876	10.72
560.072	10.67
560.268	10.67
560.464	10.62
560.66	10.46
560.856	10.65
561.052	10.5
561.247	10.68
561.443	10.53
561.639	10.71
561.835	10.98
562.031	11.28
562.227	11.5
562.423	11.58
562.619	11.77
562.815	11.92
563.01	12.16
563.206	12.39
563.402	12.26
563.598	12.6
563.793	12.45
563.989	12.5
564.185	12.24
564.381	12.39
564.576	12.5
564.772	12.28
564.968	12.36
565.163	12.3
565.359	12.32
565.555	12.5
565.75	12.46
565.946	12.62
566.141	12.73
566.337	12.85
566.532	12.89
566.728	12.98
566.923	13.18
567.119	13.14
567.314	13.19
567.51	13.28
567.705	13.36
567.901	13.49
568.096	13.38
568.292	13.25
568.487	13.5
568.682	13.52
568.878	13.56
569.073	13.74
569.268	13.89
569.464	13.92
569.659	13.95
569.854	14.18
570.05	14.28
570.245	14.56
570.44	14.75
570.635	14.6
570.831	14.74
571.026	14.85
571.221	14.66
571.416	14.77
571.611	14.93
571.806	14.98
572.002	14.9
572.197	15.06
572.392	15.19
572.587	15.21
572.782	15.38
572.977	15.22
573.172	15.21
573.367	15.39
573.562	15.52
573.757	15.48
573.952	15.5
574.147	15.46
574.342	15.36
574.537	15.34
574.732	15.36
574.927	15.44
575.121	15.56
575.316	15.65
575.511	15.75
575.706	15.69
575.901	15.85
576.096	16.06
576.29	16.27
576.485	16.25
576.68	16.15
576.875	16.26
577.069	16.28
577.264	16.52
577.459	16.43
577.654	16.35
577.848	16.52
578.043	16.59
578.238	16.65
578.432	16.7
578.627	16.84
578.821	16.83
579.016	16.9
579.21	16.99
579.405	16.79
579.6	17.01
579.794	17.01
579.989	16.66
580.183	16.19
580.378	15.91
580.572	15.97
580.766	15.98
580.961	16.14
581.155	16.08
581.35	15.99
581.544	16.16
581.738	15.9
581.933	16.04
582.127	16.49
582.321	17.03
582.516	17.06
582.71	17.05
582.904	17.06
583.099	17.05
583.293	17.27
583.487	17.39
583.681	17.83
583.875	18.19
584.07	18.22
584.264	18.19
584.458	18.42
584.652	18.68
584.846	18.76
585.04	18.8
585.234	18.69
585.428	18.6
585.623	18.55
585.817	18.17
586.011	18.08
586.205	18.25
586.399	17.78
586.593	17.75
586.787	17.56
586.981	17.46
587.174	17.72
587.368	17.78
587.562	17.94
587.756	17.91
587.95	17.97
588.144	17.74
588.338	17.73
588.532	18.1
588.725	18.16
588.919	18.32
589.113	18.45
589.307	18.37
589.501	18.41
589.694	18.17
589.888	18.24
590.082	17.89
590.275	18.23
590.469	18.16
590.663	18.28
590.856	18.31
591.05	18.25
591.244	18.19
591.437	18.04
591.631	17.94
591.824	18.24
592.018	18.47
592.212	18.84
592.405	18.65
592.599	18.63
592.792	18.9
592.986	18.9
593.179	18.92
593.372	18.81
593.566	18.9
593.759	18.91
593.953	18.79
594.146	18.81
594.339	19.03
594.533	18.99
594.726	19.29
594.92	19.04
595.113	19
595.306	19.15
595.499	19.31
595.693	19.33
595.886	19.77
596.079	19.84
596.272	19.79
596.466	19.67
596.659	20.02
596.852	19.85
597.045	20
597.238	19.89
597.431	19.98
597.624	20.16
597.818	20.22
598.011	20.05
598.204	19.95
598.397	19.83
598.59	19.68
598.783	19.83
598.976	19.69
599.169	19.59
599.362	19.49
599.555	19.36
599.748	19.13
599.941	18.89
600.134	18.83
600.326	18.93
600.519	19.25
600.712	19.52
600.905	19.08
601.098	19.27
601.291	19.17
601.483	19.51
601.676	19.74
601.869	19.85
602.062	20.14
602.255	20.46
602.447	20.4
602.64	20.41
602.833	20.53
603.025	20.51
603.218	20.85
603.411	20.99
603.603	21.03
603.796	20.92
603.989	20.84
604.181	20.86
604.374	20.7
604.566	20.96
604.759	20.94
604.951	20.85
605.144	21.09
605.336	20.96
605.529	20.94
605.721	20.94
605.914	21.08
606.106	21.43
606.299	21.55
606.491	21.68
606.683	21.54
606.876	21.48
607.068	21.62
607.26	21.62
607.453	21.58
607.645	21.57
607.837	21.29
608.03	21.17
608.222	20.74
608.414	20.66
608.606	20.52
608.799	20.46
608.991	20.51
609.183	20.58
609.375	20.2
609.567	20.29
609.759	20.36
609.952	20.84
610.144	20.77
610.336	20.94
610.528	20.75
610.72	20.83
610.912	21
611.104	21.09
611.296	20.94
611.488	21.26
611.68	20.87
611.872	20.91
612.064	20.65
612.256	20.92
612.448	20.73
612.64	21.03
612.832	20.98
613.023	20.94
613.215	20.86
613.407	20.99
613.599	20.98
613.791	21.23
613.983	21.07
614.174	21.31
614.366	21.02
614.558	21.19
614.75	21.17
614.941	21.17
615.133	20.78
615.325	20.91
615.516	20.82
615.708	21.13
615.9	21.38
616.091	21.52
616.283	21.37
616.475	21.4
616.666	21.38
616.858	21.26
617.049	21.26
617.241	21.49
617.432	21.09
617.624	20.9
617.815	20.83
618.007	20.75
618.198	20.48
618.39	20.51
618.581	20.56
618.773	20.71
618.964	20.76
619.155	21.08
619.347	21.19
619.538	21.82
619.729	21.71
619.921	21.71
620.112	21.86
620.303	22.47
620.494	22.34
620.686	22.23
620.877	22.2
621.068	22.49
621.259	22.29
621.451	22.13
621.642	21.57
621.833	21.79
622.024	21.87
622.215	21.83
622.406	21.45
622.597	21.55
622.788	21.87
622.98	22.01
623.171	21.72
623.362	21.55
623.553	21.61
623.744	21.8
623.935	21.87
624.126	21.57
624.317	21.22
624.508	21.25
624.698	21.28
624.889	21.21
625.08	20.95
625.271	21.11
625.462	21.51
625.653	21.63
625.844	21.8
626.034	21.87
626.225	21.96
626.416	22.29
626.607	22.35
626.798	22.18
626.988	22.62
627.179	22.86
627.37	23.07
627.56	22.86
627.751	22.92
627.942	22.58
628.132	22.89
628.323	23.01
628.514	23.08
628.704	22.97
628.895	23.02
629.085	22.61
629.276	22.4
629.466	22.41
629.657	22.3
629.847	22.38
630.038	22.92
630.228	22.58
630.419	22.34
630.609	22.12
630.8	22.33
630.99	22.45
631.181	22.39
631.371	22.4
631.561	22.1
631.752	21.88
631.942	21.91
632.132	22.04
632.323	22.37
632.513	22.7
632.703	22.67
632.893	22.72
633.084	22.9
633.274	22.85
633.464	23.13
633.654	23.07
633.844	23.18
634.034	22.9
634.225	22.65
634.415	22.5
634.605	22.2
634.795	22.37
634.985	22.56
635.175	22.26
635.365	22.3
635.555	22.17
635.745	22.21
635.935	22.65
636.125	22.41
636.315	22.45
636.505	22.43
636.695	22.47
636.885	22.23
637.075	21.95
637.265	22.01
637.455	22.28
637.644	22.7
637.834	22.98
638.024	22.85
638.214	23.05
638.404	22.97
638.593	22.82
638.783	23.24
638.973	23.51
639.163	23.68
639.352	23.84
639.542	23.59
639.732	23.25
639.921	23.29
640.111	23.37
640.301	23.53
640.49	23.46
640.68	24.2
640.87	24.01
641.059	23.71
641.249	23.47
641.438	23.52
641.628	23.22
641.817	23.17
642.007	22.97
642.196	22.88
642.386	22.68
642.575	22.76
642.764	21.95
642.954	21.8
643.143	22.08
643.333	22.02
643.522	21.77
643.711	22.37
643.901	22.41
644.09	22.96
644.279	23.25
644.469	23.6
644.658	23.62
644.847	23.7
645.036	24.04
645.226	23.92
645.415	23.97
645.604	24.01
645.793	23.53
645.982	23.32
646.171	22.32
646.361	22.11
646.55	22.13
646.739	21.93
646.928	22.22
647.117	21.89
647.306	21.87
647.495	22.16
647.684	22.29
647.873	22.23
648.062	22.1
648.251	22.65
648.44	22.64
648.629	22.75
648.818	22.91
649.007	22.74
649.196	22.78
649.384	22.54
649.573	22.8
649.762	22.72
649.951	23.62
650.14	24.05
650.328	24.26
650.517	24.35
650.706	24.31
650.895	24.67
651.083	24.68
651.272	24.32
651.461	24.58
651.65	24.55
651.838	24.97
652.027	24.3
652.216	24.19
652.404	23.72
652.593	23.55
652.781	23.34
652.97	23.49
653.158	23.3
653.347	24.43
653.535	24.9
653.724	24.69
653.912	24.34
654.101	25.21
654.289	24.91
654.478	25.03
654.666	25.16
654.855	25.22
655.043	24.96
655.231	25.29
655.42	25.01
655.608	24.57
655.796	24.17
655.985	24.63
656.173	23.88
656.361	24.12
656.55	23.82
656.738	23.88
656.926	23.86
657.114	23.49
657.302	23.77
657.491	23.55
657.679	23.32
657.867	23.65
658.055	23.45
658.243	23.49
658.431	23.66
658.619	24.22
658.807	24.44
658.996	24.77
659.184	24.76
659.372	24.68
659.56	24.32
659.748	24.55
659.936	24.33
660.124	24.14
660.311	24.04
660.499	24.18
660.687	23.85
660.875	23.5
661.063	23.57
661.251	24.06
661.439	23.88
661.627	24.09
661.814	24.33
662.002	24.42
662.19	24.66
662.378	25.09
662.565	24.69
662.753	24.68
662.941	24.47
663.129	24.45
663.316	23.72
663.504	24.08
663.692	24.58
663.879	24.47
664.067	24.74
664.254	24.47
664.442	24.06
664.63	24.49
664.817	24.82
665.005	25.31
665.192	25.06
665.38	25.8
665.567	25.31
665.755	24.53
665.942	24.29
666.13	23.82
666.317	24.22
666.504	24.68
666.692	24.3
666.879	24.03
667.067	24.48
667.254	23.91
667.441	23.38
667.629	23.05
667.816	22.9
668.003	23.08
668.19	23.05
668.378	22.75
668.565	22.48
668.752	22.53
668.939	22.75
669.127	22.04
669.314	23.11
669.501	23.06
669.688	23.44
669.875	24.01
670.062	23.91
670.249	24.05
670.436	24.01
670.623	24.49
670.81	24.27
670.997	23.98
671.184	24.05
671.371	23.57
671.558	23.87
671.745	23.9
671.932	23.68
672.119	23.77
672.306	24.25
672.493	24.92
672.68	24.21
672.867	24.36
673.054	23.67
673.24	23.99
673.427	23.73
673.614	24.31
673.801	24.59
673.988	24.59
674.174	24.7
674.361	24.06
674.548	23.73
674.734	24.34
674.921	24.26
675.108	25.39
675.294	25.01
675.481	25.01
675.668	24.19
675.854	24.03
676.041	24.03
676.227	24.41
676.414	24.69
676.601	24.83
676.787	24.86
676.974	25.28
677.16	25.15
677.347	24.93
677.533	24.73
677.719	25
677.906	25.28
678.092	25.2
678.279	24.46
678.465	24.56
678.651	24.39
678.838	24.13
679.024	24.2
679.21	24.32
679.397	24.92
679.583	25.48
679.769	25.28
679.955	25.26
680.142	25.63
680.328	25.83
680.514	25.97
680.7	25.86
680.886	25.71
681.073	25.43
681.259	25.29
681.445	25.43
681.631	24.8
681.817	25.03
682.003	25.02
682.189	24.96
682.375	25.18
682.561	25.31
682.747	25.02
682.933	24.63
683.119	24.71
683.305	24.29
683.491	23.9
683.677	24.29
683.863	24.2
684.049	23.56
684.235	23
684.42	22.98
684.606	22.62
684.792	23.16
684.978	24.56
685.164	24.81
685.349	25.34
685.535	25.69
685.721	25.97
685.907	25.93
686.092	26.3
686.278	26.57
686.464	26.13
686.649	26.14
686.835	25.63
687.021	24.97
687.206	24.95
687.392	24.89
687.577	24.69
687.763	24.74
687.948	24.97
688.134	25.24
688.319	25.52
688.505	25.62
688.69	26.14
688.876	26.49
689.061	26.19
689.247	25.97
689.432	26.15
689.618	26.13
689.803	26.56
689.988	26.19
690.174	25.38
690.359	25.92
690.544	26.25
690.73	26.13
690.915	26.08
691.1	26.63
691.285	27.54
691.471	27.19
691.656	27.49
691.841	26.43
692.026	26.85
692.211	27.58
692.396	27.1
692.582	26.85
692.767	26.53
692.952	26.5
693.137	26.35
693.322	25.16
693.507	25.73
693.692	25.28
693.877	24.99
694.062	24.86
694.247	24.48
694.432	24.04
694.617	24.52
694.802	24.35
694.987	24.02
695.172	23.74
695.357	24.22
695.541	23.97
695.726	24.48
695.911	25.33
696.096	25.06
696.281	25.65
696.466	26.55
696.65	26.33
696.835	26.05
697.02	26.67
697.204	26.44
697.389	26.65
697.574	26.68
697.759	26.48
697.943	26.42
698.128	26.77
698.312	26.69
698.497	25.8
698.682	26.13
698.866	26.51
699.051	26.3
699.235	26.67
699.42	26.72
699.604	26.56
699.789	26.42
699.973	26.36
700.158	26.03
700.342	26.07
700.527	27.14
700.711	26.59
700.895	26.15
701.08	26.44
701.264	26.38
701.448	26.31
701.633	26.61
701.817	27.21
702.001	27.37
702.186	27.48
702.37	27.33
702.554	26.15
702.738	26.47
702.923	26.74
703.107	26.3
703.291	26.12
703.475	25.86
703.659	25.48
703.843	24.88
704.027	24.99
704.212	25.05
704.396	25.01
704.58	25.05
704.764	24.76
704.948	25.2
705.132	25.51
705.316	25.46
705.5	25.47
705.684	25.56
705.868	24.8
706.052	24.62
706.235	24.41
706.419	24.82
706.603	24.94
706.787	24.7
706.971	23.91
707.155	23.51
707.339	23.49
707.522	23.24
707.706	23.69
707.89	24.55
708.074	24.23
708.257	24.6
708.441	24.77
708.625	25.19
708.808	25.44
708.992	25.88
709.176	26.37
709.359	26.01
709.543	26.15
709.727	26.47
709.91	26.57
710.094	27.33
710.277	27.34
710.461	26.91
710.644	26.94
710.828	27.23
711.011	27.33
711.195	27.2
711.378	27.44
711.562	27.9
711.745	27.11
711.928	26.62
712.112	26.12
712.295	26.47
712.478	26.8
712.662	26.87
712.845	26.44
713.028	26.27
713.212	26.26
713.395	26.92
713.578	26.73
713.761	26.57
713.945	26.86
714.128	26.63
714.311	26.59
714.494	26.98
714.677	25.94
714.86	26.78
715.043	27.09
715.227	26.63
715.41	26.44
715.593	26.2
715.776	26.27
715.959	26.56
716.142	25.94
716.325	25.42
716.508	24.7
716.691	25.99
716.874	24.96
717.057	25.16
717.239	25.28
717.422	24.56
717.605	23.59
717.788	23.43
717.971	23.41
718.154	24.94
718.337	25.12
718.519	25.07
718.702	24.35
718.885	25.57
719.068	26.29
719.25	26
719.433	26.78
719.616	28.14
719.798	27.45
719.981	27.2
720.164	26.29
720.346	26.12
720.529	24.44
720.712	24.82
720.894	25.04
721.077	24.08
721.259	24.78
721.442	24.25
721.624	23.27
721.807	25.56
721.989	25.51
722.172	26.33
722.354	26.35
722.537	27.21
722.719	27.36
722.901	26.71
723.084	26.3
723.266	25.69
723.448	25.98
723.631	27.51
723.813	26.58
723.995	25.83
724.178	25.43
724.36	24.84
724.542	25.93
724.724	26.03
724.907	25.6
725.089	26.64
725.271	26.13
725.453	25.6
725.635	24.76
725.817	24.32
725.999	25.19
726.181	24.91
726.364	24.86
726.546	25.17
726.728	24.55
726.91	25.43
727.092	23.78
727.274	23.72
727.456	24.57
727.638	23.48
727.819	24.19
728.001	23.69
728.183	23.64
728.365	24.33
728.547	23.91
728.729	24.16
728.911	24.16
729.093	24.9
729.274	26.2
729.456	26.22
729.638	26.17
729.82	26.4
730.001	26.29
730.183	27.24
730.365	27.92
730.546	27.95
730.728	28.18
730.91	27.68
731.091	27.42
731.273	27.16
731.455	26.9
731.636	28.21
731.818	27.95
731.999	28.28
732.181	27.3
732.362	25.86
732.544	25.24
732.725	24.56
732.907	23.88
733.088	24.03
733.27	23.84
733.451	23.73
733.633	23.36
733.814	23.39
733.995	22.69
734.177	22.61
734.358	24.11
734.539	24.87
734.721	24.87
734.902	25
735.083	24.75
735.264	25.02
735.446	25.17
735.627	25.43
735.808	24.78
735.989	25.88
736.17	25.09
736.351	23.41
736.533	23.34
736.714	24.1
736.895	25.56
737.076	25.51
737.257	24.87
737.438	25.27
737.619	25.57
737.8	26.56
737.981	25.79
738.162	27.05
738.343	28.18
738.524	27.84
738.705	26.9
738.886	26.1
739.067	25.65
739.247	26.06
739.428	24.77
739.609	23.94
739.79	23.29
739.971	23.64
740.151	23.56
740.332	23.44
740.513	23.69
740.694	24.55
740.874	24.92
741.055	27.17
741.236	27.23
741.417	29.78
741.597	30.77
741.778	30.42
741.958	30.65
742.139	29.84
742.32	29.55
742.5	29.72
742.681	29.21
742.861	29.53
743.042	28.42
743.222	27.06
743.403	25.24
743.583	23.77
743.764	23.78
743.944	24.24
744.124	25.55
744.305	25.87
744.485	24.32
744.666	24.75
744.846	24.1
745.026	23.41
745.207	25.04
745.387	24.59
745.567	25.13
745.747	24.54
745.928	23.71
746.108	26.37
746.288	26.51
746.468	27.99
746.648	27.98
746.829	27.41
747.009	28.19
747.189	29.09
747.369	30.78
747.549	30.86
747.729	30.63
747.909	31.72
748.089	29.82
748.269	29.53
748.449	28.34
748.629	27.77
748.809	28.94
748.989	28.41
749.169	28.62
749.349	25.99
749.529	26.7
749.709	26.64
749.889	26.51
750.068	26.53
750.248	26.1
750.428	27.51
750.608	27.91
750.788	27.68
750.967	29.17
751.147	28.67
751.327	30.2
751.507	28.72
751.686	29.39
751.866	29.31
752.046	27.68
752.225	29.71
752.405	29.31
752.585	28.51
752.764	27.55
752.944	25.67
753.123	25.74
753.303	24.74
753.482	25.52
753.662	27.34
753.841	25.89
754.021	25.73
754.2	24.95
754.38	23.75
754.559	23.53
754.739	24.38
754.918	24.85
755.097	23.98
755.277	25.52
755.456	25.6
755.635	23.27
755.815	24.39
755.994	25.54
756.173	25.06
756.352	26.11
756.532	26.28
756.711	25.64
756.89	24.97
757.069	24.73
757.248	22.85
757.427	22.86
757.607	23.96
757.786	23.15
757.965	21.5
758.144	21.34
758.323	21.73
758.502	22.49
758.681	22.07
758.86	22.9
759.039	22.57
759.218	23.23
759.397	23.47
759.576	22.23
759.755	21.48
759.934	23.38
760.113	22.67
760.291	21.51
760.47	21.16
760.649	21.72
760.828	21.72
761.007	22.2
761.186	23.08
761.364	23.46
761.543	24.28
761.722	26.28
761.901	27.05
762.079	27.53
762.258	28.21
762.437	28.88
762.615	30.31
762.794	30.55
762.972	30.87
763.151	30.45
763.33	30.27
763.508	29.13
763.687	28.54
763.865	28.34
764.044	28.39
764.222	28.65
764.401	28.3
764.579	28.19
764.758	28.41
764.936	28.38
765.114	28.25
765.293	29.02
765.471	29.7
765.65	30.9
765.828	30.01
766.006	29.62
766.184	29.03
766.363	29.69
766.541	28.56
766.719	28.51
766.898	29.43
767.076	29.38
767.254	29.06
767.432	29.9
767.61	28.99
767.788	28.29
767.967	28.82
768.145	28.41
768.323	27.8
768.501	28.06
768.679	27.17
768.857	26.26
769.035	26.77
769.213	28.29
769.391	29.58
769.569	29.43
769.747	29.27
769.925	30.09
770.103	32.22
770.281	31.6
770.459	30.39
770.636	30.72
770.814	30.66
770.992	31.12
771.17	28.99
771.348	26.25
771.525	24.51
771.703	25.51
771.881	24.81
772.059	27.13
772.236	26.38
772.414	26.95
772.592	28.3
772.769	26.92
772.947	26.17
773.125	26.26
773.302	28.29
773.48	30.81
773.657	29.48
773.835	29.46
774.013	24.93
774.19	24.97
774.368	25.71
774.545	22.32
774.723	22.27
774.9	22.66
775.077	22.35
775.255	21.8
775.432	20.64
775.61	21.5
775.787	21.21
775.964	21.2
776.142	21.38
776.319	20.37
776.496	23.46
776.674	22.95
776.851	21.49
777.028	22.25
777.205	25.38
777.382	25.24
777.56	26.6
777.737	25.59
777.914	24.17
778.091	26.53
778.268	26.17
778.445	25.28
778.622	24.79
778.8	26.77
778.977	25.14
779.154	20.85
779.331	18.24
779.508	17.97
779.685	18.11
779.862	18.9
780.038	18.09
780.215	17.79
780.392	14.71
780.569	16.08
780.746	12.31
780.923	12.57
781.1	15.71
781.277	15.29
781.453	17.52
781.63	21.25
781.807	23.21
781.984	23.54
782.16	22.47
782.337	25.95
782.514	29.69
782.691	31.66
782.867	31.31
783.044	29.87
783.221	29.5
783.397	25.95
783.574	22.76
783.75	21.65
783.927	22.53
784.103	24.4
784.28	23.1
784.456	21.59
784.633	20.11
784.809	20.41
784.986	22.3
785.162	24.64
785.339	25.07
785.515	26.41
785.692	26.44
785.868	23.38
786.044	22.98
786.221	23.72
786.397	20.42
786.573	23.38
786.749	23.62
786.926	18.54
787.102	16.95
787.278	15.42
787.454	12.91
787.631	14.96
787.807	13.36
787.983	15.31
788.159	15.01
788.335	17.7
788.511	18.44
788.687	20.6
788.863	25.34
789.039	28.25
789.216	29.42
789.392	32.21
789.568	30.83
789.744	33.39
789.919	33.46
790.095	32
790.271	29.89
790.447	29.17
790.623	29.95
790.799	29.65
790.975	27.76
791.151	26.79
791.327	27.89
791.502	28.38
791.678	29.36
791.854	28.46
792.03	32.36
792.205	32.58
792.381	30.39
792.557	25.81
792.733	18.41
792.908	18.53
793.084	22.89
793.259	19.9
793.435	19.82
793.611	20.1
793.786	23.27
793.962	18.9
794.137	21.19
794.313	20.77
794.488	22.57
794.664	28.7
794.839	26.63
795.015	23.8
795.19	26.5
795.366	25.6
795.541	23.88
795.716	16.01
795.892	18.05
796.067	15.94
796.242	17.34
796.418	18.36
796.593	15.23
796.768	17.78
796.944	16.39
797.119	15.46
797.294	16.54
797.469	17.83
797.644	21.97
797.82	20.56
797.995	22.61
798.17	23.68
798.345	22.66
798.52	25.44
798.695	25.54
798.87	28.62
799.045	26.45
799.22	23.92
799.395	23.03
799.57	22.39
799.745	19.48
799.92	18.68
800.095	16.58
800.27	13.06
800.445	12.26
800.62	12.21
800.795	8.68
800.97	12.58
801.145	13.29
801.319	17.39
801.494	15.09
801.669	16.41
801.844	13.42
802.018	14.58
802.193	18.23
802.368	20.02
802.543	20.27
802.717	19.47
802.892	20.37
803.067	22.82
803.241	18.28
803.416	22.34
803.59	25.5
803.765	27.14
803.94	26.04
804.114	27.88
804.289	22.69
804.463	20.55
804.638	21.57
804.812	17.48
804.986	15.09
805.161	13.38
805.335	11.22
805.51	7.22
805.684	9.07
805.858	9.76
806.033	7.83
806.207	10.8
806.381	12.36
806.556	8.9
806.73	9.46
806.904	11.88
807.078	13.08
807.253	13.57
807.427	16.35
807.601	14.62
807.775	15.37
807.949	17.43
808.123	22.3
808.298	22.01
808.472	23.51
808.646	23.84
808.82	21.12
808.994	21.97
809.168	23.35
809.342	26.14
809.516	29.21
809.69	27.02
809.864	26.61
810.038	21.57
810.212	24.05
810.385	23.6
810.559	22.12
810.733	23.56
810.907	22.4
811.081	23.76
811.255	20.73
811.428	15.92
811.602	11.25
811.776	9.27
811.95	10.95
812.123	8.12
812.297	12.5
812.471	15.17
812.644	14.22
812.818	19.14
812.992	15.74
813.165	10.24
813.339	12.37
813.512	20.24
813.686	21.71
813.86	23.79
814.033	19.61
814.207	18.48
814.38	24.22
814.554	31.24
814.727	21.69
814.9	18.61
815.074	20.81
815.247	19.54
815.421	12.4
815.594	6.12
815.767	-3.51
815.941	8.81
816.114	7.04
816.287	-1.69
816.46	-5.14
816.634	2.84
816.807	10.38
816.98	11.88
817.153	14.86
817.327	19.58
817.5	22.48
817.673	32.55
817.846	25.71
818.019	25.3
818.192	25.44
818.365	17.53
818.538	20.65
818.711	18.3
818.884	16.47
819.057	16.72
819.23	19.3
819.403	15.63
819.576	15.89
819.749	17.63
819.922	21.32
820.095	27.45
820.268	31.15
820.441	30.37
820.614	31.31
820.786	35.04
820.959	32.38
821.132	30.85
821.305	31.87
821.477	30.54
821.65	31.82
821.823	30.63
821.996	29.11
822.168	28.76
822.341	29.47
822.514	29.25
822.686	28.88
822.859	30.74
823.031	30.86
823.204	31.48
823.376	31.65
823.549	31.21
823.722	31.44
823.894	31.18
824.067	32.26
824.239	31.52
824.411	31.88
824.584	31.59
824.756	30.4
824.929	30.7
825.101	30.34
825.273	31.51
825.446	30.91
825.618	31.57
825.79	32.02
825.963	30.84
826.135	33
826.307	33.33
826.479	33.78
826.652	33.84
826.824	33.64
826.996	33.88
827.168	33.9
827.34	33.64
827.512	31.38
827.684	32.1
827.856	31.21
828.029	30.26
828.201	27.65
828.373	26.44
828.545	26.75
828.717	25.14
828.889	22.09
829.061	17.7
829.232	17.59
829.404	18.58
829.576	19.19
829.748	18.26
829.92	17.77
830.092	18.43
830.264	15.39
830.436	14.62
830.607	17.44
830.779	20.63
830.951	23.33
831.123	27.35
831.294	26.88
831.466	23.52
831.638	27.56
831.809	24.63
831.981	21.93
832.153	27.89
832.324	23.22
832.496	21.45
832.667	19.42
832.839	22.38
833.011	17.99
833.182	19.07
833.354	19.09
833.525	19.07
833.697	17.91
833.868	25.2
834.039	23.91
834.211	25.92
834.382	26.07
834.554	28.71
834.725	25.35
834.896	25.38
835.068	24.98
835.239	22.26
835.41	18.68
835.581	19.65
835.753	18.82
835.924	21.36
836.095	22.15
836.266	19.42
836.438	15.75
836.609	17.48
836.78	21.96
836.951	22.01
837.122	21.91
837.293	24.14
837.464	22.22
837.635	15.09
837.806	11.24
837.977	4.85
838.148	8.51
838.319	7.31
838.49	3.91
838.661	-3.14
838.832	0.26
839.003	5.51
839.174	18.22
839.345	21.46
839.516	31.51
839.687	30.38
839.857	38.95
840.028	33.96
840.199	33.94
840.37	31.36
840.54	33.83
840.711	36.25
840.882	35.03
841.053	28.15
841.223	24.3
841.394	17.17
841.564	11.91
841.735	7.89
841.906	17.23
842.076	10.46
842.247	9.72
842.417	6.17
842.588	11.56
842.758	8.11
842.929	8.78
843.099	9.93
843.27	12.71
843.44	32.43
843.611	24.19
843.781	1.51
843.951	24.14
844.122	21.75
844.292	10.74
844.462	-2.56
844.633	0.26
844.803	-27.97
844.973	-15.32
845.144	-21.41
845.314	-34
845.484	-0.11
845.654	1.55
845.824	-9.21
845.995	-2.93
846.165	26.46
846.335	4.45
846.505	14.12
846.675	24.85
846.845	10.76
847.015	22.86
847.185	-4.47
847.355	-21.29
847.525	-4.63
847.695	8.73
847.865	1.21
848.035	-19.67
848.205	-8.06
848.375	-7.21
848.545	10.03
848.715	9.63
848.884	2.57
849.054	12.01
849.224	12.09
849.394	-5.74
849.564	-11.03
849.733	-20.95
849.903	-7
850.073	18.73
850.243	32.11
850.412	24.12
850.582	39.6
850.752	47.29
850.921	59.86
851.091	48.4
851.26	49.83
851.43	52.45
851.599	47.53
851.769	52.74
851.939	32.48
852.108	7.51
852.278	12.74
852.447	-2.91
852.616	-47.55
852.786	-75.84
852.955	-58.76
853.125	-35.33
853.294	-51.51
853.463	-42.68
853.633	-53.59
853.802	-57.17
853.971	-37.3
854.141	-62.7
854.31	-51.78
854.479	0.17
854.648	18.15
854.818	19.66
854.987	25.24
855.156	15.75
855.325	20.94
855.494	-44.52
855.663	-440.19
855.832	-137.92
856.001	-84.62
856.171	-42.26
856.34	-81.55
856.509	-133.6
856.678	-449.29
856.847	-436.55
857.016	-168.79
857.185	-47.9
857.353	7.2
857.522	43.34
857.691	24.58
857.86	-0.51
858.029	-157.59
858.198	-85.73
858.367	-136.52
858.535	-358.1
858.704	-389.45
858.873	1242.3
859.042	740.12
859.21	378.31
859.379	-440.74
859.548	1787.75
859.717	-42.22
859.885	1.49
860.054	-29.11
860.222	-54.01
860.391	-81.78
860.56	-14.47
860.728	-4.9
860.897	-42.03
861.065	-44.06
861.234	-131.86
861.402	-105.65
861.571	-181.88
861.739	-299.36
861.908	-240.08
862.076	-100.8
862.244	-52.87
862.413	-90.01
862.581	-70.12
862.749	-108.17
862.918	-72.23
863.086	-27.48
863.254	-44.54
863.423	-57.46
863.591	-60.81
863.759	-41.68
863.927	-82.95
864.096	-120.44
864.264	-137.13
864.432	-44.4
864.6	-6.57
864.768	-20.08
864.936	-7.97
865.104	-91.9
865.272	6.31
865.44	39.42
865.608	-62.38
865.776	-221.1
865.944	-164.32
866.112	-160.23
866.28	-231.28
866.448	-276.54
866.616	-569.43
866.784	-280.01
866.952	-55.16
867.12	-15.42
867.288	-14.5
867.455	-75.51
867.623	-20.41
867.791	-29.05
867.959	-10.89
868.127	1.05
868.294	41.39
868.462	-30.87
868.63	-295.63
868.797	-1540.87
868.965	-933.11
869.133	-4346.01
869.3	-446.32
869.468	-67.1
869.636	-55.33
869.803	-37.84
869.971	-108.84
870.138	-110.17
870.306	-30.45
870.473	5.8
870.641	1.39
870.808	-1.53
870.975	29.51
871.143	32.52
871.31	19.7
871.478	20.12
871.645	-2.26
871.812	19.62
871.98	33.82
872.147	29.68
872.314	43.17
872.482	46.36
872.649	36.94
872.816	19.55
872.983	18.38
873.15	-18.38
873.318	-52.8
873.485	-20.43
873.652	-26.18
873.819	-28.54
873.986	-26.4
874.153	-47.97
874.32	-51.4
874.487	-92.47
874.654	-154.49
874.821	-98.35
874.988	-43.04
875.155	8.18
875.322	-8.97
875.489	-29.24
875.656	-212.41
875.823	-384.5
875.99	683.86
876.157	598.91
876.324	-1942.46
876.49	-1243.4
876.657	814.52
876.824	1080.71
876.991	-544.82
877.157	-165.23
877.324	-97.99
877.491	-38.3
877.658	-45.15
877.824	-9.21
877.991	2.61
878.157	32.98
878.324	34.86
878.491	19.78
878.657	16.69
878.824	38
878.99	67.57
879.157	56.33
879.323	33.31
879.49	79.94
879.656	85.05
879.823	23.81
879.989	-150.91
880.156	-121.74
880.322	-61.01
880.488	-26.81
880.655	-79.28
880.821	-148.07
880.987	-122
881.154	-56.87
881.32	-19.57
881.486	-2.83
881.652	8.27
881.819	14.51
881.985	19.63
882.151	22.3
882.317	18.11
882.483	19.18
882.649	25.31
882.816	29.51
882.982	27.57
883.148	30.14
883.314	29.58
883.48	29
883.646	30.6
883.812	31.01
883.978	31.15
884.144	31.79
884.31	33.39
884.476	30.94
884.642	31.1
884.807	29.93
884.973	25.34
885.139	23.81
885.305	25.34
885.471	27.15
885.637	24.17
885.802	27.35
885.968	30.69
886.134	31.47
886.3	32.83
886.465	32.97
886.631	32.89
886.797	41.8
886.962	45.43
887.128	41.1
887.293	38.29
887.459	41.15
887.625	29.09
887.79	13.05
887.956	-1.58
888.121	-4.02
888.287	-12.12
888.452	-4.49
888.618	-23.27
888.783	-69.61
