Data from 2937823_Reflection_2.txt Node
Date: Wed Jul 15 17:11:27 EDT 2015
User: robert
Spectrometer: USB4E03001
Autoset integration time: false
Trigger mode: 4
Integration Time (sec): 1.000000E-1
Scans to average: 10
Electric dark correction enabled: true
Nonlinearity correction enabled: false
Boxcar width: 5
Stray light correction enabled: false
XAxis mode: Wavelengths
Stop averaging: false
Number of Pixels in Spectrum: 3648
>>>>>Begin Spectral Data<<<<<
177.566	-301.62
177.785	-78.06
178.005	14.66
178.225	2435
178.445	10.98
178.665	-66.23
178.885	-171.03
179.105	-122.56
179.324	-443.27
179.544	-1827.01
179.764	-75.62
179.984	-201.92
180.204	-21.02
180.423	-40.16
180.643	-633.68
180.863	-37.42
181.083	-107.96
181.302	-225.3
181.522	-485.19
181.742	-139.23
181.961	-427.35
182.181	-802.39
182.401	7235.71
182.621	426.19
182.84	-392.06
183.06	-164.38
183.279	-172.61
183.499	-87.86
183.719	-166.85
183.938	-156.16
184.158	-103.22
184.377	-31.86
184.597	-7.61
184.816	31.79
185.036	31.84
185.256	-12.49
185.475	0.49
185.695	-118.92
185.914	-96.37
186.134	-21.83
186.353	-6.18
186.572	-12.83
186.792	12.32
187.011	-59.25
187.231	-114.31
187.45	-163.92
187.67	-70.55
187.889	-105.44
188.108	-169.36
188.328	-435.69
188.547	-1894.46
188.766	622.01
188.986	764.9
189.205	853.83
189.424	-200.8
189.644	-294.29
189.863	-268.81
190.082	-200.92
190.302	-168.25
190.521	-62.65
190.74	-68.96
190.959	-51.77
191.178	-56.08
191.398	-42.4
191.617	-55.4
191.836	-84.62
192.055	-68.8
192.274	-68.59
192.494	-95.03
192.713	-88.12
192.932	-152.86
193.151	-77.54
193.37	-86.36
193.589	-77.44
193.808	-94.95
194.027	-66.38
194.246	-88.28
194.465	-94.09
194.685	-86.69
194.904	-113.77
195.123	-84.35
195.342	-127.7
195.561	-165.53
195.78	-135.96
195.999	-123.01
196.218	-127.28
196.436	-264.2
196.655	-228.09
196.874	-370.11
197.093	-353.89
197.312	-291.88
197.531	-643.12
197.75	-257.09
197.969	-350.3
198.188	-11142.35
198.407	542.28
198.625	486.95
198.844	677.13
199.063	564.51
199.282	832.63
199.501	398.92
199.719	367.93
199.938	240.9
200.157	294.63
200.376	326.4
200.594	370.96
200.813	1534.5
201.032	-998.86
201.251	-43195
201.469	-2071.71
201.688	-308.44
201.907	-248.74
202.125	-273.41
202.344	-81.32
202.563	-870.43
202.781	-270.78
203	-242.65
203.218	-40.95
203.437	-13.5
203.656	-65.72
203.874	-51.47
204.093	-25.27
204.311	-46.72
204.53	-25.37
204.748	-84.68
204.967	-21.37
205.185	-44.9
205.404	-35.98
205.622	-66.32
205.841	-80.77
206.059	-53.2
206.278	-45.06
206.496	-89.69
206.715	-124.12
206.933	-295.99
207.151	-141.37
207.37	-188.82
207.588	-93.67
207.806	-85.28
208.025	-242.12
208.243	-383.92
208.461	2592.49
208.68	1220.8
208.898	569.82
209.116	116.18
209.335	39.38
209.553	118.12
209.771	118.28
209.989	225
210.208	214.28
210.426	288.29
210.644	1273.01
210.862	1368.65
211.081	1017.94
211.299	-126571.43
211.517	-222.83
211.735	-187.96
211.953	-107.15
212.171	-145.74
212.39	-233.95
212.608	-204.32
212.826	-206.73
213.044	-93.8
213.262	-86.01
213.48	-29.04
213.698	-44.58
213.916	-60.6
214.134	-73.51
214.352	-68
214.57	-59.67
214.788	-65.15
215.006	-34.85
215.224	-29.64
215.442	-63.19
215.66	-77.41
215.878	-80.21
216.096	-66.97
216.314	-45.82
216.532	-72.79
216.75	-87.67
216.968	-88.88
217.185	-88.29
217.403	-145.24
217.621	-224.24
217.839	-202.09
218.057	-476.81
218.275	-884.7
218.492	-329.9
218.71	-3545.78
218.928	714.24
219.146	389.1
219.363	210.8
219.581	172.82
219.799	207.06
220.017	156.52
220.234	162.79
220.452	335.05
220.67	372.93
220.887	114.67
221.105	63.51
221.323	72.28
221.54	100.04
221.758	181.34
221.976	162.74
222.193	343.56
222.411	456.35
222.629	180.26
222.846	150.47
223.064	148.11
223.281	148.65
223.499	151.32
223.716	219.25
223.934	239.5
224.151	166.4
224.369	176.69
224.586	158.43
224.804	111.21
225.021	157.62
225.239	164.02
225.456	129.86
225.674	176.46
225.891	176.53
226.108	123.88
226.326	97.73
226.543	104.28
226.76	101.33
226.978	78.74
227.195	78.68
227.413	62.65
227.63	60.42
227.847	53.84
228.064	49.47
228.282	43.48
228.499	40.35
228.716	37.49
228.934	35.72
229.151	36.34
229.368	36.28
229.585	38.17
229.802	39.59
230.02	37.52
230.237	38.63
230.454	38.76
230.671	41.05
230.888	45.7
231.105	48.28
231.323	51.29
231.54	50.41
231.757	44.86
231.974	42.82
232.191	38.71
232.408	48.96
232.625	52.88
232.842	55.61
233.059	49.6
233.276	45.54
233.493	44.26
233.71	38.2
233.927	42.92
234.144	52.61
234.361	49.88
234.578	49.33
234.795	42.13
235.012	38.18
235.229	36.36
235.446	38.9
235.663	33.28
235.879	38.61
236.096	44.89
236.313	44.06
236.53	42.64
236.747	46.81
236.964	48.27
237.181	43.37
237.397	46.22
237.614	49.13
237.831	54.02
238.048	62.2
238.264	56.07
238.481	59.06
238.698	52.76
238.915	55.59
239.131	54.96
239.348	57.6
239.565	59.72
239.781	60.85
239.998	53.66
240.215	49.65
240.431	45.6
240.648	44.49
240.865	41.76
241.081	40.4
241.298	36.17
241.514	34.09
241.731	32.9
241.947	32.07
242.164	30.21
242.38	31.13
242.597	29.9
242.814	27.6
243.03	26.04
243.246	25.28
243.463	25.24
243.679	27.19
243.896	25.64
244.112	26.82
244.329	26.25
244.545	24.32
244.762	24.44
244.978	26.71
245.194	29.29
245.411	28.25
245.627	27.44
245.843	27.4
246.06	23.58
246.276	24.18
246.492	22.75
246.709	22.38
246.925	22.79
247.141	21.79
247.357	20.8
247.574	19.72
247.79	19.79
248.006	19.82
248.222	19.64
248.439	21.29
248.655	21.02
248.871	20.97
249.087	21.83
249.303	22.64
249.519	22.38
249.736	22.07
249.952	24.45
250.168	26.08
250.384	24.27
250.6	23.65
250.816	22.14
251.032	26.19
251.248	24.13
251.464	22.57
251.68	21.98
251.896	23.55
252.112	24.37
252.328	23.69
252.544	25.68
252.76	24.84
252.976	24.24
253.192	25.81
253.408	24.55
253.624	26.55
253.84	29.13
254.056	29.27
254.272	27.18
254.487	29.52
254.703	29.36
254.919	25.1
255.135	29.69
255.351	33.16
255.567	29.27
255.782	29.32
255.998	29.99
256.214	23.37
256.43	24.82
256.646	27.47
256.861	24.09
257.077	23.26
257.293	23.99
257.508	23.1
257.724	20.62
257.94	20.81
258.155	19.99
258.371	17.83
258.587	18.32
258.802	17.89
259.018	17.77
259.234	18.83
259.449	17.51
259.665	18.05
259.88	17.67
260.096	18.75
260.312	18.51
260.527	18.22
260.743	18.6
260.958	18.7
261.174	18.38
261.389	17.86
261.605	16.37
261.82	17.92
262.036	17.35
262.251	18.68
262.466	18.13
262.682	18.71
262.897	20.51
263.113	21.08
263.328	21.3
263.543	20.57
263.759	21.65
263.974	24.11
264.189	25.81
264.405	23.22
264.62	24.08
264.835	22.99
265.051	22.52
265.266	23.27
265.481	20.98
265.696	21.02
265.912	22.46
266.127	22.44
266.342	22.71
266.557	21.92
266.773	23.2
266.988	22.45
267.203	22.45
267.418	21.07
267.633	19
267.848	21.32
268.064	20
268.279	19.64
268.494	19.83
268.709	19.21
268.924	16.31
269.139	17.39
269.354	14.44
269.569	14.56
269.784	13.6
269.999	13.01
270.214	11.64
270.429	11.72
270.644	12.29
270.859	12.56
271.074	11.82
271.289	13.41
271.504	11.14
271.719	11.16
271.934	11.41
272.149	12.32
272.363	11.92
272.578	12.14
272.793	13.79
273.008	14.49
273.223	14.5
273.438	15.56
273.653	14.68
273.867	14.87
274.082	17.57
274.297	17.33
274.512	19.04
274.726	20.28
274.941	19.63
275.156	19.65
275.371	17.58
275.585	17.66
275.8	15.76
276.015	17.99
276.229	20.36
276.444	19.55
276.659	19.87
276.873	18.87
277.088	17.38
277.302	17.02
277.517	18.07
277.732	19.27
277.946	18.5
278.161	18.48
278.375	17.77
278.59	16.17
278.804	14.99
279.019	12.69
279.233	13.23
279.448	15.39
279.662	16.37
279.877	14.92
280.091	14.46
280.306	14.96
280.52	14.6
280.735	15.91
280.949	16.02
281.163	16.87
281.378	18.3
281.592	18.09
281.806	15.67
282.021	15.34
282.235	13.65
282.449	11.85
282.664	11.93
282.878	12.98
283.092	10.7
283.307	11.38
283.521	11.54
283.735	12.63
283.949	13.15
284.164	14.42
284.378	14.12
284.592	15.14
284.806	16.38
285.02	16.65
285.234	15.99
285.449	17.5
285.663	18.87
285.877	18.76
286.091	18.59
286.305	18.88
286.519	18.89
286.733	18.89
286.947	19.46
287.161	21.08
287.375	20.75
287.589	22.29
287.803	22.74
288.017	21.74
288.231	20.08
288.445	19.76
288.659	19.23
288.873	18.46
289.087	17.82
289.301	17.71
289.515	16.68
289.729	16.69
289.943	15.44
290.157	15.22
290.371	14.8
290.584	16.58
290.798	17.28
291.012	17.78
291.226	19
291.44	19.21
291.654	18.78
291.867	18.97
292.081	19.83
292.295	19.38
292.509	18.36
292.722	17.56
292.936	19.47
293.15	20.22
293.364	19.22
293.577	18.35
293.791	19.91
294.005	20.17
294.218	19.39
294.432	17.62
294.645	19.48
294.859	21.27
295.073	22.98
295.286	21.2
295.5	20.08
295.713	19.96
295.927	20.14
296.14	20.37
296.354	21.12
296.568	21.4
296.781	21.75
296.994	21.15
297.208	20.55
297.421	19.76
297.635	19.64
297.848	19.49
298.062	20.62
298.275	20.89
298.489	20.94
298.702	20.1
298.915	19.4
299.129	19.93
299.342	20.93
299.555	20.86
299.769	20.83
299.982	21.67
300.195	22.63
300.409	20.26
300.622	19.94
300.835	18.99
301.048	18.48
301.262	19.85
301.475	19.69
301.688	20.73
301.901	20.08
302.115	18.82
302.328	17.15
302.541	14.86
302.754	15.17
302.967	14.39
303.18	13.47
303.393	14.39
303.607	13.18
303.82	13.84
304.033	10.01
304.246	10.75
304.459	12.15
304.672	12.74
304.885	13.5
305.098	13.38
305.311	14.26
305.524	14.31
305.737	13.99
305.95	14.91
306.163	15.07
306.376	18.03
306.589	17.87
306.802	17.96
307.015	17.62
307.228	17.05
307.44	16.49
307.653	17.27
307.866	18.24
308.079	18.38
308.292	17.9
308.505	15.79
308.718	16.35
308.93	14.66
309.143	13.33
309.356	13.26
309.569	13.91
309.781	14.81
309.994	15.72
310.207	16.63
310.42	16.88
310.632	16.9
310.845	17.68
311.058	18.18
311.27	18.88
311.483	19.38
311.696	20.73
311.908	21.69
312.121	22.77
312.333	22.04
312.546	20.07
312.759	20.59
312.971	19.5
313.184	21.3
313.396	19.42
313.609	20.2
313.821	21.49
314.034	20.52
314.246	18.18
314.459	18.06
314.671	16.86
314.884	20.2
315.096	18.58
315.309	20.48
315.521	19.19
315.733	17.97
315.946	17.14
316.158	16.25
316.371	16.74
316.583	18.41
316.795	17.41
317.008	18.06
317.22	16.16
317.432	18.19
317.644	18.27
317.857	18.72
318.069	20.16
318.281	20.08
318.494	21.64
318.706	21.37
318.918	22.41
319.13	22.21
319.342	20.47
319.555	21.08
319.767	19.23
319.979	16.48
320.191	15.95
320.403	14.26
320.615	15.18
320.827	12.59
321.039	12.11
321.252	9.41
321.464	10.03
321.676	11.82
321.888	11.27
322.1	12.37
322.312	13.09
322.524	12.22
322.736	12.36
322.948	12.31
323.16	14.96
323.372	14.76
323.584	16.11
323.796	16.28
324.007	15.53
324.219	16.41
324.431	15.48
324.643	15.22
324.855	16.12
325.067	16.57
325.279	17.52
325.491	16.73
325.702	15.88
325.914	15.93
326.126	14.65
326.338	14.77
326.55	14.41
326.761	13.87
326.973	15.68
327.185	15.47
327.396	15.91
327.608	15.28
327.82	15.43
328.032	17
328.243	15.88
328.455	16.21
328.666	16.01
328.878	15.98
329.09	16.47
329.301	14.83
329.513	15.44
329.725	13.85
329.936	15.1
330.148	15.07
330.359	14.85
330.571	15.65
330.782	16.63
330.994	17.23
331.205	17.03
331.417	17.59
331.628	18.51
331.84	16.89
332.051	18.49
332.262	16.18
332.474	14.64
332.685	14.05
332.897	14.91
333.108	14.9
333.319	14.96
333.531	16.45
333.742	16.13
333.953	16.72
334.165	17.22
334.376	17.48
334.587	17.77
334.799	18.69
335.01	19.86
335.221	19.3
335.432	19.18
335.644	20.22
335.855	19.59
336.066	20.03
336.277	18.74
336.488	17.61
336.7	17.64
336.911	17.13
337.122	18.04
337.333	16.89
337.544	17.57
337.755	19.28
337.966	18.81
338.177	18
338.388	17.29
338.599	18.51
338.811	18.67
339.022	17.35
339.233	17.63
339.444	15.33
339.655	15.09
339.866	14.48
340.076	12.22
340.287	10.14
340.498	10.59
340.709	9.86
340.92	8.56
341.131	9.71
341.342	9.98
341.553	9.79
341.764	10.65
341.975	12.03
342.185	12.56
342.396	14.56
342.607	17.06
342.818	17.26
343.029	17.88
343.239	19.43
343.45	18.49
343.661	19.39
343.872	20.03
344.082	20.67
344.293	19.88
344.504	19.07
344.714	17.12
344.925	16.76
345.136	18.04
345.346	18.86
345.557	16.67
345.768	17.74
345.978	17.41
346.189	17.79
346.399	17.02
346.61	17.58
346.821	16.78
347.031	17.31
347.242	16.68
347.452	14.55
347.663	13.93
347.873	14.85
348.084	13.46
348.294	13.73
348.504	13.32
348.715	15.1
348.925	14.19
349.136	16.47
349.346	15.05
349.557	14.13
349.767	13.79
349.977	15.32
350.188	16.05
350.398	16.4
350.608	16.64
350.819	15.89
351.029	15.32
351.239	15.96
351.449	13.52
351.66	14.36
351.87	15.54
352.08	15.45
352.29	15
352.501	15.83
352.711	16.88
352.921	15.76
353.131	17.58
353.341	16.77
353.552	16.78
353.762	17.35
353.972	18.32
354.182	18.18
354.392	18.92
354.602	17.86
354.812	16.11
355.022	15.95
355.232	15.56
355.442	14.87
355.652	14.68
355.862	14.46
356.072	14.19
356.282	14.27
356.492	13.35
356.702	13.41
356.912	13.38
357.122	14.43
357.332	14.58
357.542	15.58
357.752	15.11
357.962	14.9
358.171	14.83
358.381	15.66
358.591	15.54
358.801	16.81
359.011	16.64
359.221	16.14
359.43	15.22
359.64	14.43
359.85	13.85
360.06	13.32
360.269	12.99
360.479	13.24
360.689	12.7
360.899	12.38
361.108	10.66
361.318	10.83
361.528	11.17
361.737	11.36
361.947	11.6
362.156	11.11
362.366	11.31
362.576	11.44
362.785	10.69
362.995	10.61
363.204	10.18
363.414	10.84
363.623	10.14
363.833	9.95
364.042	10.25
364.252	9.56
364.461	9.96
364.671	10.8
364.88	10.81
365.09	11.83
365.299	11.2
365.509	11.49
365.718	12.55
365.927	13.32
366.137	14.2
366.346	14.23
366.555	14.27
366.765	13.34
366.974	12.51
367.183	12.25
367.393	10.94
367.602	12.1
367.811	12.73
368.021	11.88
368.23	11.57
368.439	11.67
368.648	11.25
368.857	12.22
369.067	12.75
369.276	12.89
369.485	13.08
369.694	13.93
369.903	13.48
370.112	12.32
370.321	11.96
370.531	12.68
370.74	11.63
370.949	11.64
371.158	10.94
371.367	10.12
371.576	10.1
371.785	10.55
371.994	10.59
372.203	10.6
372.412	10.88
372.621	11.03
372.83	10.74
373.039	10.32
373.248	10.27
373.457	9.57
373.666	9.58
373.874	9.2
374.083	8.33
374.292	7.93
374.501	7.96
374.71	8.21
374.919	7.97
375.128	6.98
375.336	8.07
375.545	7.84
375.754	9.01
375.963	9.02
376.171	9.01
376.38	9.46
376.589	9.2
376.798	8.88
377.006	9.41
377.215	9.31
377.424	9.48
377.632	9.13
377.841	9.18
378.05	8.58
378.258	9.34
378.467	9.16
378.675	8.79
378.884	9.37
379.093	9.49
379.301	8.53
379.51	7.9
379.718	8.68
379.927	8.95
380.135	8.57
380.344	8.63
380.552	8.41
380.761	8.42
380.969	8.36
381.177	7.91
381.386	7.82
381.594	8.1
381.803	8.84
382.011	8.4
382.219	7.82
382.428	8.74
382.636	8.68
382.845	9.77
383.053	10.27
383.261	10.1
383.469	9.64
383.678	9.3
383.886	9.3
384.094	9.08
384.302	9.33
384.511	9.17
384.719	8.49
384.927	8.7
385.135	8.07
385.343	7.77
385.552	8.14
385.76	8.1
385.968	8.87
386.176	8.68
386.384	8.91
386.592	8.3
386.8	8.54
387.008	8.85
387.216	8.66
387.424	8.5
387.633	8.94
387.841	8.93
388.049	9.46
388.257	9.12
388.465	9.21
388.672	8.98
388.88	9.41
389.088	9.73
389.296	9.88
389.504	9.74
389.712	9.77
389.92	9.37
390.128	9.2
390.336	8.78
390.544	8.78
390.751	8.71
390.959	8.88
391.167	8.81
391.375	8.31
391.583	8.11
391.79	7.9
391.998	7.94
392.206	7.9
392.414	7.62
392.621	7.99
392.829	7.9
393.037	8.04
393.244	7.82
393.452	7.66
393.66	7.94
393.867	7.81
394.075	7.94
394.283	7.83
394.49	7.57
394.698	8.21
394.905	8
395.113	8.03
395.32	7.69
395.528	7.98
395.735	7.8
395.943	7.6
396.15	7.38
396.358	7.64
396.565	7.28
396.773	7.53
396.98	7.12
397.188	7.08
397.395	6.84
397.602	6.9
397.81	6.65
398.017	6.86
398.225	7.16
398.432	7.2
398.639	6.9
398.847	7.27
399.054	7.07
399.261	7
399.468	7.29
399.676	7.55
399.883	7.49
400.09	7.62
400.297	7.53
400.505	7.26
400.712	7.34
400.919	7.4
401.126	7.17
401.333	6.95
401.54	7.09
401.748	6.91
401.955	6.81
402.162	6.72
402.369	6.46
402.576	6.66
402.783	6.77
402.99	6.72
403.197	6.81
403.404	6.92
403.611	7.48
403.818	7.5
404.025	7.27
404.232	7.32
404.439	7.41
404.646	7.49
404.853	7.39
405.06	7.63
405.267	7.5
405.474	7.53
405.681	7.67
405.887	7.39
406.094	7.31
406.301	7.47
406.508	7.18
406.715	7.35
406.922	7.73
407.128	7.68
407.335	6.92
407.542	6.94
407.749	6.5
407.955	6.41
408.162	6.38
408.369	6.61
408.575	6.38
408.782	6.8
408.989	6.53
409.195	6.38
409.402	6.16
409.609	6.51
409.815	6.77
410.022	7.16
410.228	6.73
410.435	6.96
410.642	6.83
410.848	6.99
411.055	6.74
411.261	6.83
411.468	6.5
411.674	6.81
411.881	6.77
412.087	6.67
412.294	6.38
412.5	6.73
412.706	6.54
412.913	6.57
413.119	6.72
413.326	6.64
413.532	7.15
413.738	7.6
413.945	7.41
414.151	7.59
414.357	7.74
414.564	7.91
414.77	7.9
414.976	8.1
415.182	8.1
415.389	7.59
415.595	7.6
415.801	7.43
416.007	7.3
416.214	7.45
416.42	7.11
416.626	6.83
416.832	6.71
417.038	6.59
417.244	6.82
417.45	6.59
417.657	7.08
417.863	7.02
418.069	6.78
418.275	6.5
418.481	6.58
418.687	6.72
418.893	6.9
419.099	6.92
419.305	7.17
419.511	6.74
419.717	6.66
419.923	6.54
420.129	6.64
420.335	6.75
420.541	6.78
420.746	6.73
420.952	6.65
421.158	6.56
421.364	6.51
421.57	6.43
421.776	6.5
421.982	6.64
422.187	6.58
422.393	6.35
422.599	6.21
422.805	6.28
423.01	6.14
423.216	6.19
423.422	6.05
423.628	6.15
423.833	5.9
424.039	5.7
424.245	5.8
424.45	5.64
424.656	5.83
424.862	5.88
425.067	5.74
425.273	5.84
425.478	5.86
425.684	5.8
425.889	5.73
426.095	5.81
426.301	6.01
426.506	5.58
426.712	5.81
426.917	5.83
427.123	5.69
427.328	5.76
427.533	5.75
427.739	5.49
427.944	5.55
428.15	5.67
428.355	5.72
428.561	5.77
428.766	5.93
428.971	5.66
429.177	5.52
429.382	5.61
429.587	5.64
429.793	5.59
429.998	5.91
430.203	6.1
430.408	6.06
430.614	6.17
430.819	6.08
431.024	6.17
431.229	6.25
431.434	6.52
431.64	6.37
431.845	6.66
432.05	6.65
432.255	6.58
432.46	6.51
432.665	6.33
432.87	6.21
433.076	6.25
433.281	6.28
433.486	6.34
433.691	6.13
433.896	6.41
434.101	6.02
434.306	5.73
434.511	5.62
434.716	5.72
434.921	5.67
435.126	5.52
435.331	5.62
435.535	5.66
435.74	5.63
435.945	5.65
436.15	5.35
436.355	5.64
436.56	5.69
436.765	5.78
436.97	5.63
437.174	6.01
437.379	6.06
437.584	6.03
437.789	5.88
437.993	6.02
438.198	5.91
438.403	6.05
438.608	6.01
438.812	6.17
439.017	6.15
439.222	6.21
439.426	6.11
439.631	6.2
439.836	6.09
440.04	6.23
440.245	6.1
440.45	6.09
440.654	5.89
440.859	5.96
441.063	6.03
441.268	5.91
441.472	5.86
441.677	5.76
441.881	5.76
442.086	5.73
442.29	5.72
442.495	5.76
442.699	5.77
442.904	5.88
443.108	5.74
443.312	5.46
443.517	5.66
443.721	5.71
443.925	5.65
444.13	5.6
444.334	5.76
444.538	5.73
444.743	5.71
444.947	5.81
445.151	5.78
445.356	5.7
445.56	5.82
445.764	5.76
445.968	5.77
446.173	5.74
446.377	5.72
446.581	5.76
446.785	5.6
446.989	5.46
447.193	5.42
447.398	5.59
447.602	5.43
447.806	5.49
448.01	5.42
448.214	5.58
448.418	5.55
448.622	5.64
448.826	5.47
449.03	5.52
449.234	5.65
449.438	5.69
449.642	5.5
449.846	5.7
450.05	5.69
450.254	5.63
450.458	5.19
450.662	5.3
450.866	4.94
451.069	5.03
451.273	5.22
451.477	5.16
451.681	5.01
451.885	5.12
452.089	5.31
452.292	5.27
452.496	5.47
452.7	5.57
452.904	5.71
453.107	6.27
453.311	6.11
453.515	5.96
453.719	6.15
453.922	6.11
454.126	6.06
454.33	5.71
454.533	5.61
454.737	5.53
454.94	5.5
455.144	5.49
455.348	5.17
455.551	5.28
455.755	5.24
455.958	4.88
456.162	5.09
456.365	4.95
456.569	5.27
456.772	5.44
456.976	5.5
457.179	5.53
457.383	5.25
457.586	5.08
457.79	5.03
457.993	5.07
458.196	5.26
458.4	5.18
458.603	5.21
458.807	5.13
459.01	5.05
459.213	5.01
459.417	4.98
459.62	5.09
459.823	5.26
460.026	5.27
460.23	5.36
460.433	5.33
460.636	5.5
460.839	5.59
461.042	5.67
461.246	5.59
461.449	5.6
461.652	5.64
461.855	5.59
462.058	5.45
462.261	5.61
462.464	5.5
462.668	5.6
462.871	5.4
463.074	5.34
463.277	5.09
463.48	5.11
463.683	5.21
463.886	5.4
464.089	5.63
464.292	5.56
464.495	5.5
464.698	5.32
464.901	5.22
465.104	5.13
465.306	5.16
465.509	5.1
465.712	5.19
465.915	5.07
466.118	4.79
466.321	4.56
466.524	4.53
466.726	4.4
466.929	4.54
467.132	4.52
467.335	4.52
467.538	4.5
467.74	4.65
467.943	4.5
468.146	4.56
468.348	4.77
468.551	4.93
468.754	5.15
468.956	5.3
469.159	5.59
469.362	5.6
469.564	5.64
469.767	5.46
469.969	5.59
470.172	5.8
470.375	5.62
470.577	5.64
470.78	5.53
470.982	5.44
471.185	5.25
471.387	5.1
471.59	5.13
471.792	5.27
471.995	5.37
472.197	5.29
472.399	5.12
472.602	5.21
472.804	5.14
473.007	5.08
473.209	5.27
473.411	5.31
473.614	5.34
473.816	5.5
474.018	5.41
474.22	5.44
474.423	5.49
474.625	5.48
474.827	5.69
475.03	5.64
475.232	5.7
475.434	5.57
475.636	5.64
475.838	5.68
476.04	5.6
476.243	5.58
476.445	5.75
476.647	5.78
476.849	5.91
477.051	5.69
477.253	5.65
477.455	5.6
477.657	5.67
477.859	5.78
478.061	5.74
478.263	5.76
478.465	5.98
478.667	5.69
478.869	5.56
479.071	5.64
479.273	5.82
479.475	5.8
479.677	5.71
479.879	5.75
480.081	5.59
480.283	5.5
480.485	5.49
480.686	5.35
480.888	5.44
481.09	5.41
481.292	5.4
481.494	5.28
481.695	5.35
481.897	5.41
482.099	5.45
482.301	5.44
482.502	5.41
482.704	5.31
482.906	5.22
483.107	5.27
483.309	5.23
483.511	5.2
483.712	5.17
483.914	5.16
484.115	5.12
484.317	4.98
484.519	5.03
484.72	5.02
484.922	5.02
485.123	5.01
485.325	5.02
485.526	5.07
485.728	5.07
485.929	5.07
486.131	5.03
486.332	5.13
486.534	5.18
486.735	5.08
486.936	5.11
487.138	5.17
487.339	5.22
487.541	5.12
487.742	5.03
487.943	4.99
488.144	5.02
488.346	5.14
488.547	5.13
488.748	5.1
488.95	5.09
489.151	5.1
489.352	5.05
489.553	5.03
489.755	5.09
489.956	5.14
490.157	5.1
490.358	5.12
490.559	4.95
490.76	4.84
490.961	4.85
491.163	4.87
491.364	4.87
491.565	4.77
491.766	4.7
491.967	4.66
492.168	4.73
492.369	4.79
492.57	4.85
492.771	4.9
492.972	4.91
493.173	4.91
493.374	4.89
493.575	4.87
493.776	5
493.976	4.96
494.177	4.98
494.378	4.88
494.579	4.74
494.78	4.57
494.981	4.49
495.182	4.77
495.382	4.93
495.583	4.99
495.784	4.88
495.985	4.87
496.185	4.91
496.386	5.15
496.587	5.14
496.788	5.26
496.988	5.21
497.189	5.26
497.39	5.12
497.59	5.09
497.791	5.06
497.992	5.16
498.192	5.19
498.393	5.34
498.593	5.23
498.794	5.28
498.994	5.29
499.195	5.41
499.395	5.36
499.596	5.31
499.796	5.22
499.997	5.37
500.197	5.35
500.398	5.35
500.598	5.27
500.799	5.03
500.999	4.92
501.199	4.88
501.4	4.74
501.6	4.72
501.801	4.81
502.001	4.94
502.201	4.95
502.402	5.08
502.602	5.21
502.802	5.37
503.002	5.61
503.203	5.81
503.403	5.88
503.603	6.04
503.803	6.13
504.003	6.25
504.204	6.24
504.404	6.07
504.604	5.85
504.804	5.86
505.004	5.9
505.204	5.92
505.404	5.87
505.604	5.94
505.804	5.84
506.005	6.04
506.205	5.82
506.405	5.75
506.605	5.67
506.805	5.84
507.005	5.78
507.204	5.63
507.404	5.46
507.604	5.5
507.804	5.54
508.004	5.77
508.204	5.68
508.404	5.88
508.604	5.94
508.804	6
509.003	6.06
509.203	6.17
509.403	6.33
509.603	6.42
509.803	6.37
510.002	6.31
510.202	6.21
510.402	6.15
510.602	5.95
510.801	5.97
511.001	6.09
511.201	6.02
511.4	5.94
511.6	5.98
511.8	5.98
511.999	6.06
512.199	6.01
512.398	5.97
512.598	5.96
512.797	6.2
512.997	6.08
513.197	6.08
513.396	6.15
513.596	6.18
513.795	6.05
513.994	6.19
514.194	6.25
514.393	6.29
514.593	6.52
514.792	6.54
514.992	6.44
515.191	6.72
515.39	6.73
515.59	6.86
515.789	6.89
515.988	7
516.188	6.98
516.387	6.96
516.586	6.97
516.786	6.79
516.985	6.86
517.184	6.97
517.383	6.93
517.582	6.98
517.782	6.89
517.981	6.91
518.18	7.01
518.379	7.02
518.578	7
518.777	7.13
518.976	7.22
519.176	7.27
519.375	7.26
519.574	7.22
519.773	7.32
519.972	7.41
520.171	7.43
520.37	7.35
520.569	7.39
520.768	7.41
520.967	7.35
521.166	7.24
521.365	7.24
521.564	7.26
521.762	7.27
521.961	7.19
522.16	7.16
522.359	7.13
522.558	7.03
522.757	7.2
522.956	7.34
523.154	7.41
523.353	7.52
523.552	7.56
523.751	7.73
523.949	7.75
524.148	7.87
524.347	7.77
524.546	7.94
524.744	8.1
524.943	8.04
525.142	8.05
525.34	8.09
525.539	8.09
525.737	7.99
525.936	7.78
526.135	7.75
526.333	7.72
526.532	7.79
526.73	7.64
526.929	7.72
527.127	7.59
527.326	7.54
527.524	7.57
527.723	7.58
527.921	7.69
528.12	7.73
528.318	7.78
528.516	7.84
528.715	7.9
528.913	7.99
529.112	7.97
529.31	8.07
529.508	8.1
529.707	8.13
529.905	8.23
530.103	8.26
530.301	8.27
530.5	8.31
530.698	8.24
530.896	8.3
531.094	8.28
531.293	8.29
531.491	8.34
531.689	8.41
531.887	8.26
532.085	8.22
532.283	8.23
532.481	8.37
532.68	8.49
532.878	8.44
533.076	8.37
533.274	8.43
533.472	8.44
533.67	8.44
533.868	8.45
534.066	8.53
534.264	8.58
534.462	8.57
534.66	8.6
534.858	8.67
535.056	8.82
535.253	8.87
535.451	8.82
535.649	8.94
535.847	9.01
536.045	9.06
536.243	9.18
536.441	9.17
536.638	9.26
536.836	9.28
537.034	9.18
537.232	9.22
537.43	9.29
537.627	9.36
537.825	9.39
538.023	9.43
538.22	9.38
538.418	9.47
538.616	9.39
538.813	9.36
539.011	9.43
539.209	9.46
539.406	9.55
539.604	9.57
539.801	9.72
539.999	9.82
540.196	9.91
540.394	10.13
540.591	10.23
540.789	10.38
540.986	10.5
541.184	10.53
541.381	10.57
541.579	10.65
541.776	10.75
541.974	10.8
542.171	10.77
542.368	10.84
542.566	10.79
542.763	10.8
542.96	10.91
543.158	10.97
543.355	11.05
543.552	11.16
543.75	11.17
543.947	11.19
544.144	11.08
544.341	11.21
544.539	11.16
544.736	11.22
544.933	11.18
545.13	11.26
545.327	11.28
545.524	11.24
545.722	11.24
545.919	11.38
546.116	11.45
546.313	11.61
546.51	11.61
546.707	11.69
546.904	11.68
547.101	11.89
547.298	11.86
547.495	11.88
547.692	11.99
547.889	12.06
548.086	12.04
548.283	11.99
548.48	12.26
548.677	12.42
548.874	12.38
549.07	12.7
549.267	12.66
549.464	12.59
549.661	12.73
549.858	12.72
550.055	12.86
550.251	12.98
550.448	13.13
550.645	12.96
550.842	12.87
551.038	13.09
551.235	13.05
551.432	13.1
551.628	13.19
551.825	13.31
552.022	13.45
552.218	13.46
552.415	13.25
552.612	13.27
552.808	13.2
553.005	13.28
553.201	13.34
553.398	13.41
553.594	13.62
553.791	13.8
553.987	13.67
554.184	13.61
554.38	13.65
554.577	13.94
554.773	14.1
554.97	14.42
555.166	14.49
555.362	14.58
555.559	14.43
555.755	14.32
555.952	14.36
556.148	14.47
556.344	14.94
556.541	15.15
556.737	15.32
556.933	15.52
557.129	15.46
557.326	15.63
557.522	15.55
557.718	15.87
557.914	15.95
558.11	15.85
558.307	15.94
558.503	15.8
558.699	15.68
558.895	15.59
559.091	15.53
559.287	15.48
559.483	15.49
559.679	15.64
559.876	15.56
560.072	15.51
560.268	15.72
560.464	15.72
560.66	15.73
560.856	15.82
561.052	15.76
561.247	15.92
561.443	16.21
561.639	16.34
561.835	16.5
562.031	16.76
562.227	16.82
562.423	16.9
562.619	17.04
562.815	17.15
563.01	17.03
563.206	17.09
563.402	16.97
563.598	17.15
563.793	17.13
563.989	17.19
564.185	16.98
564.381	16.98
564.576	16.85
564.772	16.92
564.968	16.85
565.163	17.11
565.359	17.33
565.555	17.54
565.75	17.46
565.946	17.47
566.141	17.57
566.337	17.63
566.532	17.73
566.728	17.84
566.923	17.85
567.119	17.95
567.314	17.94
567.51	17.83
567.705	17.83
567.901	17.75
568.096	17.97
568.292	17.95
568.487	18.04
568.682	18.32
568.878	18.42
569.073	18.51
569.268	18.39
569.464	18.51
569.659	18.78
569.854	18.8
570.05	18.91
570.245	18.79
570.44	18.89
570.635	18.96
570.831	18.88
571.026	19.12
571.221	19.11
571.416	19.44
571.611	19.47
571.806	19.39
572.002	19.24
572.197	19.31
572.392	19.31
572.587	19.37
572.782	19.49
572.977	19.61
573.172	19.5
573.367	19.59
573.562	19.6
573.757	19.87
573.952	19.95
574.147	20.18
574.342	20.13
574.537	20.31
574.732	20.44
574.927	20.52
575.121	20.33
575.316	20.39
575.511	20.44
575.706	20.61
575.901	20.33
576.096	20.57
576.29	20.51
576.485	20.61
576.68	20.56
576.875	20.34
577.069	20.3
577.264	20.44
577.459	20.4
577.654	20.34
577.848	19.9
578.043	20.01
578.238	19.93
578.432	20.16
578.627	20.26
578.821	20.44
579.016	20.65
579.21	20.6
579.405	20.31
579.6	20.2
579.794	20.29
579.989	20.74
580.183	21.12
580.378	20.83
580.572	20.8
580.766	20.39
580.961	20.57
581.155	20.59
581.35	20.8
581.544	21.16
581.738	21.53
581.933	21.69
582.127	21.49
582.321	21.14
582.516	21.28
582.71	21.34
582.904	21.91
583.099	21.84
583.293	21.77
583.487	21.58
583.681	21.44
583.875	21.39
584.07	21.17
584.264	21.29
584.458	21.46
584.652	21.7
584.846	21.78
585.04	21.78
585.234	21.53
585.428	21.65
585.623	21.95
585.817	22.4
586.011	22.3
586.205	22.71
586.399	22.65
586.593	22.76
586.787	23.01
586.981	23.02
587.174	22.81
587.368	23.08
587.562	22.89
587.756	22.47
587.95	22.33
588.144	22.64
588.338	22.3
588.532	22.56
588.725	22.59
588.919	22.09
589.113	22.07
589.307	22.52
589.501	22.45
589.694	22.67
589.888	23.03
590.082	23
590.275	22.81
590.469	23.09
590.663	23.18
590.856	23.2
591.05	23.53
591.244	23.7
591.437	23.45
591.631	23.33
591.824	23.25
592.018	23.24
592.212	23.59
592.405	23.6
592.599	23.8
592.792	23.82
592.986	23.73
593.179	23.76
593.372	23.67
593.566	23.76
593.759	23.82
593.953	23.98
594.146	23.76
594.339	23.59
594.533	23.5
594.726	23.39
594.92	23.34
595.113	23.16
595.306	23.05
595.499	22.91
595.693	22.94
595.886	23.11
596.079	23.11
596.272	23.51
596.466	23.51
596.659	23.59
596.852	23.51
597.045	23.54
597.238	23.98
597.431	24.11
597.624	24.19
597.818	24.35
598.011	24.28
598.204	24.12
598.397	23.81
598.59	23.72
598.783	23.98
598.976	24.07
599.169	24.2
599.362	23.97
599.555	24.02
599.748	24.28
599.941	24.08
600.134	23.94
600.326	24.63
600.519	25.2
600.712	25.39
600.905	25.13
601.098	25.05
601.291	24.8
601.483	24.81
601.676	25.05
601.869	24.98
602.062	24.93
602.255	25.27
602.447	25.15
602.64	25.2
602.833	25.45
603.025	25.6
603.218	25.95
603.411	26.04
603.603	25.83
603.796	25.68
603.989	25.79
604.181	25.93
604.374	25.72
604.566	25.66
604.759	25.42
604.951	25.51
605.144	25.47
605.336	25.28
605.529	25.12
605.721	25.25
605.914	25.26
606.106	24.9
606.299	24.81
606.491	25.02
606.683	25.07
606.876	25.19
607.068	24.9
607.26	25.11
607.453	25.32
607.645	25.58
607.837	25.66
608.03	25.63
608.222	26.02
608.414	25.86
608.606	25.84
608.799	25.7
608.991	25.79
609.183	25.53
609.375	25.42
609.567	25.07
609.759	25.05
609.952	24.97
610.144	25.04
610.336	24.74
610.528	24.93
610.72	24.91
610.912	24.82
611.104	24.7
611.296	24.88
611.488	24.91
611.68	25.27
611.872	25.21
612.064	25.29
612.256	25.35
612.448	25.59
612.64	25.43
612.832	25.26
613.023	25.77
613.215	25.7
613.407	25.81
613.599	25.83
613.791	25.57
613.983	25.7
614.174	25.78
614.366	25.49
614.558	25.52
614.75	25.99
614.941	26.12
615.133	25.74
615.325	25.94
615.516	26.28
615.708	26.23
615.9	26.17
616.091	26.12
616.283	26.34
616.475	26.45
616.666	26.37
616.858	26.25
617.049	26.2
617.241	26.08
617.432	25.98
617.624	25.64
617.815	25.15
618.007	25.27
618.198	25.65
618.39	25.36
618.581	25.34
618.773	25.36
618.964	25.29
619.155	25.29
619.347	25.11
619.538	25.39
619.729	25.27
619.921	25.82
620.112	25.98
620.303	25.7
620.494	25.76
620.686	25.96
620.877	25.98
621.068	25.95
621.259	26.41
621.451	26.65
621.642	26.48
621.833	26.66
622.024	26.62
622.215	26.61
622.406	26.3
622.597	26.36
622.788	26.48
622.98	26.67
623.171	27.07
623.362	27.07
623.553	27.1
623.744	27.12
623.935	27.33
624.126	27.4
624.317	27.38
624.508	27.85
624.698	28.2
624.889	28.22
625.08	28.35
625.271	28.22
625.462	27.89
625.653	27.75
625.844	27.77
626.034	27.47
626.225	27.32
626.416	27.24
626.607	27.45
626.798	27.26
626.988	27.29
627.179	27.14
627.37	27.05
627.56	27.24
627.751	27.06
627.942	27.2
628.132	27.64
628.323	27.71
628.514	27.86
628.704	27.56
628.895	27.69
629.085	27.38
629.276	27.45
629.466	27.62
629.657	27.49
629.847	28.02
630.038	27.63
630.228	27.26
630.419	27.43
630.609	27.74
630.8	27.68
630.99	27.43
631.181	27.86
631.371	27.91
631.561	27.63
631.752	27.79
631.942	27.66
632.132	27.75
632.323	28.08
632.513	28.23
632.703	27.98
632.893	28.03
633.084	28.5
633.274	28.31
633.464	28.19
633.654	28.21
633.844	28.12
634.034	27.94
634.225	28.16
634.415	27.9
634.605	27.76
634.795	27.81
634.985	27.81
635.175	27.44
635.365	27.37
635.555	27.44
635.745	27.62
635.935	27.33
636.125	27.58
636.315	27.29
636.505	27.32
636.695	27.48
636.885	27.34
637.075	27.46
637.265	27.59
637.455	27.91
637.644	27.68
637.834	27.62
638.024	28.25
638.214	27.75
638.404	28.18
638.593	28.49
638.783	28.4
638.973	28.57
639.163	28.6
639.352	28.33
639.542	27.86
639.732	28.14
639.921	28.25
640.111	27.69
640.301	27.69
640.49	27.78
640.68	27.49
640.87	27.48
641.059	27.35
641.249	26.96
641.438	26.97
641.628	27.7
641.817	27.64
642.007	27.79
642.196	28.01
642.386	29.11
642.575	28.74
642.764	28.93
642.954	29.15
643.143	29.37
643.333	29.94
643.522	30.49
643.711	30.4
643.901	30.6
644.09	29.96
644.279	30.53
644.469	30.43
644.658	30.7
644.847	30.81
645.036	30.79
645.226	30.75
645.415	30.69
645.604	30.27
645.793	30.03
645.982	29.64
646.171	29.99
646.361	29.75
646.55	29.31
646.739	29.22
646.928	28.86
647.117	28.38
647.306	28.13
647.495	28.12
647.684	28.18
647.873	28.34
648.062	29.07
648.251	29.12
648.44	29
648.629	29.1
648.818	29.27
649.007	29.44
649.196	29.57
649.384	29.54
649.573	29.4
649.762	29.38
649.951	29.48
650.14	29.1
650.328	29.38
650.517	29.46
650.706	29.44
650.895	29.48
651.083	29.79
651.272	30.03
651.461	30.39
651.65	30.36
651.838	30.37
652.027	29.75
652.216	29.66
652.404	29.45
652.593	29.52
652.781	29.5
652.97	28.58
653.158	28.45
653.347	28.25
653.535	28.01
653.724	28.08
653.912	27.94
654.101	28.46
654.289	28.78
654.478	29.01
654.666	28.59
654.855	29.06
655.043	29.88
655.231	29.78
655.42	30.1
655.608	30.38
655.796	30.44
655.985	30.56
656.173	30.59
656.361	30.31
656.55	30.13
656.738	30.35
656.926	29.97
657.114	30
657.302	30.04
657.491	29.95
657.679	29.67
657.867	29.38
658.055	29.23
658.243	28.98
658.431	28.62
658.619	28.86
658.807	28.85
658.996	29.18
659.184	29.25
659.372	29.04
659.56	28.95
659.748	29.39
659.936	29.75
660.124	30.21
660.311	30.01
660.499	30.27
660.687	30.01
660.875	30.17
661.063	29.96
661.251	29.81
661.439	30.26
661.627	30.39
661.814	29.77
662.002	29.63
662.19	29.49
662.378	29.77
662.565	29.97
662.753	30.23
662.941	29.79
663.129	29.91
663.316	29.47
663.504	29.45
663.692	29.03
663.879	28.95
664.067	28.44
664.254	28.23
664.442	28.45
664.63	28.48
664.817	28.24
665.005	28.68
665.192	28.76
665.38	29.05
665.567	29.34
665.755	29.61
665.942	29.6
666.13	29.98
666.317	29.82
666.504	29.72
666.692	30.31
666.879	30.56
667.067	30.35
667.254	29.92
667.441	30.36
667.629	30.22
667.816	30.41
668.003	30.55
668.19	30.8
668.378	31.16
668.565	31.58
668.752	31.34
668.939	30.86
669.127	31
669.314	31.1
669.501	30.89
669.688	30.7
669.875	30.79
670.062	30.5
670.249	29.98
670.436	30.03
670.623	30.16
670.81	29.63
670.997	30.59
671.184	30.75
671.371	30.95
671.558	31.08
671.745	30.85
671.932	30.76
672.119	31.68
672.306	31.89
672.493	31.9
672.68	31.99
672.867	32.56
673.054	31.69
673.24	31.49
673.427	31.52
673.614	31.4
673.801	31.2
673.988	31.17
674.174	30.76
674.361	30.93
674.548	30.72
674.734	30.81
674.921	30.4
675.108	30.42
675.294	30.51
675.481	30.52
675.668	30.89
675.854	30.96
676.041	31.1
676.227	30.99
676.414	31.31
676.601	30.95
676.787	29.94
676.974	29.99
677.16	29.85
677.347	29.78
677.533	29.39
677.719	29.44
677.906	29.72
678.092	30
678.279	30.38
678.465	30.04
678.651	30.51
678.838	31.01
679.024	30.82
679.21	30.99
679.397	31.18
679.583	31.74
679.769	31.47
679.955	31.22
680.142	30.82
680.328	30.69
680.514	30.84
680.7	30.92
680.886	30.76
681.073	31.43
681.259	31.7
681.445	31.82
681.631	31.49
681.817	31.58
682.003	31.92
682.189	31.98
682.375	32.05
682.561	32.02
682.747	31.81
682.933	31.91
683.119	31.24
683.305	31.26
683.491	31.52
683.677	31.39
683.863	31.18
684.049	31.37
684.235	31.8
684.42	31.75
684.606	31.99
684.792	32.23
684.978	32.02
685.164	32.27
685.349	31.86
685.535	31.33
685.721	31.6
685.907	31.73
686.092	31.96
686.278	31.81
686.464	30.96
686.649	30.84
686.835	30.88
687.021	30.92
687.206	30.74
687.392	31.06
687.577	31.12
687.763	31.19
687.948	31.3
688.134	30.64
688.319	30.58
688.505	31.78
688.69	32.03
688.876	31.96
689.061	32.2
689.247	32.32
689.432	31.89
689.618	32.51
689.803	32.75
689.988	32.57
690.174	32.66
690.359	32.98
690.544	33.18
690.73	32.88
690.915	32.63
691.1	32.96
691.285	32.81
691.471	33.81
691.656	33.57
691.841	32.82
692.026	33.09
692.211	33.33
692.396	32.77
692.582	32.48
692.767	32.81
692.952	32.59
693.137	32.43
693.322	33.33
693.507	33.59
693.692	33.19
693.877	34.01
694.062	33.81
694.247	33.68
694.432	34.08
694.617	33.94
694.802	33.96
694.987	34.52
695.172	34.14
695.357	33.17
695.541	32.33
695.726	32.51
695.911	32.09
696.096	31.96
696.281	31.72
696.466	31.61
696.65	31.85
696.835	31.96
697.02	32.05
697.204	32.32
697.389	32.26
697.574	32.2
697.759	32.1
697.943	32.01
698.128	32.17
698.312	32.71
698.497	32.5
698.682	32.22
698.866	32.16
699.051	32.11
699.235	32.29
699.42	32.43
699.604	32.86
699.789	32.77
699.973	32.91
700.158	33.01
700.342	32.68
700.527	32.89
700.711	32.86
700.895	32.42
701.08	32.48
701.264	31.73
701.448	31.79
701.633	31.05
701.817	31.44
702.001	32.08
702.186	31.98
702.37	31.63
702.554	31.15
702.738	31.76
702.923	31.65
703.107	31.71
703.291	32.33
703.475	32.21
703.659	32.12
703.843	31.52
704.027	31.16
704.212	31.08
704.396	32.22
704.58	33.27
704.764	33.09
704.948	33.87
705.132	33.23
705.316	32.95
705.5	33.31
705.684	34.19
705.868	34.82
706.052	34.05
706.235	34.82
706.419	34.47
706.603	33.69
706.787	32.96
706.971	32.73
707.155	32.7
707.339	32.97
707.522	33.14
707.706	32.65
707.89	32.42
708.074	32.75
708.257	32.35
708.441	32.2
708.625	32.92
708.808	32.96
708.992	33.07
709.176	33.52
709.359	33.22
709.543	33.05
709.727	33.38
709.91	33.56
710.094	33.04
710.277	32.85
710.461	33.01
710.644	31.94
710.828	32.59
711.011	32.45
711.195	32.66
711.378	32.87
711.562	32.78
711.745	31.92
711.928	32.13
712.112	32.59
712.295	32.71
712.478	32.2
712.662	32.45
712.845	31.58
713.028	31.77
713.212	30.66
713.395	30.56
713.578	30.62
713.761	31.41
713.945	30.75
714.128	31.47
714.311	31.57
714.494	31.61
714.677	32.46
714.86	32.85
715.043	32.77
715.227	33.78
715.41	33.55
715.593	33.52
715.776	33.55
715.959	33.72
716.142	33.08
716.325	32.72
716.508	33.3
716.691	32.99
716.874	33.68
717.057	33.2
717.239	32.89
717.422	33.48
717.605	33.53
717.788	33.93
717.971	34.11
718.154	33.54
718.337	33.74
718.519	34.36
718.702	34.43
718.885	34.21
719.068	35.17
719.25	35.84
719.433	35.6
719.616	35.66
719.798	34.7
719.981	34.98
720.164	35.61
720.346	35.9
720.529	35.6
720.712	36.48
720.894	37.2
721.077	37.95
721.259	37.82
721.442	37.82
721.624	38.37
721.807	39.67
721.989	39.39
722.172	39.26
722.354	38.39
722.537	37.1
722.719	37.79
722.901	37.59
723.084	36.26
723.266	35.72
723.448	35.61
723.631	35
723.813	33.15
723.995	33.5
724.178	34.79
724.36	36.33
724.542	36.36
724.724	34.75
724.907	34.77
725.089	35.56
725.271	36.52
725.453	37.48
725.635	37.1
725.817	38.12
725.999	38.2
726.181	36.89
726.364	35.72
726.546	37.78
726.728	37.55
726.91	36.97
727.092	36.95
727.274	36.42
727.456	36.62
727.638	36.96
727.819	37.41
728.001	36.84
728.183	36.58
728.365	36.39
728.547	34.15
728.729	34.21
728.911	34.2
729.093	33.73
729.274	33.79
729.456	32.86
729.638	32.28
729.82	31.41
730.001	31.58
730.183	32.17
730.365	32.87
730.546	33.87
730.728	33.82
730.91	34.88
731.091	34.42
731.273	34.67
731.455	35.63
731.636	37.07
731.818	36.48
731.999	35.91
732.181	35.66
732.362	36.05
732.544	36.11
732.725	35.75
732.907	34.73
733.088	36.2
733.27	35.87
733.451	35.38
733.633	34.88
733.814	36.45
733.995	37.66
734.177	38.65
734.358	38.38
734.539	38.83
734.721	39.02
734.902	39.44
735.083	38.42
735.264	39.37
735.446	39.3
735.627	38.99
735.808	37.39
735.989	37.1
736.17	37.17
736.351	36.57
736.533	36.87
736.714	36.89
736.895	35.84
737.076	36.72
737.257	35.46
737.438	34.14
737.619	34.1
737.8	35.35
737.981	35.82
738.162	35.01
738.343	35.82
738.524	34.45
738.705	34.58
738.886	35.25
739.067	33.28
739.247	33.79
739.428	36.05
739.609	36.28
739.79	36.63
739.971	35.91
740.151	36.42
740.332	35.5
740.513	35.97
740.694	36.45
740.874	36.4
741.055	36.78
741.236	35.76
741.417	33.62
741.597	33.29
741.778	32.85
741.958	33.56
742.139	34.31
742.32	33.71
742.5	34.04
742.681	35.22
742.861	34.53
743.042	35.46
743.222	35.64
743.403	37.24
743.583	37.98
743.764	38.12
743.944	38.2
744.124	37.16
744.305	38.56
744.485	37.68
744.666	34.82
744.846	34.47
745.026	33.8
745.207	35.87
745.387	35.39
745.567	35.61
745.747	34.33
745.928	33.17
746.108	34.23
746.288	35.37
746.468	35.06
746.648	37
746.829	37.92
747.009	37.46
747.189	36.33
747.369	36
747.549	35.03
747.729	35.81
747.909	35.19
748.089	34.3
748.269	31.69
748.449	33.3
748.629	32.29
748.809	31.67
748.989	32.02
749.169	31.66
749.349	32.97
749.529	33.04
749.709	32.88
749.889	32.3
750.068	33.33
750.248	35.55
750.428	35.22
750.608	36.08
750.788	37.32
750.967	37.58
751.147	37.61
751.327	36.08
751.507	38.54
751.686	37.86
751.866	38.75
752.046	37.59
752.225	36
752.405	35.48
752.585	33.63
752.764	33.38
752.944	34.33
753.123	35.16
753.303	36.81
753.482	35.24
753.662	37.05
753.841	38.18
754.021	38.24
754.2	39.09
754.38	40.4
754.559	42.44
754.739	42.76
754.918	43.1
755.097	42.08
755.277	39.7
755.456	38.74
755.635	37.44
755.815	36.83
755.994	37.08
756.173	37.4
756.352	35.88
756.532	36.05
756.711	36.59
756.89	33.89
757.069	34.14
757.248	35.83
757.427	35.75
757.607	36.95
757.786	37.89
757.965	37.76
758.144	36.12
758.323	36.12
758.502	36.79
758.681	35.36
758.86	37.44
759.039	38
759.218	38.66
759.397	38.8
759.576	38.62
759.755	36.35
759.934	36.37
760.113	38.16
760.291	38.63
760.47	36.69
760.649	37.11
760.828	37.57
761.007	36.82
761.186	37.1
761.364	36.53
761.543	35.24
761.722	38.14
761.901	37.74
762.079	37.38
762.258	36.95
762.437	37.88
762.615	37.99
762.794	37.32
762.972	37.69
763.151	37.14
763.33	37.88
763.508	37.13
763.687	35.5
763.865	36.1
764.044	35.83
764.222	35.6
764.401	34.86
764.579	34.68
764.758	34.37
764.936	33.95
765.114	32.98
765.293	33.64
765.471	34.43
765.65	35.35
765.828	34.97
766.006	35.25
766.184	36.15
766.363	36.32
766.541	37.3
766.719	37.8
766.898	36.58
767.076	36.65
767.254	35.3
767.432	35.64
767.61	35.32
767.788	34.32
767.967	33.43
768.145	33.22
768.323	34.43
768.501	33.81
768.679	33.42
768.857	36.27
769.035	37.96
769.213	38.3
769.391	39.04
769.569	38.04
769.747	38.84
769.925	39.32
770.103	40.64
770.281	38.67
770.459	37.53
770.636	37.77
770.814	37.53
770.992	35.76
771.17	35.94
771.348	35.8
771.525	35.02
771.703	35.87
771.881	35.48
772.059	33.49
772.236	34.24
772.414	35.59
772.592	35.67
772.769	37.26
772.947	39.08
773.125	38.88
773.302	38.87
773.48	41.16
773.657	42.09
773.835	43.58
774.013	42.1
774.19	42.97
774.368	42.28
774.545	44.05
774.723	41.27
774.9	42.33
775.077	42.5
775.255	42.01
775.432	42.77
775.61	42.42
775.787	42.69
775.964	45.1
776.142	46.78
776.319	45.11
776.496	44.77
776.674	48.5
776.851	44.19
777.028	43.4
777.205	43.65
777.382	42.29
777.56	42.38
777.737	41.65
777.914	42.6
778.091	40.3
778.268	41.69
778.445	40.19
778.622	36.93
778.8	38.63
778.977	41.3
779.154	43.48
779.331	42.73
779.508	43.09
779.685	42.55
779.862	40.3
780.038	40.4
780.215	39.33
780.392	38.39
780.569	39.24
780.746	37.89
780.923	39
781.1	34.22
781.277	37.15
781.453	35.46
781.63	37.1
781.807	39.2
781.984	40.17
782.16	43.4
782.337	46.47
782.514	49.02
782.691	52.19
782.867	47.66
783.044	48.45
783.221	46.97
783.397	46.76
783.574	44.01
783.75	45.9
783.927	45.28
784.103	42.1
784.28	41.27
784.456	39.81
784.633	39.94
784.809	41.46
784.986	40.14
785.162	37.92
785.339	37.26
785.515	39.62
785.692	37.07
785.868	38.96
786.044	38.97
786.221	38.88
786.397	36.36
786.573	34.57
786.749	32.69
786.926	35.16
787.102	41.06
787.278	43.85
787.454	44.39
787.631	45.91
787.807	47.11
787.983	49.47
788.159	50.25
788.335	50.31
788.511	47.69
788.687	49
788.863	49.92
789.039	45.41
789.216	43.93
789.392	42.76
789.568	38.04
789.744	33.26
789.919	32.88
790.095	30.63
790.271	31.26
790.447	35.44
790.623	33.69
790.799	34.78
790.975	36.44
791.151	34.04
791.327	35.55
791.502	35.66
791.678	40.14
791.854	41.24
792.03	40.63
792.205	42.48
792.381	40.54
792.557	43.83
792.733	41.12
792.908	41.22
793.084	48.15
793.259	42.08
793.435	43.67
793.611	39.93
793.786	38.04
793.962	41.42
794.137	44.08
794.313	44
794.488	38.4
794.664	39.81
794.839	36.55
795.015	33.27
795.19	41.63
795.366	44.9
795.541	44.6
795.716	45.19
795.892	43.84
796.067	40.92
796.242	39.94
796.418	42.54
796.593	44.84
796.768	46.72
796.944	48.21
797.119	42.03
797.294	39.1
797.469	38.31
797.644	40.28
797.82	38.32
797.995	40.3
798.17	41.88
798.345	45.26
798.52	44.53
798.695	44.06
798.87	40.9
799.045	43.44
799.22	44.39
799.395	41.68
799.57	40.62
799.745	43.42
799.92	41.83
800.095	44.53
800.27	43.45
800.445	43.8
800.62	43.23
800.795	45.03
800.97	47.58
801.145	47.11
801.319	52.06
801.494	49.82
801.669	48.43
801.844	47.95
802.018	42.6
802.193	40.43
802.368	42.17
802.543	43.67
802.717	40.86
802.892	40.31
803.067	43.41
803.241	46.43
803.416	43.97
803.59	42.87
803.765	45.36
803.94	50.4
804.114	49.79
804.289	49.55
804.463	47.16
804.638	50.98
804.812	51.89
804.986	50.85
805.161	44.39
805.335	54.7
805.51	57.06
805.684	54.26
805.858	52.14
806.033	51.39
806.207	44.99
806.381	49.6
806.556	52.24
806.73	51.31
806.904	47.36
807.078	50.89
807.253	45.05
807.427	43.76
807.601	41.31
807.775	41.92
807.949	46.52
808.123	48.64
808.298	48.51
808.472	45.2
808.646	41.76
808.82	42.2
808.994	43.37
809.168	44.91
809.342	48.11
809.516	52.64
809.69	53.75
809.864	49.99
810.038	50.27
810.212	49.09
810.385	51.91
810.559	55.93
810.733	57.04
810.907	55.2
811.081	55.37
811.255	56.17
811.428	57.09
811.602	53.76
811.776	48.99
811.95	45.88
812.123	43.4
812.297	41.1
812.471	44.95
812.644	51.17
812.818	53.96
812.992	53.03
813.165	48.44
813.339	45.04
813.512	47.3
813.686	54.32
813.86	60.06
814.033	63.5
814.207	68.39
814.38	61.3
814.554	57.35
814.727	55.13
814.9	54.36
815.074	52.19
815.247	54.31
815.421	53.13
815.594	46.71
815.767	47.92
815.941	44.49
816.114	43.13
816.287	39.43
816.46	41.72
816.634	40.94
816.807	42.24
816.98	45.14
817.153	46.51
817.327	47.88
817.5	53.11
817.673	50.48
817.846	51.37
818.019	49.42
818.192	51.1
818.365	50.13
818.538	53.06
818.711	50.2
818.884	50.56
819.057	45.65
819.23	45.75
819.403	46.01
819.576	45.58
819.749	45.71
819.922	45.44
820.095	47.8
820.268	48.31
820.441	47.87
820.614	51
820.786	47.21
820.959	48.07
821.132	48.25
821.305	46.22
821.477	45.75
821.65	45.67
821.823	44.77
821.996	43.1
822.168	42.2
822.341	41.35
822.514	40.93
822.686	40.77
822.859	41.04
823.031	39.95
823.204	40.34
823.376	39.56
823.549	38.69
823.722	38.01
823.894	38.38
824.067	37.64
824.239	37.75
824.411	36.99
824.584	37.76
824.756	36.6
824.929	37.94
825.101	38.29
825.273	40.82
825.446	40.78
825.618	41.29
825.79	40.97
825.963	40.71
826.135	41.18
826.307	41.64
826.479	40.76
826.652	41.34
826.824	39.87
826.996	38.45
827.168	36.88
827.34	38.33
827.512	38.31
827.684	39.45
827.856	40.27
828.029	41.2
828.201	39.71
828.373	38.76
828.545	39.39
828.717	42.11
828.889	42.5
829.061	42.01
829.232	42.54
829.404	41.21
829.576	40.21
829.748	40.65
829.92	38.32
830.092	40.93
830.264	43.51
830.436	43.16
830.607	39.14
830.779	40.67
830.951	39.68
831.123	35.01
831.294	37.67
831.466	36.77
831.638	37.96
831.809	40.63
831.981	43.21
832.153	40.37
832.324	37.76
832.496	37.67
832.667	36.46
832.839	41.1
833.011	48.23
833.182	50.21
833.354	51.5
833.525	49.38
833.697	47.86
833.868	47.09
834.039	45.84
834.211	48.49
834.382	50.33
834.554	51.17
834.725	48.96
834.896	46.86
835.068	46.21
835.239	45.1
835.41	46.39
835.581	47.07
835.753	46.68
835.924	48.59
836.095	46.05
836.266	42.82
836.438	42.12
836.609	40.02
836.78	38.58
836.951	37.5
837.122	35.96
837.293	34.85
837.464	30.55
837.635	31.14
837.806	34.42
837.977	34.8
838.148	39.69
838.319	42.49
838.49	50.17
838.661	52.25
838.832	53.21
839.003	56.07
839.174	51.62
839.345	54.31
839.516	51.67
839.687	49.97
839.857	55.56
840.028	52.47
840.199	46.23
840.37	35.84
840.54	40.31
840.711	42.04
840.882	46.13
841.053	49.31
841.223	49.46
841.394	61.11
841.564	58.79
841.735	53.94
841.906	63.44
842.076	63.72
842.247	65.46
842.417	71.36
842.588	81.65
842.758	89.55
842.929	95.48
843.099	84.57
843.27	67.8
843.44	68.69
843.611	65.21
843.781	55.25
843.951	65.93
844.122	76.35
844.292	73.68
844.462	66.64
844.633	65.46
844.803	52.22
844.973	52.57
845.144	58.31
845.314	64.01
845.484	76.39
845.654	67.34
845.824	62.72
845.995	67.48
846.165	61.96
846.335	78.28
846.505	78.96
846.675	111.14
846.845	120.05
847.015	110.15
847.185	94.98
847.355	79.4
847.525	91.38
847.695	97.11
847.865	89.72
848.035	105.96
848.205	81.66
848.375	71.56
848.545	62.76
848.715	70.87
848.884	82.24
849.054	87.7
849.224	104.19
849.394	94.76
849.564	88.15
849.733	97.51
849.903	62.59
850.073	78.93
850.243	101.81
850.412	127.22
850.582	93.94
850.752	84.56
850.921	70.29
851.091	80.34
851.26	84.08
851.43	88.24
851.599	80.94
851.769	82.92
851.939	80.09
852.108	75.23
852.278	68.93
852.447	86.71
852.616	75.7
852.786	108.61
852.955	90.51
853.125	81.69
853.294	76.26
853.463	93.82
853.633	97.9
853.802	136.05
853.971	113.62
854.141	119.9
854.31	103.07
854.479	103.63
854.648	98.08
854.818	82.22
854.987	97.89
855.156	98.72
855.325	102.22
855.494	103.6
855.663	105.14
855.832	121.8
856.001	81.87
856.171	101.64
856.34	116.45
856.509	103.63
856.678	300.12
856.847	283.24
857.016	-108.12
857.185	14.02
857.353	49.36
857.522	64.48
857.691	35.13
857.86	65.57
858.029	31.1
858.198	58.67
858.367	90.12
858.535	106.85
858.704	132.64
858.873	142.49
859.042	328.51
859.21	552.24
859.379	263.14
859.548	264.39
859.717	206.36
859.885	196.44
860.054	159.95
860.222	203.67
860.391	130.55
860.56	95.21
860.728	98.7
860.897	91.45
861.065	80.98
861.234	105.82
861.402	140.36
861.571	155.36
861.739	146.47
861.908	194.05
862.076	188.47
862.244	173.32
862.413	182.24
862.581	218.53
862.749	144.35
862.918	192.56
863.086	152.45
863.254	124.88
863.423	127.75
863.591	128.61
863.759	91.57
863.927	77.89
864.096	91.21
864.264	88.93
864.432	73.83
864.6	93.1
864.768	90.47
864.936	89.12
865.104	110.22
865.272	135.64
865.44	146.19
865.608	478.55
865.776	590.02
865.944	296.41
866.112	281.84
866.28	332.91
866.448	340.34
866.616	942.03
866.784	407.23
866.952	313.82
867.12	224.29
867.288	204.9
867.455	167.12
867.623	154.92
867.791	156.51
867.959	152.64
868.127	160.79
868.294	151.11
868.462	87.94
868.63	97.15
868.797	109.21
868.965	146.19
869.133	147.35
869.3	237.31
869.468	113.94
869.636	45.75
869.803	33.27
869.971	41.08
870.138	32.07
870.306	128.33
870.473	85.45
870.641	56.07
870.808	64.03
870.975	59.16
871.143	46.47
871.31	92.81
871.478	131.13
871.645	151.28
871.812	165.19
871.98	136.96
872.147	87.76
872.314	115.97
872.482	133.38
872.649	142.62
872.816	191.12
872.983	216.46
873.15	220.15
873.318	239.49
873.485	482.43
873.652	357.97
873.819	306.41
873.986	287.88
874.153	278.5
874.32	195.23
874.487	233.77
874.654	208.74
874.821	185.77
874.988	139.42
875.155	157.77
875.322	138.17
875.489	103.18
875.656	193.81
875.823	143.08
875.99	109.42
876.157	103.87
876.324	122.31
876.49	59.13
876.657	95.83
876.824	187.79
876.991	225.22
877.157	165.4
877.324	266.1
877.491	214.06
877.658	331.04
877.824	471.73
877.991	293.33
878.157	278.23
878.324	565.07
878.491	1388.62
878.657	468.06
878.824	1455.29
878.99	304.6
879.157	157.13
879.323	304.2
879.49	767.69
879.656	409.76
879.823	510.66
879.989	347.17
880.156	269.94
880.322	224.53
880.488	205.65
880.655	175.07
880.821	138.41
880.987	135.53
881.154	104.1
881.32	94.69
881.486	89.79
881.652	82.93
881.819	78.9
881.985	75.74
882.151	70.06
882.317	68.08
882.483	64.22
882.649	66.87
882.816	65.95
882.982	63.13
883.148	58.28
883.314	54.11
883.48	52.78
883.646	52.05
883.812	51.9
883.978	51.69
884.144	50.75
884.31	49.9
884.476	48.86
884.642	48.31
884.807	49.33
884.973	47.86
885.139	48.7
885.305	50.01
885.471	48.7
885.637	49.8
885.802	49.92
885.968	50.35
886.134	51.47
886.3	46.24
886.465	45.92
886.631	44.13
886.797	55.26
886.962	57.25
887.128	59.97
887.293	69.17
887.459	65.86
887.625	68.63
887.79	72.86
887.956	73.64
888.121	81.14
888.287	81.02
888.452	85.82
888.618	84.68
888.783	90.79
