Data from 2937889_Reflection_2.txt Node
Date: Wed Jul 15 14:17:07 EDT 2015
User: robert
Spectrometer: USB4E03001
Autoset integration time: false
Trigger mode: 4
Integration Time (sec): 1.000000E-1
Scans to average: 10
Electric dark correction enabled: true
Nonlinearity correction enabled: false
Boxcar width: 5
Stray light correction enabled: false
XAxis mode: Wavelengths
Stop averaging: false
Number of Pixels in Spectrum: 3648
>>>>>Begin Spectral Data<<<<<
177.566	48.59
177.785	-153.27
178.005	17.91
178.225	65.63
178.445	114.76
178.665	65.82
178.885	554.97
179.105	125.95
179.324	165.92
179.544	115.02
179.764	94.03
179.984	107.22
180.204	55.04
180.423	59.08
180.643	94.14
180.863	93.64
181.083	66.98
181.302	60.08
181.522	107
181.742	74.27
181.961	115.63
182.181	357.38
182.401	-314.53
182.621	51.71
182.84	213.44
183.06	657.24
183.279	155.15
183.499	-102.85
183.719	275.03
183.938	191.05
184.158	438.44
184.377	168.09
184.597	169.14
184.816	110.28
185.036	229.02
185.256	314.47
185.475	372.33
185.695	1524.72
185.914	633.47
186.134	-4790.71
186.353	-394.39
186.572	1473.14
186.792	-2143.97
187.011	755.74
187.231	820.77
187.45	3191.98
187.67	1016.51
187.889	737.46
188.108	4256.67
188.328	681.08
188.547	318.39
188.766	221.68
188.986	210.18
189.205	320.49
189.424	250.76
189.644	266
189.863	225.68
190.082	243.34
190.302	242.06
190.521	184.2
190.74	227.76
190.959	193.79
191.178	198.71
191.398	183.83
191.617	189.82
191.836	83.22
192.055	148.04
192.274	197.67
192.494	160.7
192.713	77.44
192.932	16.64
193.151	-54.02
193.37	-20.93
193.589	-23.5
193.808	-4.33
194.027	-138.47
194.246	572.81
194.465	263.07
194.685	295.44
194.904	190.54
195.123	203.21
195.342	188.28
195.561	134.15
195.78	105.52
195.999	59.33
196.218	38.02
196.436	53.39
196.655	54.82
196.874	50.9
197.093	275.06
197.312	-66.45
197.531	311.51
197.75	801.23
197.969	-88.81
198.188	-933.66
198.407	-245.79
198.625	-1564.72
198.844	510.05
199.063	361.6
199.282	266.02
199.501	203.17
199.719	552.32
199.938	-10.11
200.157	46.98
200.376	241.15
200.594	-98.92
200.813	-400.8
201.032	88
201.251	952.29
201.469	-1718.52
201.688	-9.95
201.907	4.43
202.125	24.09
202.344	20.88
202.563	59.7
202.781	74.86
203	58.76
203.218	47.87
203.437	36.96
203.656	45.72
203.874	52.03
204.093	82.87
204.311	106.51
204.53	112.47
204.748	84.19
204.967	40.83
205.185	17.35
205.404	27.06
205.622	38.29
205.841	42.82
206.059	58.06
206.278	42.85
206.496	8.33
206.715	55.13
206.933	86.43
207.151	102.76
207.37	176.7
207.588	165.98
207.806	250.12
208.025	266.9
208.243	208.7
208.461	245.3
208.68	545.87
208.898	371.31
209.116	258.46
209.335	186.81
209.553	296.5
209.771	320.34
209.989	442.77
210.208	287
210.426	-610.41
210.644	-129.87
210.862	-1122.86
211.081	474.57
211.299	330.43
211.517	321.81
211.735	318.62
211.953	198.85
212.171	169.68
212.39	204.02
212.608	215.79
212.826	167.83
213.044	104.21
213.262	140.59
213.48	189.5
213.698	207.91
213.916	189.25
214.134	238.4
214.352	-2043.1
214.57	736.18
214.788	-593.89
215.006	-250.74
215.224	-434.27
215.442	-266.9
215.66	-571.08
215.878	664.32
216.096	396.63
216.314	423.75
216.532	337.06
216.75	189.81
216.968	199.2
217.185	132.84
217.403	108.71
217.621	115.06
217.839	82.4
218.057	124.4
218.275	133.6
218.492	108.26
218.71	98.58
218.928	160.64
219.146	100.6
219.363	96.91
219.581	95.07
219.799	74.77
220.017	51.86
220.234	57.46
220.452	44.2
220.67	37.72
220.887	90.19
221.105	176.08
221.323	43.01
221.54	28.48
221.758	-45.07
221.976	11.19
222.193	-15.81
222.411	38.91
222.629	34.88
222.846	23.57
223.064	-22.62
223.281	-9.75
223.499	-38.53
223.716	-38.39
223.934	-2.36
224.151	148.58
224.369	162.12
224.586	309.91
224.804	208.27
225.021	-6073.47
225.239	-458.72
225.456	-11.93
225.674	-62.7
225.891	-22.35
226.108	-31.17
226.326	-27.7
226.543	-11
226.76	-44.59
226.978	-16.22
227.195	-14.01
227.413	-4.21
227.63	6.77
227.847	23.33
228.064	39.68
228.282	38.34
228.499	41.13
228.716	42.49
228.934	43.02
229.151	44.52
229.368	37.06
229.585	37.83
229.802	36.37
230.02	36.27
230.237	35.41
230.454	29.53
230.671	29.79
230.888	30.42
231.105	27.32
231.323	26.97
231.54	29.83
231.757	31.65
231.974	34.23
232.191	37.37
232.408	37.62
232.625	38.16
232.842	38.44
233.059	41.12
233.276	39.89
233.493	42.39
233.71	37.89
233.927	38.1
234.144	43.56
234.361	39.77
234.578	42.9
234.795	44.77
235.012	40.8
235.229	41.69
235.446	42.64
235.663	43.83
235.879	42.38
236.096	40.79
236.313	39.06
236.53	39.53
236.747	29.95
236.964	27.96
237.181	37.07
237.397	39.98
237.614	43.61
237.831	42.54
238.048	30.51
238.264	27.21
238.481	29.24
238.698	31
238.915	28.62
239.131	39.49
239.348	40.39
239.565	33.46
239.781	33.9
239.998	27.08
240.215	25.76
240.431	31.39
240.648	30.47
240.865	31.13
241.081	31.29
241.298	29.21
241.514	26.93
241.731	25.61
241.947	22.72
242.164	19.88
242.38	20.72
242.597	21.39
242.814	23.56
243.03	23.65
243.246	22.74
243.463	22.54
243.679	23.99
243.896	21.84
244.112	20.85
244.329	21
244.545	23.22
244.762	24.32
244.978	22.69
245.194	18.74
245.411	19.73
245.627	20.12
245.843	18.77
246.06	17.43
246.276	19.44
246.492	19.19
246.709	19.15
246.925	18.71
247.141	18.63
247.357	18.94
247.574	19.82
247.79	19.93
248.006	19.77
248.222	20.35
248.439	20.69
248.655	21.61
248.871	22.58
249.087	23.91
249.303	24
249.519	24.52
249.736	23.76
249.952	24.75
250.168	23.76
250.384	24.48
250.6	22.11
250.816	22.7
251.032	20.6
251.248	16.49
251.464	16.65
251.68	16.64
251.896	15.92
252.112	18.91
252.328	16.33
252.544	17.23
252.76	18.15
252.976	19.23
253.192	16.44
253.408	14.94
253.624	16.02
253.84	13.73
254.056	13.67
254.272	12.73
254.487	10.73
254.703	13.16
254.919	12.9
255.135	10.27
255.351	6
255.567	10.05
255.782	10.85
255.998	13.41
256.214	13.09
256.43	12.96
256.646	11.64
256.861	11.8
257.077	10.15
257.293	8.05
257.508	8.66
257.724	11.99
257.94	11.18
258.155	13.27
258.371	12.05
258.587	13.05
258.802	13
259.018	14.3
259.234	14.65
259.449	14.75
259.665	15.2
259.88	14.44
260.096	14.34
260.312	14.14
260.527	13.35
260.743	13.1
260.958	13.28
261.174	13.46
261.389	12.7
261.605	12.5
261.82	12.1
262.036	11.9
262.251	12.64
262.466	11.99
262.682	12.6
262.897	13.21
263.113	13.27
263.328	14.42
263.543	17.02
263.759	17.37
263.974	17.4
264.189	19.1
264.405	19.86
264.62	20.66
264.835	20.75
265.051	19.74
265.266	20.84
265.481	21.85
265.696	20.46
265.912	17.06
266.127	16.74
266.342	17.67
266.557	15.27
266.773	15.49
266.988	14.22
267.203	14.61
267.418	14.65
267.633	14.36
267.848	14.58
268.064	13.7
268.279	13.62
268.494	14.58
268.709	13.49
268.924	14.58
269.139	13.16
269.354	15.39
269.569	16.35
269.784	17.09
269.999	15.48
270.214	12.85
270.429	14.1
270.644	15.36
270.859	13.85
271.074	14.25
271.289	14.14
271.504	15.75
271.719	13.79
271.934	13.13
272.149	13.26
272.363	14.44
272.578	16.1
272.793	16.48
273.008	16.48
273.223	18
273.438	17.38
273.653	18.52
273.867	18.17
274.082	18.66
274.297	19.26
274.512	18.6
274.726	18.89
274.941	19.06
275.156	17.12
275.371	15.8
275.585	14.36
275.8	14.54
276.015	13.2
276.229	14.01
276.444	13.63
276.659	13.97
276.873	14.17
277.088	13.29
277.302	13.17
277.517	14.78
277.732	15.64
277.946	16
278.161	17.09
278.375	17.91
278.59	17.17
278.804	18.69
279.019	18.54
279.233	18.78
279.448	18.65
279.662	19.79
279.877	18.78
280.091	19.93
280.306	19.82
280.52	17.86
280.735	18.47
280.949	16.91
281.163	15.72
281.378	15.64
281.592	15.07
281.806	16.15
282.021	16.26
282.235	16.47
282.449	15.76
282.664	16.04
282.878	15.62
283.092	15.95
283.307	16.58
283.521	16.83
283.735	15.64
283.949	14.97
284.164	13.38
284.378	12.76
284.592	12.58
284.806	12.19
285.02	13.05
285.234	13.74
285.449	12.73
285.663	13.97
285.877	13.8
286.091	15.02
286.305	15.36
286.519	15.62
286.733	15.83
286.947	16.26
287.161	15.88
287.375	14.54
287.589	13.63
287.803	13.21
288.017	12.14
288.231	13.03
288.445	13.1
288.659	13.44
288.873	12.51
289.087	11.35
289.301	11
289.515	12.22
289.729	12.34
289.943	14.23
290.157	13.32
290.371	13.09
290.584	12.13
290.798	9.95
291.012	9.76
291.226	9.98
291.44	11.9
291.654	10.93
291.867	11.41
292.081	10.92
292.295	8.95
292.509	9.27
292.722	9.83
292.936	9.97
293.15	11.78
293.364	11.87
293.577	12.01
293.791	10.34
294.005	11.9
294.218	9.61
294.432	10.62
294.645	11.92
294.859	13.51
295.073	14.86
295.286	14.35
295.5	14.35
295.713	15
295.927	17.19
296.14	17.8
296.354	17.92
296.568	18.62
296.781	18.84
296.994	18.66
297.208	17.96
297.421	17.19
297.635	17.36
297.848	17.14
298.062	16.4
298.275	15.48
298.489	15.03
298.702	14.47
298.915	15.14
299.129	14.82
299.342	16.31
299.555	16.04
299.769	16.43
299.982	17.78
300.195	18.89
300.409	20.33
300.622	20.34
300.835	21.37
301.048	21.68
301.262	20.75
301.475	21.6
301.688	20.37
301.901	20.18
302.115	19.17
302.328	17.75
302.541	18.24
302.754	17.73
302.967	17.63
303.18	16.79
303.393	16.03
303.607	16.59
303.82	15.91
304.033	16.35
304.246	16.9
304.459	17.18
304.672	17.05
304.885	14.78
305.098	15.83
305.311	17.2
305.524	16.26
305.737	17.33
305.95	16.44
306.163	16.34
306.376	14.67
306.589	15.53
306.802	15.86
307.015	18.62
307.228	19.61
307.44	19.11
307.653	17.82
307.866	17.56
308.079	16.85
308.292	15.97
308.505	14.66
308.718	15.84
308.93	14.05
309.143	13.6
309.356	11.71
309.569	11.9
309.781	12.27
309.994	11.81
310.207	13.69
310.42	13.73
310.632	15.29
310.845	16.02
311.058	16.83
311.27	18.43
311.483	17.65
311.696	17.1
311.908	17.89
312.121	17.1
312.333	18.97
312.546	17.84
312.759	18.83
312.971	18.31
313.184	17.89
313.396	16.17
313.609	16.14
313.821	17.5
314.034	19.19
314.246	19.33
314.459	19.41
314.671	17.9
314.884	19.32
315.096	18.89
315.309	19.89
315.521	21.19
315.733	23.16
315.946	23.44
316.158	24.43
316.371	23.37
316.583	21.56
316.795	21.35
317.008	20.65
317.22	20.07
317.432	20.5
317.644	20.15
317.857	19.14
318.069	14.92
318.281	13.95
318.494	12.55
318.706	15.31
318.918	15.78
319.13	17.39
319.342	17.93
319.555	18.25
319.767	17.79
319.979	18.15
320.191	20.68
320.403	24.11
320.615	24.35
320.827	24.93
321.039	22.88
321.252	23.78
321.464	22.23
321.676	22.12
321.888	21.88
322.1	20.67
322.312	19.54
322.524	17.61
322.736	18.48
322.948	17.55
323.16	16.99
323.372	16.57
323.584	16.55
323.796	17.71
324.007	17.49
324.219	16.63
324.431	16.8
324.643	16.97
324.855	17.37
325.067	16.52
325.279	17.06
325.491	16.84
325.702	16.6
325.914	16.11
326.126	14.66
326.338	14.05
326.55	14.83
326.761	15.83
326.973	16.55
327.185	15
327.396	14.96
327.608	15.08
327.82	16.21
328.032	16.56
328.243	18.01
328.455	18.31
328.666	20.37
328.878	20.54
329.09	20.75
329.301	18.7
329.513	19.43
329.725	18.54
329.936	19.7
330.148	18.8
330.359	18.78
330.571	17.15
330.782	18.14
330.994	16.16
331.205	15.88
331.417	13.89
331.628	14.34
331.84	15.79
332.051	16.34
332.262	14.28
332.474	14.83
332.685	15.19
332.897	14.99
333.108	14.3
333.319	14.7
333.531	16.17
333.742	18.23
333.953	19.92
334.165	20.48
334.376	21.53
334.587	21.8
334.799	21.09
335.01	21.27
335.221	22.04
335.432	22.48
335.644	22.54
335.855	20.06
336.066	19.32
336.277	18.32
336.488	17.25
336.7	17.08
336.911	17.63
337.122	17.61
337.333	17.2
337.544	17.22
337.755	16.73
337.966	17.26
338.177	19.41
338.388	20.16
338.599	20.44
338.811	20.29
339.022	20.01
339.233	20.29
339.444	20.58
339.655	20.55
339.866	20.51
340.076	20.76
340.287	21.3
340.498	19.73
340.709	18.92
340.92	19.08
341.131	19.24
341.342	18.99
341.553	18.15
341.764	19.13
341.975	20.09
342.185	20.56
342.396	21.31
342.607	21.62
342.818	21.16
343.029	19.74
343.239	19.35
343.45	18.14
343.661	18.4
343.872	18.61
344.082	17.57
344.293	17.04
344.504	17.76
344.714	16.51
344.925	15.96
345.136	17
345.346	19.03
345.557	19.58
345.768	20.43
345.978	20.01
346.189	19.91
346.399	20.15
346.61	20.35
346.821	19.27
347.031	20.58
347.242	19.99
347.452	20.2
347.663	18.82
347.873	18.36
348.084	17.12
348.294	16.84
348.504	15.89
348.715	15.58
348.925	16.18
349.136	14.94
349.346	14.52
349.557	13.98
349.767	12.88
349.977	13.54
350.188	13.27
350.398	13.82
350.608	15.08
350.819	14.96
351.029	14.82
351.239	14.67
351.449	16.32
351.66	16.13
351.87	16.26
352.08	16.55
352.29	16.48
352.501	17.28
352.711	17.83
352.921	17.26
353.131	18.66
353.341	19.57
353.552	19.22
353.762	19.83
353.972	19.05
354.182	19.29
354.392	18.98
354.602	19.44
354.812	20.06
355.022	20.98
355.232	20.1
355.442	19.39
355.652	18.2
355.862	19.43
356.072	18.47
356.282	19.97
356.492	19.12
356.702	18.86
356.912	18.91
357.122	19.33
357.332	18.33
357.542	18.49
357.752	18.49
357.962	18.92
358.171	17.74
358.381	17.45
358.591	17.13
358.801	17.86
359.011	18.46
359.221	18.16
359.43	16.76
359.64	17.69
359.85	17.98
360.06	18.1
360.269	18.28
360.479	18.03
360.689	17.8
360.899	17.32
361.108	17.85
361.318	18.13
361.528	17.52
361.737	17.82
361.947	17.39
362.156	17.76
362.366	17.56
362.576	17.73
362.785	17.85
362.995	17.85
363.204	18.11
363.414	17.49
363.623	17
363.833	17.72
364.042	17.53
364.252	17.55
364.461	16.07
364.671	16.38
364.88	16.02
365.09	15.75
365.299	15.85
365.509	15.46
365.718	15.84
365.927	15.78
366.137	14.74
366.346	14.34
366.555	14.18
366.765	14.55
366.974	14.55
367.183	14.96
367.393	14.97
367.602	15.66
367.811	16.07
368.021	15.33
368.23	15.43
368.439	15.76
368.648	16.35
368.857	16.06
369.067	16.41
369.276	15.55
369.485	15.49
369.694	16.45
369.903	15.73
370.112	14.43
370.321	14.85
370.531	16
370.74	16.45
370.949	16.03
371.158	16.14
371.367	16.71
371.576	17.05
371.785	17.13
371.994	15.98
372.203	16.38
372.412	16.8
372.621	16.88
372.83	15.97
373.039	15.56
373.248	15.45
373.457	15.16
373.666	14.4
373.874	14.4
374.083	13.87
374.292	14.11
374.501	13.23
374.71	12.48
374.919	12.36
375.128	12.5
375.336	12.84
375.545	13.37
375.754	13.34
375.963	13.02
376.171	12.92
376.38	13.18
376.589	12.9
376.798	13.2
377.006	13.8
377.215	14.16
377.424	13.8
377.632	13.45
377.841	12.57
378.05	12.83
378.258	12.75
378.467	12.55
378.675	12.01
378.884	12.21
379.093	12.18
379.301	12.65
379.51	12.24
379.718	12.49
379.927	12.6
380.135	13.16
380.344	13.77
380.552	13.71
380.761	14.05
380.969	13.61
381.177	13.53
381.386	13.2
381.594	12.67
381.803	12.4
382.011	12.08
382.219	11.44
382.428	11.22
382.636	10.32
382.845	10.82
383.053	10.44
383.261	10.9
383.469	11.14
383.678	11.24
383.886	11.86
384.094	11.84
384.302	11.87
384.511	12
384.719	11.95
384.927	12.15
385.135	11.45
385.343	11.5
385.552	11.63
385.76	11.43
385.968	11.6
386.176	10.6
386.384	10.55
386.592	10.5
386.8	10.75
387.008	10.5
387.216	10.69
387.424	11.32
387.633	11.18
387.841	11.43
388.049	11.27
388.257	11.3
388.465	11.66
388.672	11.7
388.88	11.2
389.088	11.34
389.296	11.72
389.504	11.24
389.712	11.07
389.92	11
390.128	10.77
390.336	10.47
390.544	9.99
390.751	9.9
390.959	9.42
391.167	9.78
391.375	9.69
391.583	9.61
391.79	9.45
391.998	8.93
392.206	8.83
392.414	8.76
392.621	8.74
392.829	8.67
393.037	8.77
393.244	8.91
393.452	8.92
393.66	8.93
393.867	9.1
394.075	9.26
394.283	9.85
394.49	9.76
394.698	9.71
394.905	10.09
395.113	10.13
395.32	10.13
395.528	10.09
395.735	10.19
395.943	9.93
396.15	9.47
396.358	9.06
396.565	8.79
396.773	9.36
396.98	9.26
397.188	8.74
397.395	8.59
397.602	8.24
397.81	8.2
398.017	7.9
398.225	7.61
398.432	7.69
398.639	8.13
398.847	7.71
399.054	7.54
399.261	7.74
399.468	8.25
399.676	8.64
399.883	8.78
400.09	9.23
400.297	9.05
400.505	9.65
400.712	10.17
400.919	10.3
401.126	10.49
401.333	10.33
401.54	10.11
401.748	9.97
401.955	9.87
402.162	9.99
402.369	9.9
402.576	9.91
402.783	9.78
402.99	9
403.197	8.83
403.404	8.86
403.611	8.97
403.818	8.87
404.025	8.95
404.232	9.04
404.439	8.89
404.646	8.83
404.853	8.58
405.06	8.22
405.267	8.46
405.474	8.27
405.681	8.31
405.887	8.21
406.094	8.17
406.301	8.16
406.508	7.83
406.715	7.92
406.922	8.03
407.128	8.29
407.335	8.19
407.542	8.07
407.749	8.16
407.955	8.18
408.162	8.22
408.369	8.22
408.575	7.88
408.782	8.22
408.989	8.1
409.195	7.7
409.402	7.86
409.609	8.1
409.815	8.13
410.022	7.99
410.228	7.93
410.435	8.05
410.642	8.06
410.848	8.28
411.055	8.26
411.261	8.28
411.468	8.54
411.674	8.35
411.881	8.25
412.087	8.18
412.294	8.63
412.5	8.61
412.706	7.72
412.913	7.89
413.119	8.14
413.326	8.07
413.532	7.92
413.738	7.66
413.945	7.35
414.151	7.03
414.357	6.87
414.564	6.81
414.77	7.21
414.976	7.59
415.182	7.26
415.389	6.88
415.595	6.86
415.801	6.86
416.007	7.17
416.214	7.74
416.42	8.06
416.626	8.15
416.832	7.9
417.038	7.47
417.244	7.41
417.45	7.54
417.657	7.45
417.863	7.41
418.069	7.26
418.275	7.09
418.481	6.97
418.687	6.89
418.893	6.95
419.099	6.9
419.305	6.99
419.511	7.13
419.717	7.06
419.923	7.25
420.129	7.25
420.335	7.35
420.541	7.27
420.746	7.3
420.952	7.47
421.158	7.39
421.364	7.27
421.57	7.15
421.776	7.19
421.982	7.32
422.187	7.3
422.393	7.17
422.599	7.22
422.805	7.27
423.01	7.15
423.216	7.12
423.422	7.26
423.628	7.53
423.833	7.6
424.039	7.53
424.245	7.49
424.45	7.38
424.656	7.47
424.862	7.24
425.067	7.27
425.273	7.38
425.478	7.23
425.684	7.08
425.889	6.79
426.095	6.91
426.301	6.99
426.506	6.98
426.712	6.83
426.917	6.72
427.123	6.91
427.328	6.91
427.533	6.71
427.739	6.61
427.944	6.49
428.15	6.71
428.355	6.6
428.561	6.48
428.766	6.24
428.971	6.6
429.177	6.66
429.382	6.91
429.587	6.77
429.793	6.97
429.998	7.03
430.203	7.08
430.408	7.28
430.614	7.32
430.819	7.4
431.024	7.41
431.229	7.27
431.434	7.15
431.64	6.81
431.845	6.66
432.05	6.76
432.255	6.83
432.46	6.86
432.665	6.63
432.87	6.61
433.076	6.56
433.281	6.64
433.486	6.57
433.691	6.78
433.896	6.7
434.101	6.8
434.306	6.52
434.511	6.71
434.716	6.82
434.921	6.8
435.126	6.87
435.331	6.91
435.535	6.8
435.74	6.77
435.945	6.82
436.15	7.04
436.355	7.15
436.56	7.26
436.765	7.06
436.97	6.95
437.174	6.88
437.379	6.58
437.584	6.61
437.789	6.66
437.993	6.92
438.198	6.74
438.403	6.67
438.608	6.71
438.812	6.56
439.017	6.67
439.222	6.71
439.426	6.82
439.631	6.97
439.836	6.98
440.04	7.01
440.245	6.9
440.45	6.92
440.654	6.88
440.859	6.86
441.063	6.97
441.268	6.95
441.472	7
441.677	6.87
441.881	6.88
442.086	6.59
442.29	6.51
442.495	6.44
442.699	6.52
442.904	6.74
443.108	6.72
443.312	6.62
443.517	6.42
443.721	6.49
443.925	6.64
444.13	6.62
444.334	6.8
444.538	6.96
444.743	6.93
444.947	7
445.151	6.79
445.356	6.94
445.56	7.15
445.764	7.29
445.968	7.16
446.173	7.1
446.377	7.13
446.581	7.15
446.785	7.1
446.989	7.13
447.193	7.01
447.398	7.08
447.602	6.88
447.806	6.73
448.01	6.66
448.214	6.8
448.418	6.68
448.622	6.68
448.826	6.62
449.03	6.61
449.234	6.78
449.438	6.68
449.642	6.75
449.846	6.88
450.05	6.84
450.254	6.85
450.458	6.73
450.662	6.77
450.866	6.74
451.069	6.85
451.273	6.86
451.477	6.65
451.681	6.85
451.885	6.68
452.089	6.94
452.292	6.92
452.496	6.86
452.7	6.87
452.904	7.27
453.107	7.19
453.311	7.3
453.515	7.34
453.719	7.34
453.922	7.2
454.126	7.31
454.33	7.07
454.533	6.86
454.737	6.93
454.94	6.85
455.144	6.48
455.348	6.54
455.551	6.47
455.755	6.39
455.958	6.35
456.162	6.35
456.365	6.37
456.569	6.2
456.772	6.57
456.976	6.62
457.179	6.77
457.383	7.03
457.586	7.03
457.79	6.95
457.993	6.92
458.196	6.96
458.4	6.89
458.603	6.78
458.807	7.08
459.01	6.88
459.213	6.84
459.417	6.62
459.62	6.65
459.823	6.61
460.026	6.55
460.23	6.71
460.433	6.61
460.636	6.65
460.839	6.72
461.042	6.26
461.246	6.4
461.449	6.29
461.652	6.25
461.855	6.16
462.058	6.25
462.261	6.37
462.464	6.24
462.668	6.31
462.871	6.32
463.074	6.39
463.277	6.8
463.48	6.77
463.683	6.79
463.886	7.05
464.089	6.85
464.292	6.83
464.495	6.75
464.698	6.61
464.901	6.6
465.104	6.62
465.306	6.46
465.509	6.4
465.712	6.23
465.915	6.32
466.118	6.09
466.321	6.24
466.524	6.3
466.726	6.37
466.929	6.37
467.132	6.14
467.335	6.13
467.538	6.06
467.74	6.12
467.943	6.32
468.146	6.22
468.348	6.46
468.551	6.25
468.754	5.97
468.956	5.91
469.159	5.99
469.362	6.14
469.564	6.01
469.767	5.99
469.969	6.02
470.172	5.91
470.375	5.88
470.577	6.04
470.78	6.01
470.982	6.25
471.185	5.96
471.387	5.96
471.59	6.11
471.792	6.3
471.995	6.42
472.197	6.53
472.399	6.56
472.602	6.64
472.804	6.38
473.007	6.54
473.209	6.47
473.411	6.54
473.614	6.43
473.816	6.43
474.018	6.3
474.22	6.16
474.423	6.01
474.625	6.14
474.827	6.29
475.03	6.23
475.232	6.21
475.434	6.06
475.636	6.14
475.838	6.26
476.04	6.09
476.243	6.35
476.445	6.25
476.647	6.22
476.849	6.17
477.051	6.17
477.253	6.31
477.455	6.25
477.657	6.33
477.859	6.53
478.061	6.51
478.263	6.85
478.465	6.56
478.667	6.68
478.869	6.51
479.071	6.58
479.273	6.44
479.475	6.24
479.677	6.3
479.879	6.34
480.081	6.27
480.283	6.23
480.485	5.92
480.686	6.04
480.888	6.22
481.09	6.29
481.292	6.22
481.494	6.28
481.695	6.43
481.897	6.45
482.099	6.44
482.301	6.43
482.502	6.61
482.704	6.67
482.906	6.63
483.107	6.54
483.309	6.49
483.511	6.46
483.712	6.44
483.914	6.45
484.115	6.38
484.317	6.35
484.519	6.37
484.72	6.28
484.922	6.25
485.123	6.24
485.325	6.27
485.526	6.29
485.728	6.37
485.929	6.33
486.131	6.31
486.332	6.36
486.534	6.41
486.735	6.36
486.936	6.33
487.138	6.3
487.339	6.31
487.541	6.3
487.742	6.35
487.943	6.29
488.144	6.32
488.346	6.3
488.547	6.27
488.748	6.21
488.95	6.24
489.151	6.32
489.352	6.41
489.553	6.43
489.755	6.52
489.956	6.51
490.157	6.44
490.358	6.46
490.559	6.5
490.76	6.53
490.961	6.53
491.163	6.51
491.364	6.43
491.565	6.3
491.766	6.28
491.967	6.15
492.168	6.19
492.369	6.18
492.57	6.16
492.771	6.09
492.972	6.08
493.173	6.13
493.374	6.11
493.575	6.06
493.776	6.17
493.976	6.19
494.177	6.34
494.378	6.27
494.579	6.51
494.78	6.72
494.981	6.91
495.182	6.99
495.382	6.95
495.583	7
495.784	7.05
495.985	7.02
496.185	7.02
496.386	6.82
496.587	6.8
496.788	6.68
496.988	6.59
497.189	6.36
497.39	6.34
497.59	6.38
497.791	6.3
497.992	6.45
498.192	6.47
498.393	6.32
498.593	6.37
498.794	6.44
498.994	6.42
499.195	6.38
499.395	6.62
499.596	6.69
499.796	6.86
499.997	7.01
500.197	6.98
500.398	7.18
500.598	7.32
500.799	7.36
500.999	7.32
501.199	7.23
501.4	7.28
501.6	7.07
501.801	7.08
502.001	7.02
502.201	6.92
502.402	6.95
502.602	6.8
502.802	6.86
503.002	6.97
503.203	7.11
503.403	7.22
503.603	7.19
503.803	7.21
504.003	7.28
504.204	7.24
504.404	7.16
504.604	7.08
504.804	6.98
505.004	7.05
505.204	7.07
505.404	7.06
505.604	7.11
505.804	7.19
506.005	7.19
506.205	7.09
506.405	7.03
506.605	7.07
506.805	7.12
507.005	7.28
507.204	7.19
507.404	7.05
507.604	7.14
507.804	7.17
508.004	7.08
508.204	7.08
508.404	7.04
508.604	7.02
508.804	7.11
509.003	7.07
509.203	7.09
509.403	7.18
509.603	7.28
509.803	7.25
510.002	7.1
510.202	7.16
510.402	7.29
510.602	7.35
510.801	7.66
511.001	7.51
511.201	7.53
511.4	7.57
511.6	7.45
511.8	7.59
511.999	7.65
512.199	7.77
512.398	7.84
512.598	7.99
512.797	8.13
512.997	8.12
513.197	8.36
513.396	8.54
513.596	8.63
513.795	8.79
513.994	8.79
514.194	8.67
514.393	8.76
514.593	8.92
514.792	8.85
514.992	8.95
515.191	8.74
515.39	8.72
515.59	8.61
515.789	8.49
515.988	8.52
516.188	8.51
516.387	8.68
516.586	8.57
516.786	8.55
516.985	8.54
517.184	8.49
517.383	8.59
517.582	8.59
517.782	8.59
517.981	8.69
518.18	8.78
518.379	8.61
518.578	8.54
518.777	8.74
518.976	8.69
519.176	8.67
519.375	8.67
519.574	8.72
519.773	8.74
519.972	8.76
520.171	8.85
520.37	8.8
520.569	8.97
520.768	9.1
520.967	9.03
521.166	9.16
521.365	9.32
521.564	9.32
521.762	9.42
521.961	9.49
522.16	9.55
522.359	9.49
522.558	9.66
522.757	9.72
522.956	9.85
523.154	9.7
523.353	9.68
523.552	9.73
523.751	9.97
523.949	10.08
524.148	10.25
524.347	10.33
524.546	10.44
524.744	10.43
524.943	10.51
525.142	10.39
525.34	10.58
525.539	10.68
525.737	10.66
525.936	10.56
526.135	10.45
526.333	10.34
526.532	10.55
526.73	10.56
526.929	10.54
527.127	10.59
527.326	10.57
527.524	10.58
527.723	10.59
527.921	10.61
528.12	10.59
528.318	10.54
528.516	10.62
528.715	10.57
528.913	10.52
529.112	10.51
529.31	10.51
529.508	10.56
529.707	10.6
529.905	10.61
530.103	10.62
530.301	10.64
530.5	10.77
530.698	10.88
530.896	10.86
531.094	10.99
531.293	11.09
531.491	11.19
531.689	11.28
531.887	11.35
532.085	11.37
532.283	11.41
532.481	11.57
532.68	11.58
532.878	11.49
533.076	11.54
533.274	11.59
533.472	11.74
533.67	11.76
533.868	11.85
534.066	11.8
534.264	11.82
534.462	11.91
534.66	11.89
534.858	12.08
535.056	12.08
535.253	12.17
535.451	12.29
535.649	12.24
535.847	12.26
536.045	12.23
536.243	12.39
536.441	12.32
536.638	12.26
536.836	12.32
537.034	12.22
537.232	12.36
537.43	12.33
537.627	12.23
537.825	12.17
538.023	12.29
538.22	12.42
538.418	12.43
538.616	12.57
538.813	12.75
539.011	12.78
539.209	12.76
539.406	12.8
539.604	12.81
539.801	12.88
539.999	13.06
540.196	13.04
540.394	13.14
540.591	13.12
540.789	13.14
540.986	13.16
541.184	13.18
541.381	13.28
541.579	13.23
541.776	13.31
541.974	13.42
542.171	13.48
542.368	13.45
542.566	13.37
542.763	13.39
542.96	13.41
543.158	13.48
543.355	13.58
543.552	13.59
543.75	13.74
543.947	13.69
544.144	13.58
544.341	13.59
544.539	13.67
544.736	13.71
544.933	13.72
545.13	13.83
545.327	13.83
545.524	13.82
545.722	13.99
545.919	14.04
546.116	14.22
546.313	14.31
546.51	14.31
546.707	14.32
546.904	14.38
547.101	14.51
547.298	14.66
547.495	14.74
547.692	14.71
547.889	14.63
548.086	14.64
548.283	14.75
548.48	14.98
548.677	15.05
548.874	15.16
549.07	15.36
549.267	15.55
549.464	15.43
549.661	15.54
549.858	15.77
550.055	16.01
550.251	16.29
550.448	16.39
550.645	16.07
550.842	15.95
551.038	16.23
551.235	16.07
551.432	16
551.628	16.26
551.825	16.2
552.022	16.32
552.218	16.29
552.415	16.08
552.612	16.04
552.808	16.29
553.005	16.41
553.201	16.33
553.398	16.35
553.594	16.33
553.791	16.3
553.987	16.17
554.184	16.07
554.38	16.03
554.577	16.33
554.773	16.4
554.97	16.58
555.166	16.57
555.362	16.67
555.559	16.65
555.755	16.8
555.952	16.65
556.148	17.05
556.344	17.01
556.541	17.15
556.737	17.13
556.933	17.25
557.129	17.2
557.326	17.55
557.522	17.66
557.718	18.03
557.914	18.06
558.11	18.37
558.307	18.49
558.503	18.7
558.699	18.85
558.895	18.89
559.091	18.99
559.287	18.94
559.483	18.91
559.679	18.75
559.876	18.55
560.072	18.61
560.268	18.62
560.464	18.38
560.66	18.47
560.856	18.51
561.052	18.48
561.247	18.33
561.443	18.37
561.639	18.23
561.835	18.42
562.031	18.84
562.227	19.01
562.423	18.99
562.619	19.23
562.815	19.21
563.01	19.27
563.206	19.41
563.402	19.57
563.598	19.88
563.793	20.02
563.989	20.06
564.185	19.83
564.381	19.75
564.576	20.04
564.772	20
564.968	20.02
565.163	20.02
565.359	20.1
565.555	19.95
565.75	19.73
565.946	19.79
566.141	19.87
566.337	19.79
566.532	19.68
566.728	19.5
566.923	19.51
567.119	19.51
567.314	19.47
567.51	19.43
567.705	19.39
567.901	19.51
568.096	19.35
568.292	19.26
568.487	19.45
568.682	19.65
568.878	19.8
569.073	20.05
569.268	20.3
569.464	20.29
569.659	20.32
569.854	20.61
570.05	20.79
570.245	20.94
570.44	20.95
570.635	20.97
570.831	21.15
571.026	20.93
571.221	20.85
571.416	20.86
571.611	20.83
571.806	20.76
572.002	20.88
572.197	20.89
572.392	20.96
572.587	21.13
572.782	21.28
572.977	21.2
573.172	21.4
573.367	21.18
573.562	21.12
573.757	21.24
573.952	21.42
574.147	21.28
574.342	21.33
574.537	21.61
574.732	21.43
574.927	21.49
575.121	21.64
575.316	21.64
575.511	21.88
575.706	21.99
575.901	22
576.096	21.94
576.29	22.1
576.485	21.99
576.68	21.77
576.875	22.03
577.069	21.87
577.264	21.94
577.459	21.85
577.654	22
577.848	21.86
578.043	22.16
578.238	22.15
578.432	22.35
578.627	22.58
578.821	22.71
579.016	22.76
579.21	22.93
579.405	22.92
579.6	23.27
579.794	23.22
579.989	23.48
580.183	23.3
580.378	23.49
580.572	23.05
580.766	22.82
580.961	22.64
581.155	22.5
581.35	22.34
581.544	22.36
581.738	22.36
581.933	22.49
582.127	22.53
582.321	22.58
582.516	22.64
582.71	22.85
582.904	23.04
583.099	23
583.293	23.04
583.487	23.43
583.681	23.05
583.875	22.98
584.07	22.82
584.264	22.69
584.458	22.37
584.652	22.29
584.846	22.06
585.04	21.74
585.234	21.87
585.428	22.02
585.623	21.86
585.817	22.05
586.011	22.12
586.205	22.37
586.399	22.45
586.593	22.71
586.787	22.73
586.981	23.07
587.174	23.34
587.368	23.29
587.562	23.47
587.756	23.31
587.95	23.41
588.144	23.44
588.338	23.17
588.532	23.03
588.725	23.07
588.919	23.02
589.113	23.06
589.307	22.91
589.501	22.98
589.694	23
589.888	22.9
590.082	22.98
590.275	22.92
590.469	23.06
590.663	23.01
590.856	23.14
591.05	23.16
591.244	23.17
591.437	23.55
591.631	23.69
591.824	23.55
592.018	23.88
592.212	23.85
592.405	24.02
592.599	24.06
592.792	24.22
592.986	24.3
593.179	24.56
593.372	24.23
593.566	24.04
593.759	24.08
593.953	24.19
594.146	24.26
594.339	24.27
594.533	24.18
594.726	24.24
594.92	24.17
595.113	24.2
595.306	24.02
595.499	24.13
595.693	24.42
595.886	24.54
596.079	24.51
596.272	24.55
596.466	24.51
596.659	24.56
596.852	24.5
597.045	24.52
597.238	24.39
597.431	24.29
597.624	24.52
597.818	24.16
598.011	24.05
598.204	24.09
598.397	23.98
598.59	23.9
598.783	23.82
598.976	23.99
599.169	24.07
599.362	24.01
599.555	24.26
599.748	24.42
599.941	24.79
600.134	24.94
600.326	24.81
600.519	24.89
600.712	25.45
600.905	25.49
601.098	25.41
601.291	25.27
601.483	25.65
601.676	25.57
601.869	25.69
602.062	25.52
602.255	25.4
602.447	25.43
602.64	25.22
602.833	24.78
603.025	25.1
603.218	25.15
603.411	25.46
603.603	25.29
603.796	25.45
603.989	25.17
604.181	25.09
604.374	24.88
604.566	24.89
604.759	24.93
604.951	24.98
605.144	24.72
605.336	24.65
605.529	24.35
605.721	24.45
605.914	24.31
606.106	24.25
606.299	24.27
606.491	24.64
606.683	24.54
606.876	24.69
607.068	24.79
607.26	24.92
607.453	24.82
607.645	25.26
607.837	25.36
608.03	25.34
608.222	25.32
608.414	25.27
608.606	24.96
608.799	25.05
608.991	25.1
609.183	25.17
609.375	24.96
609.567	25.04
609.759	24.8
609.952	24.61
610.144	24.66
610.336	24.8
610.528	24.87
610.72	24.96
610.912	24.89
611.104	24.85
611.296	24.91
611.488	25.19
611.68	25.11
611.872	25.28
612.064	25.01
612.256	24.85
612.448	24.78
612.64	24.79
612.832	25.09
613.023	25.05
613.215	25.33
613.407	24.96
613.599	24.85
613.791	24.91
613.983	24.71
614.174	25.21
614.366	25.31
614.558	25.3
614.75	25.36
614.941	25.43
615.133	25.66
615.325	25.36
615.516	25.43
615.708	25.36
615.9	25.52
616.091	25.54
616.283	25.3
616.475	25.28
616.666	25.38
616.858	25.45
617.049	25.21
617.241	25.12
617.432	25.21
617.624	25.41
617.815	25.57
618.007	25.43
618.198	25.38
618.39	25.49
618.581	25.53
618.773	25.64
618.964	25.74
619.155	25.67
619.347	25.89
619.538	25.8
619.729	25.71
619.921	25.77
620.112	26.01
620.303	26.04
620.494	26.15
620.686	26.55
620.877	26.32
621.068	26.29
621.259	26.25
621.451	25.97
621.642	25.88
621.833	25.66
622.024	25.4
622.215	25.41
622.406	25.74
622.597	25.88
622.788	25.45
622.98	25.25
623.171	25.21
623.362	25.39
623.553	25.28
623.744	25.46
623.935	25.85
624.126	25.77
624.317	25.82
624.508	25.54
624.698	25.36
624.889	25.55
625.08	25.64
625.271	25.5
625.462	25.7
625.653	26.28
625.844	26.33
626.034	26.43
626.225	26.8
626.416	26.7
626.607	26.82
626.798	26.92
626.988	27.07
627.179	27.11
627.37	27.3
627.56	27.2
627.751	26.83
627.942	26.76
628.132	26.71
628.323	26.68
628.514	26.54
628.704	26.48
628.895	26.49
629.085	26.42
629.276	26.34
629.466	26.11
629.657	26.14
629.847	26.32
630.038	26.32
630.228	26.2
630.419	25.8
630.609	25.98
630.8	26.04
630.99	26.06
631.181	25.9
631.371	26.34
631.561	26.65
631.752	26.84
631.942	26.73
632.132	26.82
632.323	26.81
632.513	27.25
632.703	27.14
632.893	27.16
633.084	27.01
633.274	27.19
633.464	27.05
633.654	26.87
633.844	26.32
634.034	26.44
634.225	26.45
634.415	26.66
634.605	26.62
634.795	26.38
634.985	26.16
635.175	26.36
635.365	26.28
635.555	26.24
635.745	26.33
635.935	26.62
636.125	26.54
636.315	26.58
636.505	26.47
636.695	26.59
636.885	27.23
637.075	27.32
637.265	27.12
637.455	27.01
637.644	26.93
637.834	27.01
638.024	26.6
638.214	26.74
638.404	26.48
638.593	26.6
638.783	26.33
638.973	26.13
639.163	26.44
639.352	26.38
639.542	26.34
639.732	26.34
639.921	25.96
640.111	26.66
640.301	26.44
640.49	26.7
640.68	26.52
640.87	26.74
641.059	26.6
641.249	26.38
641.438	26.41
641.628	26.5
641.817	26.64
642.007	27.05
642.196	26.85
642.386	27.07
642.575	27.12
642.764	26.83
642.954	26.71
643.143	27.19
643.333	27.35
643.522	27.27
643.711	27.4
643.901	27.53
644.09	27.3
644.279	27.18
644.469	26.9
644.658	26.37
644.847	26.57
645.036	26.25
645.226	25.29
645.415	25.46
645.604	25.77
645.793	25.54
645.982	25.3
646.171	25.47
646.361	25.54
646.55	25.89
646.739	26.28
646.928	26.2
647.117	26.61
647.306	27
647.495	26.51
647.684	26.67
647.873	27.17
648.062	27.31
648.251	27.33
648.44	27.57
648.629	27.89
648.818	28.09
649.007	28.4
649.196	28.16
649.384	28.05
649.573	27.84
649.762	27.21
649.951	26.68
650.14	26.48
650.328	26.69
650.517	26.13
650.706	25.49
650.895	25.55
651.083	25.43
651.272	25.98
651.461	26.13
651.65	26.59
651.838	27.17
652.027	27.08
652.216	27.15
652.404	26.62
652.593	27.29
652.781	27.49
652.97	27.32
653.158	27.26
653.347	26.47
653.535	27.02
653.724	26.88
653.912	26.61
654.101	26.88
654.289	26.96
654.478	27.36
654.666	27.3
654.855	27.22
655.043	27.2
655.231	27.14
655.42	28.22
655.608	27.35
655.796	27.73
655.985	27.63
656.173	28
656.361	27.73
656.55	27.61
656.738	27.67
656.926	27.66
657.114	27.61
657.302	27.97
657.491	27.27
657.679	27.53
657.867	27.31
658.055	27.12
658.243	26.89
658.431	27.08
658.619	27.15
658.807	26.97
658.996	26.92
659.184	26.9
659.372	26.88
659.56	27.06
659.748	27.22
659.936	27.24
660.124	27.27
660.311	27.28
660.499	27.64
660.687	27.55
660.875	27.5
661.063	27.67
661.251	27.55
661.439	27.49
661.627	27.43
661.814	26.7
662.002	26.82
662.19	27.18
662.378	27.13
662.565	26.86
662.753	26.76
662.941	26.31
663.129	26.6
663.316	26.57
663.504	26.56
663.692	26.45
663.879	26.97
664.067	27.05
664.254	26.58
664.442	26.62
664.63	26.34
664.817	26.83
665.005	26.86
665.192	26.25
665.38	26.39
665.567	26.24
665.755	26.2
665.942	26.26
666.13	25.55
666.317	25.64
666.504	26.01
666.692	25.97
666.879	25.92
667.067	26.39
667.254	26.88
667.441	27.13
667.629	27.31
667.816	27.28
668.003	27.46
668.19	28.05
668.378	28.54
668.565	27.99
668.752	28.24
668.939	27.61
669.127	27.47
669.314	26.83
669.501	26.64
669.688	26.27
669.875	26.38
670.062	26.26
670.249	26.11
670.436	25.62
670.623	25.83
670.81	26.09
670.997	26.51
671.184	26.64
671.371	27.16
671.558	27.24
671.745	27.66
671.932	27.39
672.119	27.42
672.306	27.39
672.493	27.58
672.68	27.92
672.867	27.99
673.054	27.83
673.24	27.58
673.427	27.48
673.614	27.59
673.801	27.48
673.988	27.56
674.174	28.06
674.361	28.56
674.548	28.96
674.734	28.67
674.921	28.47
675.108	28.71
675.294	28.63
675.481	28.55
675.668	28.89
675.854	29.18
676.041	29.17
676.227	29
676.414	28.7
676.601	28.31
676.787	28.02
676.974	27.93
677.16	28.07
677.347	27.89
677.533	28.02
677.719	27.18
677.906	26.68
678.092	26.61
678.279	27.04
678.465	26.84
678.651	26.94
678.838	26.85
679.024	27.14
679.21	27.11
679.397	27.53
679.583	27.65
679.769	28.29
679.955	28.73
680.142	29.3
680.328	29.03
680.514	28.83
680.7	29.17
680.886	29.76
681.073	29.99
681.259	30.23
681.445	30.35
681.631	30.05
681.817	29.9
682.003	29.78
682.189	29.53
682.375	29.58
682.561	29.88
682.747	29.71
682.933	29.74
683.119	28.9
683.305	29.11
683.491	29.04
683.677	29.46
683.863	29.83
684.049	29.67
684.235	29.37
684.42	29.02
684.606	28.75
684.792	28.66
684.978	28.08
685.164	28.79
685.349	28.43
685.535	28.15
685.721	27.92
685.907	27.69
686.092	28.24
686.278	29.07
686.464	29.12
686.649	29.56
686.835	29.16
687.021	28.81
687.206	28.42
687.392	28.14
687.577	28.48
687.763	28.44
687.948	28.4
688.134	27.8
688.319	27.44
688.505	27.17
688.69	27.33
688.876	27.89
689.061	28.76
689.247	29.02
689.432	28.86
689.618	28.47
689.803	28.86
689.988	28.47
690.174	28.23
690.359	28.04
690.544	28.63
690.73	28.07
690.915	27.76
691.1	27.1
691.285	26.85
691.471	27.11
691.656	27.79
691.841	27.12
692.026	27.02
692.211	27.73
692.396	27.45
692.582	27.53
692.767	27.81
692.952	27.44
693.137	27.45
693.322	27.37
693.507	27.26
693.692	26.79
693.877	27.08
694.062	26.96
694.247	27.29
694.432	28.01
694.617	27.35
694.802	27.13
694.987	28.16
695.172	28.64
695.357	28.37
695.541	28.61
695.726	28.64
695.911	28.74
696.096	29.39
696.281	28.81
696.466	28.56
696.65	29.29
696.835	29.34
697.02	29.57
697.204	29.22
697.389	29.54
697.574	28.91
697.759	29.16
697.943	29.13
698.128	28.73
698.312	28.76
698.497	28.61
698.682	28.43
698.866	28.57
699.051	28.03
699.235	28.24
699.42	28.47
699.604	28.93
699.789	29.2
699.973	29.03
700.158	29.47
700.342	29.51
700.527	29.26
700.711	28.78
700.895	28.77
701.08	28.73
701.264	28.3
701.448	28.35
701.633	28.43
701.817	27.99
702.001	28.24
702.186	28.21
702.37	28.05
702.554	28.52
702.738	28.79
702.923	28.44
703.107	28.78
703.291	29.38
703.475	28.76
703.659	27.99
703.843	27.91
704.027	27.79
704.212	27.35
704.396	26.89
704.58	27.82
704.764	28.45
704.948	29.36
705.132	28.7
705.316	29.2
705.5	29.82
705.684	30.76
705.868	30.95
706.052	31.82
706.235	32.48
706.419	33.72
706.603	32.14
706.787	31.84
706.971	31.09
707.155	31.35
707.339	31.8
707.522	31.75
707.706	31.53
707.89	31.42
708.074	30.76
708.257	30.62
708.441	29.91
708.625	30.3
708.808	29.58
708.992	30.22
709.176	30.38
709.359	29.15
709.543	28.68
709.727	29.04
709.91	28.55
710.094	28.6
710.277	28.51
710.461	28.81
710.644	29.18
710.828	29.96
711.011	30.18
711.195	30.59
711.378	31.3
711.562	31.37
711.745	31.46
711.928	32.71
712.112	33.33
712.295	33.48
712.478	33.54
712.662	33.23
712.845	32.28
713.028	32.19
713.212	31.97
713.395	31.42
713.578	31.47
713.761	30.72
713.945	30.32
714.128	29.92
714.311	30.05
714.494	29.63
714.677	30.24
714.86	30.67
715.043	29.64
715.227	29.17
715.41	29.49
715.593	29.46
715.776	29.81
715.959	29.94
716.142	29.76
716.325	29.11
716.508	29.14
716.691	28.72
716.874	28.14
717.057	28.52
717.239	28.74
717.422	28.07
717.605	28.08
717.788	27.75
717.971	27.58
718.154	28.25
718.337	28.87
718.519	29.45
718.702	29.16
718.885	30.28
719.068	30.96
719.25	30.73
719.433	31.1
719.616	30.86
719.798	31.31
719.981	30.74
720.164	30.31
720.346	30.67
720.529	29.74
720.712	30.28
720.894	29.8
721.077	28.62
721.259	28.78
721.442	28.75
721.624	29.19
721.807	28.52
721.989	28.87
722.172	27.63
722.354	27.27
722.537	27.5
722.719	27.91
722.901	29
723.084	29.51
723.266	29.63
723.448	29.62
723.631	30.15
723.813	30.97
723.995	30.56
724.178	31.72
724.36	31.62
724.542	32.44
724.724	31.33
724.907	31.07
725.089	31.02
725.271	31.02
725.453	30.88
725.635	30.24
725.817	29.91
725.999	30.02
726.181	29.03
726.364	28.94
726.546	28.5
726.728	29.25
726.91	29.84
727.092	30.3
727.274	30.1
727.456	30.67
727.638	30.78
727.819	31.21
728.001	31.09
728.183	31.54
728.365	31.07
728.547	31.67
728.729	31.33
728.911	31.07
729.093	31.09
729.274	31.91
729.456	31.64
729.638	32.63
729.82	32.45
730.001	32.12
730.183	33.16
730.365	33.49
730.546	33.22
730.728	33.23
730.91	32.92
731.091	32.73
731.273	32.85
731.455	32.11
731.636	31.1
731.818	30.53
731.999	30.86
732.181	30.8
732.362	30.63
732.544	30.87
732.725	30.97
732.907	30.85
733.088	30.82
733.27	29.68
733.451	30.87
733.633	30.81
733.814	30.83
733.995	31.53
734.177	30.26
734.358	31.02
734.539	30.33
734.721	30.93
734.902	31.45
735.083	30.84
735.264	31.1
735.446	30.93
735.627	31.79
735.808	31.88
735.989	31.28
736.17	31.1
736.351	30.35
736.533	29.51
736.714	28.14
736.895	28.23
737.076	30.16
737.257	30.77
737.438	29.98
737.619	29.03
737.8	29.41
737.981	29.56
738.162	29.91
738.343	29.76
738.524	31.03
738.705	32.52
738.886	31.79
739.067	30.25
739.247	30.12
739.428	30.26
739.609	30.11
739.79	29.27
739.971	28.57
740.151	28.03
740.332	28.11
740.513	28.72
740.694	28.42
740.874	29.43
741.055	29.75
741.236	30.15
741.417	29.9
741.597	30.89
741.778	31.09
741.958	32.32
742.139	33.48
742.32	34.15
742.5	34.14
742.681	33.98
742.861	33.69
743.042	33.32
743.222	31.68
743.403	31.2
743.583	30.66
743.764	31.94
743.944	32.06
744.124	31.63
744.305	31.23
744.485	31.33
744.666	30.92
744.846	30.02
745.026	30.97
745.207	30.96
745.387	32.86
745.567	32.8
745.747	32.48
745.928	31.75
746.108	33.03
746.288	33.14
746.468	32.09
746.648	32.71
746.829	31.63
747.009	31.23
747.189	31.63
747.369	31.78
747.549	33.62
747.729	32.32
747.909	32.74
748.089	32.24
748.269	31.69
748.449	31.85
748.629	30.12
748.809	30.81
748.989	29.8
749.169	31.19
749.349	29.7
749.529	28.57
749.709	29.31
749.889	29
750.068	28.4
750.248	28.56
750.428	29.44
750.608	30.6
750.788	30.64
750.967	32.1
751.147	32.13
751.327	33.17
751.507	33.46
751.686	34.31
751.866	34.69
752.046	35.58
752.225	34.87
752.405	33.99
752.585	33.23
752.764	33.92
752.944	33.78
753.123	33.95
753.303	33.18
753.482	32.69
753.662	31.67
753.841	31.58
754.021	30.1
754.2	30.28
754.38	30.44
754.559	31.78
754.739	31.36
754.918	31.01
755.097	30.26
755.277	31.07
755.456	30.43
755.635	30.51
755.815	30.63
755.994	30.53
756.173	31.62
756.352	32.06
756.532	31.16
756.711	31.1
756.89	30.66
757.069	29.98
757.248	29.79
757.427	31.66
757.607	31.9
757.786	30.41
757.965	32.02
758.144	30.96
758.323	29.92
758.502	29.98
758.681	30.61
758.86	32.21
759.039	33.09
759.218	33.13
759.397	31.98
759.576	31.47
759.755	32.72
759.934	32.65
760.113	32.03
760.291	32.45
760.47	32.6
760.649	32.36
760.828	30.02
761.007	29.36
761.186	28.83
761.364	29.81
761.543	29.5
761.722	29.43
761.901	28.65
762.079	29.89
762.258	29.5
762.437	28.81
762.615	29.4
762.794	29.22
762.972	29.49
763.151	30.3
763.33	29.26
763.508	30.13
763.687	29.75
763.865	29.43
764.044	29.69
764.222	30.38
764.401	30.57
764.579	30.67
764.758	32.17
764.936	33.38
765.114	33.14
765.293	33.28
765.471	33.08
765.65	33.09
765.828	33.5
766.006	33.72
766.184	34.42
766.363	35.71
766.541	35.13
766.719	34.27
766.898	32.69
767.076	32.79
767.254	32.7
767.432	32.43
767.61	32.96
767.788	33.03
767.967	32.73
768.145	32.37
768.323	32.05
768.501	31.82
768.679	31.99
768.857	32.71
769.035	32.94
769.213	35
769.391	37.14
769.569	36.03
769.747	36.39
769.925	35.56
770.103	34.02
770.281	33.25
770.459	34.69
770.636	35.43
770.814	35.37
770.992	35.49
771.17	34.59
771.348	34.59
771.525	35.73
771.703	35.7
771.881	39.19
772.059	38.62
772.236	39.68
772.414	39.84
772.592	36.93
772.769	35.72
772.947	35.98
773.125	34.05
773.302	33.29
773.48	32.84
773.657	33.45
773.835	29.82
774.013	29.83
774.19	29.09
774.368	29.56
774.545	31.84
774.723	31.77
774.9	30.96
775.077	32.86
775.255	32.89
775.432	34.54
775.61	32.68
775.787	34.71
775.964	34.32
776.142	33.15
776.319	30.55
776.496	30.93
776.674	33.13
776.851	32.44
777.028	32.54
777.205	32.35
777.382	29.79
777.56	30.58
777.737	29.03
777.914	31.06
778.091	33.9
778.268	37
778.445	39.48
778.622	38.68
778.8	38.67
778.977	37.33
779.154	37.2
779.331	39.46
779.508	40.38
779.685	40.63
779.862	39.01
780.038	36.74
780.215	34.76
780.392	31.25
780.569	31.8
780.746	32.7
780.923	31.65
781.1	30.41
781.277	30.85
781.453	30.83
781.63	30.42
781.807	31.6
781.984	32.16
782.16	34.14
782.337	34.74
782.514	33.51
782.691	33.03
782.867	33.62
783.044	32.74
783.221	31.61
783.397	31.67
783.574	33.95
783.75	36.82
783.927	34.57
784.103	33.02
784.28	31.27
784.456	32.52
784.633	34.07
784.809	35.28
784.986	35.27
785.162	34.57
785.339	33.48
785.515	30.9
785.692	28.78
785.868	31.66
786.044	31.66
786.221	33.04
786.397	31.25
786.573	31.65
786.749	31.53
786.926	34.89
787.102	35.13
787.278	37.83
787.454	36.89
787.631	35.01
787.807	36.06
787.983	38.11
788.159	40.27
788.335	41.55
788.511	41.02
788.687	44.61
788.863	42.66
789.039	42.8
789.216	42.83
789.392	42.45
789.568	45.24
789.744	43.47
789.919	41.66
790.095	41.58
790.271	42.97
790.447	43.24
790.623	40.27
790.799	38.88
790.975	38.53
791.151	36.95
791.327	36.92
791.502	36.85
791.678	37.67
791.854	39.72
792.03	36.48
792.205	33.44
792.381	32.87
792.557	33.16
792.733	35.6
792.908	35.26
793.084	34.55
793.259	36.81
793.435	37.52
793.611	38.04
793.786	36.8
793.962	40.78
794.137	42.37
794.313	43.58
794.488	44.64
794.664	43.43
794.839	46.27
795.015	49.12
795.19	50.35
795.366	49.36
795.541	46.3
795.716	44.88
795.892	43.86
796.067	45.82
796.242	43.62
796.418	43.5
796.593	44.28
796.768	41.89
796.944	39.59
797.119	36.37
797.294	34.81
797.469	34.71
797.644	36.76
797.82	37.8
797.995	36.05
798.17	36.81
798.345	32.53
798.52	34.49
798.695	34.4
798.87	33.55
799.045	33.66
799.22	36.34
799.395	38.76
799.57	33.91
799.745	29.04
799.92	27.67
800.095	26.73
800.27	26.05
800.445	24.79
800.62	26.43
800.795	27.19
800.97	28.65
801.145	27.07
801.319	27.16
801.494	26.75
801.669	30.14
801.844	28.74
802.018	32.25
802.193	35.15
802.368	33.19
802.543	31.95
802.717	32.04
802.892	30.71
803.067	29.52
803.241	24.93
803.416	29.76
803.59	30.35
803.765	32.93
803.94	31.32
804.114	31.41
804.289	30.28
804.463	29.97
804.638	28.31
804.812	30.01
804.986	32.77
805.161	40.72
805.335	40.66
805.51	38.8
805.684	37.52
805.858	35.54
806.033	34.68
806.207	35.74
806.381	37.33
806.556	42.06
806.73	42.65
806.904	40.94
807.078	34.97
807.253	34.69
807.427	38.98
807.601	41.76
807.775	45
807.949	48.41
808.123	47.22
808.298	42.77
808.472	34.08
808.646	33.01
808.82	33.44
808.994	35.09
809.168	33.11
809.342	32.11
809.516	33.1
809.69	31.6
809.864	26.62
810.038	32.93
810.212	39.7
810.385	43.37
810.559	44.17
810.733	47.31
810.907	49.91
811.081	50.98
811.255	53.74
811.428	48.5
811.602	49.62
811.776	54.65
811.95	55.24
812.123	53.09
812.297	52.61
812.471	52.04
812.644	51.33
812.818	50.57
812.992	48.16
813.165	46.71
813.339	45.65
813.512	45.08
813.686	43.13
813.86	41.53
814.033	45
814.207	48.75
814.38	46.7
814.554	43.15
814.727	42.75
814.9	43.56
815.074	42.64
815.247	45.55
815.421	43.64
815.594	43.25
815.767	41.72
815.941	35.82
816.114	33.84
816.287	38.63
816.46	41.98
816.634	40.44
816.807	37.7
816.98	34.31
817.153	34.05
817.327	33.18
817.5	31.65
817.673	31.39
817.846	29.9
818.019	31.44
818.192	29.09
818.365	25.69
818.538	29.96
818.711	30.7
818.884	34.14
819.057	33.05
819.23	36.51
819.403	36.18
819.576	36.28
819.749	35.85
819.922	35.81
820.095	33.8
820.268	36.4
820.441	33.82
820.614	36.59
820.786	34.66
820.959	36.73
821.132	34.68
821.305	34.78
821.477	34.65
821.65	35.56
821.823	34.75
821.996	34.43
822.168	33.56
822.341	32.69
822.514	33.33
822.686	33.42
822.859	33.96
823.031	33.79
823.204	33.58
823.376	34.07
823.549	34.52
823.722	34.35
823.894	34.85
824.067	35.65
824.239	37.32
824.411	37.18
824.584	37.02
824.756	35.02
824.929	34.84
825.101	35.48
825.273	34.63
825.446	34.01
825.618	35.25
825.79	35.23
825.963	34.73
826.135	33.15
826.307	33.38
826.479	33.68
826.652	36.54
826.824	36.26
826.996	34.91
827.168	35.76
827.34	35.79
827.512	35.42
827.684	36.61
827.856	36.75
828.029	37.68
828.201	37.42
828.373	37.65
828.545	36.8
828.717	36.82
828.889	39.66
829.061	38.14
829.232	38.24
829.404	38.8
829.576	37.26
829.748	37.53
829.92	37.65
830.092	34.58
830.264	34.84
830.436	33.38
830.607	36.09
830.779	33.78
830.951	38.07
831.123	39.18
831.294	36.47
831.466	36.66
831.638	39.64
831.809	37.78
831.981	40.8
832.153	42.54
832.324	40.64
832.496	41.79
832.667	40.87
832.839	40.21
833.011	40.1
833.182	41.34
833.354	40.55
833.525	38.17
833.697	40.57
833.868	40.66
834.039	40.2
834.211	41.43
834.382	39.42
834.554	39.22
834.725	38.19
834.896	34.54
835.068	32.66
835.239	33.86
835.41	33.28
835.581	30.81
835.753	28.23
835.924	27.96
836.095	28.47
836.266	30.96
836.438	32.98
836.609	32.42
836.78	34.5
836.951	37.79
837.122	35.48
837.293	32.17
837.464	34.08
837.635	38.04
837.806	36.21
837.977	34.78
838.148	30.9
838.319	31.9
838.49	34.26
838.661	39.1
838.832	36.27
839.003	40.74
839.174	49.35
839.345	50.06
839.516	48.18
839.687	49.84
839.857	50.87
840.028	53.39
840.199	49.17
840.37	45.58
840.54	44.49
840.711	46.68
840.882	45.74
841.053	46.05
841.223	48.91
841.394	50.87
841.564	54.48
841.735	58.33
841.906	62.86
842.076	65.02
842.247	73.53
842.417	67.49
842.588	71.84
842.758	75.68
842.929	74.4
843.099	71.58
843.27	74.33
843.44	76.68
843.611	73.78
843.781	69.77
843.951	75.28
844.122	57.47
844.292	71.53
844.462	61.66
844.633	71.27
844.803	65.95
844.973	70.07
845.144	60.77
845.314	59.29
845.484	54.37
845.654	55.81
845.824	54.23
845.995	65.34
846.165	66.7
846.335	70.97
846.505	55.69
846.675	52.31
846.845	51.65
847.015	62.92
847.185	60.89
847.355	70.05
847.525	70.48
847.695	79.32
847.865	81.63
848.035	71.14
848.205	77.23
848.375	103.36
848.545	119.05
848.715	110.29
848.884	83.25
849.054	78.08
849.224	70.79
849.394	57.75
849.564	45.63
849.733	43.49
849.903	62.1
850.073	44.44
850.243	16.76
850.412	31.11
850.582	34.03
850.752	45.44
850.921	45.93
851.091	60.81
851.26	68.93
851.43	67.69
851.599	72.73
851.769	57.24
851.939	75.39
852.108	84.51
852.278	66.29
852.447	85.4
852.616	80.19
852.786	87.57
852.955	77.28
853.125	77.22
853.294	80.15
853.463	74.56
853.633	73.35
853.802	73.42
853.971	89.79
854.141	86.58
854.31	79.43
854.479	77.7
854.648	78.6
854.818	94.31
854.987	85.62
855.156	105.94
855.325	85.2
855.494	78.99
855.663	74.97
855.832	69.66
856.001	57.35
856.171	62.58
856.34	61.29
856.509	40.5
856.678	33.84
856.847	31.14
857.016	13.67
857.185	21.58
857.353	36.28
857.522	41.54
857.691	41.39
857.86	52.15
858.029	52.87
858.198	59.61
858.367	66.1
858.535	76.77
858.704	85.58
858.873	97.23
859.042	84.33
859.21	77.18
859.379	77.94
859.548	67.05
859.717	66.63
859.885	61.29
860.054	60.1
860.222	68.49
860.391	63.96
860.56	55.37
860.728	52.87
860.897	63.61
861.065	61.78
861.234	48.92
861.402	55.15
861.571	76.37
861.739	67.12
861.908	62.13
862.076	44
862.244	47.39
862.413	63.59
862.581	113.85
862.749	85.49
862.918	112.29
863.086	98.11
863.254	86.7
863.423	48.52
863.591	42.16
863.759	63.79
863.927	52.9
864.096	41.27
864.264	23.05
864.432	-9.47
864.6	-14.24
864.768	4.53
864.936	16.87
865.104	25.64
865.272	31.63
865.44	43.94
865.608	58.35
865.776	68.63
865.944	49.88
866.112	58.4
866.28	47.66
866.448	69.05
866.616	72.79
866.784	61.76
866.952	55.12
867.12	69.17
867.288	64.21
867.455	53.01
867.623	49.37
867.791	75.2
867.959	62.82
868.127	81.39
868.294	66.38
868.462	61.75
868.63	59.73
868.797	55.98
868.965	59.81
869.133	60.34
869.3	56.68
869.468	53.39
869.636	51.01
869.803	55.47
869.971	40.65
870.138	44.72
870.306	32.66
870.473	23.48
870.641	47.61
870.808	37.59
870.975	36.79
871.143	25.91
871.31	34.52
871.478	24.37
871.645	36.53
871.812	48.52
871.98	49.13
872.147	57.47
872.314	79.7
872.482	75.35
872.649	64.44
872.816	82.94
872.983	83.94
873.15	92.75
873.318	92.46
873.485	71.48
873.652	54.08
873.819	63
873.986	63.72
874.153	55.8
874.32	37.82
874.487	39.69
874.654	42.62
874.821	61.24
874.988	58.3
875.155	53.97
875.322	62.36
875.489	62.04
875.656	59.96
875.823	64.38
875.99	56.83
876.157	102.65
876.324	97.85
876.49	92.29
876.657	66.62
876.824	115.18
876.991	111.41
877.157	241.51
877.324	228.4
877.491	174.34
877.658	121.55
877.824	153.2
877.991	135.18
878.157	174.21
878.324	151.58
878.491	135.93
878.657	114.02
878.824	133.37
878.99	108.92
879.157	132.62
879.323	133.18
879.49	178.05
879.656	107
879.823	90.52
879.989	53.68
880.156	109.17
880.322	165
880.488	106.92
880.655	58.45
880.821	47.46
880.987	24.44
881.154	16.38
881.32	26.76
881.486	35.92
881.652	37.11
881.819	38.2
881.985	35.46
882.151	32.86
882.317	38.13
882.483	38.13
882.649	38.21
882.816	41.68
882.982	37.27
883.148	33.17
883.314	33.18
883.48	33.57
883.646	35.11
883.812	32.96
883.978	32.96
884.144	32.32
884.31	34.73
884.476	36.13
884.642	36.7
884.807	41.3
884.973	43.34
885.139	43.32
885.305	42.17
885.471	39.18
885.637	42.38
885.802	43.96
885.968	47.09
886.134	49.33
886.3	46.71
886.465	46.63
886.631	47.91
886.797	50.01
886.962	45.8
887.128	48.16
887.293	55.84
887.459	53.99
887.625	58.82
887.79	55.4
887.956	59.23
888.121	63.89
888.287	64.59
888.452	58.67
888.618	61.98
888.783	74.34
