Data from 2937818_Reflection_1.txt Node
Date: Wed Jul 15 17:26:49 EDT 2015
User: robert
Spectrometer: USB4E03001
Autoset integration time: false
Trigger mode: 4
Integration Time (sec): 1.000000E-1
Scans to average: 10
Electric dark correction enabled: true
Nonlinearity correction enabled: false
Boxcar width: 5
Stray light correction enabled: false
XAxis mode: Wavelengths
Stop averaging: false
Number of Pixels in Spectrum: 3648
>>>>>Begin Spectral Data<<<<<
177.566	471.47
177.785	200.71
178.005	260.29
178.225	249.26
178.445	94.32
178.665	122.75
178.885	84.49
179.105	247.87
179.324	104.74
179.544	64.11
179.764	-31.84
179.984	216.5
180.204	229.71
180.423	151.33
180.643	147.1
180.863	92.44
181.083	92.4
181.302	96.67
181.522	96.44
181.742	70.89
181.961	80.2
182.181	95.14
182.401	92.94
182.621	58.07
182.84	96.42
183.06	103.48
183.279	139.19
183.499	148.38
183.719	18.8
183.938	3.4
184.158	128.24
184.377	365.27
184.597	5565.22
184.816	-297.73
185.036	-124.86
185.256	216
185.475	-1.67
185.695	18.84
185.914	94.88
186.134	-308.82
186.353	495.9
186.572	114.15
186.792	-104.71
187.011	-68.86
187.231	-32.34
187.45	-18.49
187.67	-1.78
187.889	-21.22
188.108	-23.59
188.328	-31.53
188.547	-28.74
188.766	-72.18
188.986	-89.37
189.205	-71.09
189.424	-158.36
189.644	-722.33
189.863	-1899.29
190.082	190.72
190.302	213.66
190.521	204.01
190.74	113.57
190.959	63.25
191.178	-119.04
191.398	-96.85
191.617	-309.18
191.836	-1368.28
192.055	1842.13
192.274	383.37
192.494	1652.29
192.713	768.21
192.932	-979.38
193.151	-101.35
193.37	-89.36
193.589	21.71
193.808	-40.43
194.027	-6.74
194.246	92.78
194.465	257.39
194.685	226.61
194.904	11418.75
195.123	541.65
195.342	-2142.35
195.561	108.28
195.78	-255.91
195.999	55.51
196.218	-395.78
196.436	54.7
196.655	199.9
196.874	238
197.093	200.29
197.312	125.19
197.531	84.88
197.75	72.54
197.969	108.13
198.188	27.59
198.407	58.39
198.625	51.51
198.844	-57.46
199.063	-200
199.282	318.72
199.501	166.91
199.719	263.04
199.938	541.76
200.157	1095.18
200.376	-6196.4
200.594	1001.11
200.813	289.18
201.032	360.77
201.251	130.06
201.469	-45.93
201.688	-16.25
201.907	32.86
202.125	51.1
202.344	100.13
202.563	111.47
202.781	127.39
203	164.87
203.218	185.04
203.437	136.95
203.656	70.8
203.874	72.42
204.093	616.44
204.311	38.09
204.53	3.9
204.748	-0.04
204.967	-0.03
205.185	51.69
205.404	52.48
205.622	29.51
205.841	60.61
206.059	37.73
206.278	64.93
206.496	59.25
206.715	90.97
206.933	167.56
207.151	133.09
207.37	441.25
207.588	217.2
207.806	-8560.34
208.025	-233.8
208.243	-4.53
208.461	197.53
208.68	267.78
208.898	24.51
209.116	9.26
209.335	32.1
209.553	60.05
209.771	11.89
209.989	9.64
210.208	12.28
210.426	12.29
210.644	22.35
210.862	22.98
211.081	32.89
211.299	61.26
211.517	96.8
211.735	96.93
211.953	223.15
212.171	159.11
212.39	108.77
212.608	79.97
212.826	85.74
213.044	97.46
213.262	105.14
213.48	75.09
213.698	59.86
213.916	69.32
214.134	15.26
214.352	-87.74
214.57	-127.31
214.788	-464.86
215.006	-752.27
215.224	-584.03
215.442	-437.36
215.66	-490.47
215.878	-271.07
216.096	-533.61
216.314	160.98
216.532	104.21
216.75	90.36
216.968	80.16
217.185	6.84
217.403	7.13
217.621	8
217.839	14.48
218.057	29.92
218.275	54.96
218.492	64.53
218.71	81.07
218.928	123.18
219.146	109.31
219.363	183.14
219.581	2316.13
219.799	2411.71
220.017	-61.03
220.234	-61.29
220.452	-287.64
220.67	-1074.77
220.887	754.77
221.105	-240.51
221.323	-528.69
221.54	-137.62
221.758	1271.05
221.976	878.89
222.193	-687.96
222.411	-1975.43
222.629	285.3
222.846	13.24
223.064	-23.03
223.281	-5.85
223.499	12.84
223.716	29.14
223.934	-217.7
224.151	-111.09
224.369	-66.8
224.586	-65.89
224.804	-100.28
225.021	-89.13
225.239	-54.3
225.456	-26.22
225.674	-29.1
225.891	-20.93
226.108	-0.87
226.326	2.17
226.543	3
226.76	24.51
226.978	25.21
227.195	20.07
227.413	20.46
227.63	8.04
227.847	9.59
228.064	2.4
228.282	6.03
228.499	12.57
228.716	16.12
228.934	18.11
229.151	16.19
229.368	17.41
229.585	15.67
229.802	14.24
230.02	20.18
230.237	18.67
230.454	22.24
230.671	20.98
230.888	19.21
231.105	16.17
231.323	13.58
231.54	9.14
231.757	5.69
231.974	9.41
232.191	8.35
232.408	-2.42
232.625	-7.91
232.842	-3.65
233.059	-12.3
233.276	-19.03
233.493	-7.33
233.71	-1.4
233.927	-8.01
234.144	-16.24
234.361	-14.78
234.578	-10.99
234.795	-5.34
235.012	5.94
235.229	9.73
235.446	15.07
235.663	24.01
235.879	28.26
236.096	23.35
236.313	29.57
236.53	31.65
236.747	30.56
236.964	24.7
237.181	28.59
237.397	11.5
237.614	1.93
237.831	6.77
238.048	-7.65
238.264	-29.21
238.481	-32.05
238.698	-21.89
238.915	-24.11
239.131	-14.34
239.348	-3.7
239.565	-8.63
239.781	-11.14
239.998	-14.61
240.215	-11.09
240.431	-9.9
240.648	-10.63
240.865	-4.13
241.081	1.33
241.298	3.1
241.514	2.58
241.731	-1.38
241.947	2.2
242.164	7.52
242.38	12
242.597	11.44
242.814	13.04
243.03	16.11
243.246	16.3
243.463	13.38
243.679	18.65
243.896	17.27
244.112	20.45
244.329	21.37
244.545	23.7
244.762	24.36
244.978	23.9
245.194	25.43
245.411	23.04
245.627	20.82
245.843	21.42
246.06	18.11
246.276	18.95
246.492	17.54
246.709	17.1
246.925	15.23
247.141	15.11
247.357	14.42
247.574	13.31
247.79	14.49
248.006	15.47
248.222	15.6
248.439	15.27
248.655	14.05
248.871	13.86
249.087	12.08
249.303	11.49
249.519	10.12
249.736	11.15
249.952	9.81
250.168	7.17
250.384	6.28
250.6	7.13
250.816	9.46
251.032	12.43
251.248	11.03
251.464	15.42
251.68	17.39
251.896	17.09
252.112	14.24
252.328	16.39
252.544	16.46
252.76	15.25
252.976	15.02
253.192	13.35
253.408	11.97
253.624	13.1
253.84	11.18
254.056	11.69
254.272	7.71
254.487	8.94
254.703	11.31
254.919	16.98
255.135	16.86
255.351	12.49
255.567	7.76
255.782	12.78
255.998	12.68
256.214	10.11
256.43	6.35
256.646	11.61
256.861	15.7
257.077	13.98
257.293	10.45
257.508	10.83
257.724	10.1
257.94	13.61
258.155	10.57
258.371	10.09
258.587	10.56
258.802	12.58
259.018	13.15
259.234	11.76
259.449	10.67
259.665	10.84
259.88	11.48
260.096	12.25
260.312	12.28
260.527	13.06
260.743	13.37
260.958	12.86
261.174	11.97
261.389	10.48
261.605	9.76
261.82	9.74
262.036	9.42
262.251	9.18
262.466	8.87
262.682	6.61
262.897	4.59
263.113	2.51
263.328	4.57
263.543	3.33
263.759	1.74
263.974	1.51
264.189	0.85
264.405	2.51
264.62	2.76
264.835	2.61
265.051	1.91
265.266	3.34
265.481	5.14
265.696	3.9
265.912	6.58
266.127	9.77
266.342	10.75
266.557	11.17
266.773	9.12
266.988	6.8
267.203	6.63
267.418	8.4
267.633	8.19
267.848	9.26
268.064	8.8
268.279	7.73
268.494	7.83
268.709	7.66
268.924	7.97
269.139	8.14
269.354	9.12
269.569	9.07
269.784	8.16
269.999	7.74
270.214	7.16
270.429	9.48
270.644	9.11
270.859	8.98
271.074	9.2
271.289	7.76
271.504	9.34
271.719	8.69
271.934	8.33
272.149	9.89
272.363	9.61
272.578	7.5
272.793	5.75
273.008	6.86
273.223	7.83
273.438	7.19
273.653	7.18
273.867	5.35
274.082	5.85
274.297	4.72
274.512	1.56
274.726	2.63
274.941	4.47
275.156	6.21
275.371	5.83
275.585	1.7
275.8	2.87
276.015	3.21
276.229	2.9
276.444	4.75
276.659	6.68
276.873	11.77
277.088	10.31
277.302	13.06
277.517	11.41
277.732	13.01
277.946	14.49
278.161	14.73
278.375	16.67
278.59	16.55
278.804	15
279.019	16.16
279.233	11.23
279.448	9.47
279.662	6.4
279.877	7.4
280.091	5.89
280.306	6.03
280.52	4.09
280.735	2.65
280.949	2.44
281.163	2.38
281.378	3.8
281.592	4.13
281.806	6.85
282.021	8.27
282.235	6.34
282.449	7.44
282.664	7.5
282.878	9.83
283.092	10.54
283.307	12.21
283.521	12.46
283.735	11.62
283.949	12.2
284.164	10.68
284.378	10.06
284.592	11.18
284.806	10.37
285.02	10.24
285.234	10.06
285.449	10.46
285.663	10.82
285.877	11.25
286.091	11.48
286.305	12.13
286.519	13.12
286.733	12.35
286.947	13.16
287.161	10.98
287.375	9.14
287.589	10
287.803	9.58
288.017	7.07
288.231	6.72
288.445	4.17
288.659	2.41
288.873	1.8
289.087	2.93
289.301	2.09
289.515	4.33
289.729	7.58
289.943	7.21
290.157	7.62
290.371	8.79
290.584	9.23
290.798	9.84
291.012	9.93
291.226	9.48
291.44	8.22
291.654	7.93
291.867	7.4
292.081	7
292.295	4.85
292.509	5.49
292.722	6.83
292.936	6.39
293.15	6.81
293.364	7.78
293.577	9.32
293.791	11.13
294.005	13.44
294.218	13.14
294.432	12.14
294.645	14.75
294.859	12.39
295.073	11.31
295.286	10.39
295.5	10.53
295.713	8.8
295.927	7.79
296.14	9.28
296.354	8.47
296.568	10.38
296.781	12.77
296.994	10.98
297.208	11.71
297.421	12
297.635	13.48
297.848	14.53
298.062	16.22
298.275	16.5
298.489	14.69
298.702	14.29
298.915	14.2
299.129	12.53
299.342	13.5
299.555	16.38
299.769	15.06
299.982	13.37
300.195	12.9
300.409	12.88
300.622	13.47
300.835	13.82
301.048	12.87
301.262	13.36
301.475	13.39
301.688	13.7
301.901	10.62
302.115	12.07
302.328	11.59
302.541	9.66
302.754	9.7
302.967	7.05
303.18	5.9
303.393	6.49
303.607	6.09
303.82	4.66
304.033	3.25
304.246	5.03
304.459	5.75
304.672	7.39
304.885	10.14
305.098	11.26
305.311	11.78
305.524	12.89
305.737	13.15
305.95	11.48
306.163	12.25
306.376	14.88
306.589	13.33
306.802	12.15
307.015	11
307.228	10.42
307.44	8.78
307.653	10.49
307.866	10.59
308.079	12.13
308.292	12.44
308.505	13.35
308.718	13.2
308.93	13.52
309.143	14.33
309.356	14.34
309.569	14.49
309.781	14.52
309.994	14.7
310.207	15.39
310.42	15.14
310.632	16.49
310.845	16.53
311.058	15.57
311.27	15.8
311.483	15.39
311.696	16.72
311.908	15.29
312.121	15.13
312.333	13.37
312.546	13.31
312.759	11.96
312.971	10.7
313.184	9
313.396	7.97
313.609	5.56
313.821	6.08
314.034	3.7
314.246	4.73
314.459	5.65
314.671	6.81
314.884	6.08
315.096	6.87
315.309	5.85
315.521	7.05
315.733	9.03
315.946	10.78
316.158	11.54
316.371	11.15
316.583	10.56
316.795	10.63
317.008	13.33
317.22	11.77
317.432	14.32
317.644	14.73
317.857	14.89
318.069	13.95
318.281	12.03
318.494	13.08
318.706	14.06
318.918	14.09
319.13	14.48
319.342	13.51
319.555	14.08
319.767	12.09
319.979	12.02
320.191	11.69
320.403	10.52
320.615	12.37
320.827	11.19
321.039	10.71
321.252	12.33
321.464	11.56
321.676	11.68
321.888	13.08
322.1	12.31
322.312	11.88
322.524	12.66
322.736	13.67
322.948	15.77
323.16	15.01
323.372	14.86
323.584	14.02
323.796	13.58
324.007	14.57
324.219	13.23
324.431	14.18
324.643	15.04
324.855	14.4
325.067	13.47
325.279	11.33
325.491	12.63
325.702	13.79
325.914	13.51
326.126	13.77
326.338	11.43
326.55	12.13
326.761	11.79
326.973	11.72
327.185	12.27
327.396	12.22
327.608	12.94
327.82	9.95
328.032	9.31
328.243	10.28
328.455	10.41
328.666	11.85
328.878	12.5
329.09	11.87
329.301	10.8
329.513	10.75
329.725	10.05
329.936	8.61
330.148	10.86
330.359	9.88
330.571	8.4
330.782	9.2
330.994	7.84
331.205	7.39
331.417	9.01
331.628	10.08
331.84	8.56
332.051	9.46
332.262	11.12
332.474	9.92
332.685	12.64
332.897	13
333.108	10.5
333.319	10.4
333.531	10.17
333.742	8.46
333.953	7.89
334.165	9.19
334.376	9.6
334.587	9.95
334.799	7.78
335.01	5.67
335.221	7.98
335.432	9.4
335.644	10.22
335.855	10.31
336.066	11.43
336.277	10.41
336.488	9.6
336.7	8.15
336.911	6.86
337.122	9.51
337.333	9.64
337.544	7.86
337.755	7.94
337.966	8.6
338.177	7.58
338.388	7.8
338.599	8.42
338.811	9.3
339.022	10.89
339.233	10.9
339.444	10.89
339.655	10.93
339.866	9.67
340.076	8.65
340.287	8.93
340.498	8.64
340.709	9
340.92	9.34
341.131	8.59
341.342	7.58
341.553	7.23
341.764	8.19
341.975	9.36
342.185	10.53
342.396	12.23
342.607	11.27
342.818	12.15
343.029	10.57
343.239	11.84
343.45	11.81
343.661	12.54
343.872	13.61
344.082	12.92
344.293	11.82
344.504	11.31
344.714	10.36
344.925	9.99
345.136	9.44
345.346	10.58
345.557	6.82
345.768	7.43
345.978	9.24
346.189	9.21
346.399	9.11
346.61	8.19
346.821	9.17
347.031	9.25
347.242	9.45
347.452	10.74
347.663	9.93
347.873	12.63
348.084	11.65
348.294	10.5
348.504	9.47
348.715	10.24
348.925	9.77
349.136	7.64
349.346	8.25
349.557	9.96
349.767	9.64
349.977	10.81
350.188	11.11
350.398	11.04
350.608	10.89
350.819	12.78
351.029	10.71
351.239	13.01
351.449	14.53
351.66	15.09
351.87	13.01
352.08	12.62
352.29	11.58
352.501	12.05
352.711	14.47
352.921	13.41
353.131	12.58
353.341	13.7
353.552	11.92
353.762	11.89
353.972	10.78
354.182	10.2
354.392	9.55
354.602	10.31
354.812	9.01
355.022	7.77
355.232	8.45
355.442	8.42
355.652	9.18
355.862	9.9
356.072	10.2
356.282	10.93
356.492	11.72
356.702	12.12
356.912	11.91
357.122	12.68
357.332	13.02
357.542	12.64
357.752	11.68
357.962	11.39
358.171	11.57
358.381	11.23
358.591	10.21
358.801	10.43
359.011	10.6
359.221	11.46
359.43	11.09
359.64	11.04
359.85	11.06
360.06	11.67
360.269	11.44
360.479	11.76
360.689	11.57
360.899	11.98
361.108	11.21
361.318	11.58
361.528	11.14
361.737	11.81
361.947	11.29
362.156	10.59
362.366	10.35
362.576	9.93
362.785	10.64
362.995	11.59
363.204	11.65
363.414	11.96
363.623	11.92
363.833	11.66
364.042	10.78
364.252	11.29
364.461	12.01
364.671	12.63
364.88	13.08
365.09	11.76
365.299	10.34
365.509	10.51
365.718	10.56
365.927	10.64
366.137	10.22
366.346	10.52
366.555	9.38
366.765	9.73
366.974	9.79
367.183	8.68
367.393	8.65
367.602	8.44
367.811	8.23
368.021	8.25
368.23	6.83
368.439	6.68
368.648	4.59
368.857	6.67
369.067	5.89
369.276	5.68
369.485	6.5
369.694	6.56
369.903	7.46
370.112	6.39
370.321	7.12
370.531	8
370.74	7.99
370.949	10.18
371.158	8.52
371.367	9.07
371.576	8.64
371.785	8.86
371.994	8.52
372.203	8.2
372.412	9.06
372.621	7.78
372.83	7.3
373.039	8.27
373.248	7.29
373.457	7.33
373.666	7.01
373.874	6.3
374.083	6.28
374.292	6.09
374.501	6.1
374.71	6.01
374.919	7.28
375.128	7.88
375.336	7.37
375.545	7.35
375.754	8.1
375.963	8.6
376.171	8.6
376.38	8.51
376.589	8.63
376.798	7.75
377.006	7.48
377.215	6.7
377.424	5.71
377.632	4.95
377.841	5.29
378.05	4.64
378.258	3.95
378.467	4.3
378.675	4.65
378.884	4.04
379.093	3.86
379.301	3.28
379.51	3.34
379.718	4.26
379.927	4.68
380.135	4.78
380.344	5.08
380.552	4.93
380.761	5.92
380.969	5.67
381.177	5.85
381.386	6.23
381.594	6.81
381.803	6.9
382.011	6.69
382.219	6.49
382.428	5.65
382.636	5.43
382.845	6.03
383.053	4.95
383.261	4.97
383.469	5.3
383.678	5.49
383.886	5.81
384.094	5.86
384.302	6.2
384.511	5.75
384.719	6.19
384.927	6.65
385.135	6.49
385.343	6.19
385.552	6.16
385.76	6.29
385.968	6.36
386.176	6.27
386.384	6.68
386.592	6.53
386.8	6.73
387.008	6.56
387.216	6.15
387.424	6.57
387.633	6.99
387.841	6.79
388.049	6.08
388.257	6.32
388.465	5.96
388.672	5.27
388.88	5.22
389.088	5.61
389.296	5.63
389.504	5.91
389.712	5.36
389.92	5.07
390.128	5.38
390.336	6.13
390.544	5.85
390.751	5.86
390.959	6.22
391.167	5.76
391.375	5.75
391.583	5.91
391.79	5.43
391.998	5.15
392.206	5.35
392.414	5.15
392.621	5.21
392.829	5.16
393.037	5.46
393.244	5
393.452	5.22
393.66	4.91
393.867	4.89
394.075	5.04
394.283	5.36
394.49	5.21
394.698	5.34
394.905	5.02
395.113	4.83
395.32	4.44
395.528	4.88
395.735	4.66
395.943	4.64
396.15	3.85
396.358	3.87
396.565	4.01
396.773	4.44
396.98	4.16
397.188	4.1
397.395	4.55
397.602	4.74
397.81	4.94
398.017	5.15
398.225	5.32
398.432	5.99
398.639	5.68
398.847	5.67
399.054	5.22
399.261	5.13
399.468	5.27
399.676	5.09
399.883	5.1
400.09	4.5
400.297	4.81
400.505	4.43
400.712	4.41
400.919	4.79
401.126	4.51
401.333	4.22
401.54	4.05
401.748	3.91
401.955	4.01
402.162	3.68
402.369	3.91
402.576	3.55
402.783	3.69
402.99	3.77
403.197	3.56
403.404	3.59
403.611	4.15
403.818	4.35
404.025	4.68
404.232	4.35
404.439	4.65
404.646	4.73
404.853	4.64
405.06	4.99
405.267	5.18
405.474	5.46
405.681	5.41
405.887	5.12
406.094	4.79
406.301	4.46
406.508	4.49
406.715	4.15
406.922	3.76
407.128	3.76
407.335	3.82
407.542	3.62
407.749	3.32
407.955	3.48
408.162	3.47
408.369	4.02
408.575	3.82
408.782	4.12
408.989	4.34
409.195	4.71
409.402	4.67
409.609	4.44
409.815	4.57
410.022	4.59
410.228	4.38
410.435	4.46
410.642	4.38
410.848	4.99
411.055	4.9
411.261	4.9
411.468	4.72
411.674	4.8
411.881	4.54
412.087	4.43
412.294	4.3
412.5	4.46
412.706	5.05
412.913	4.82
413.119	4.37
413.326	4.25
413.532	4.36
413.738	4.32
413.945	4.42
414.151	4.39
414.357	4.03
414.564	3.98
414.77	4
414.976	3.49
415.182	3.61
415.389	3.45
415.595	3.32
415.801	3.37
416.007	3.52
416.214	3.38
416.42	3.78
416.626	3.78
416.832	4.04
417.038	3.87
417.244	3.7
417.45	3.72
417.657	4.3
417.863	4.27
418.069	4.15
418.275	4.22
418.481	4.36
418.687	4.29
418.893	4.38
419.099	4.4
419.305	4.58
419.511	4.58
419.717	4.51
419.923	4.25
420.129	4.2
420.335	4.23
420.541	4.25
420.746	4.24
420.952	4.12
421.158	4.1
421.364	4
421.57	3.91
421.776	3.98
421.982	4.1
422.187	4.06
422.393	4.15
422.599	4.04
422.805	3.78
423.01	3.84
423.216	3.86
423.422	3.98
423.628	4.07
423.833	4.03
424.039	3.86
424.245	3.87
424.45	3.84
424.656	3.88
424.862	3.98
425.067	4.14
425.273	4.03
425.478	4.13
425.684	4.22
425.889	4.23
426.095	4.28
426.301	4.68
426.506	4.47
426.712	4.42
426.917	4.53
427.123	4.49
427.328	4.47
427.533	4.33
427.739	4.44
427.944	4.19
428.15	4.09
428.355	4.04
428.561	3.73
428.766	3.84
428.971	4
429.177	3.87
429.382	3.93
429.587	4.01
429.793	4.35
429.998	4.11
430.203	4.14
430.408	4.06
430.614	4.06
430.819	3.98
431.024	4.08
431.229	4.1
431.434	4.13
431.64	4
431.845	4.19
432.05	4.19
432.255	4.18
432.46	4.08
432.665	4.06
432.87	4
433.076	4
433.281	3.87
433.486	3.81
433.691	3.85
433.896	3.83
434.101	3.46
434.306	3.14
434.511	3.23
434.716	3.2
434.921	3.19
435.126	3.23
435.331	3.42
435.535	3.46
435.74	3.55
435.945	3.53
436.15	3.55
436.355	3.73
436.56	4.08
436.765	3.99
436.97	4.17
437.174	4.42
437.379	4.51
437.584	4.44
437.789	4.47
437.993	4.27
438.198	4.11
438.403	3.98
438.608	4.01
438.812	3.83
439.017	3.82
439.222	3.83
439.426	3.73
439.631	3.88
439.836	3.96
440.04	3.96
440.245	3.98
440.45	4.1
440.654	4.32
440.859	4.37
441.063	4.32
441.268	4.26
441.472	4.43
441.677	4.41
441.881	4.17
442.086	4.05
442.29	4.07
442.495	4.09
442.699	4.18
442.904	4.07
443.108	3.88
443.312	4
443.517	4.13
443.721	3.88
443.925	3.98
444.13	4.08
444.334	4.19
444.538	4.26
444.743	4.36
444.947	4.14
445.151	4.27
445.356	4.42
445.56	4.47
445.764	4.43
445.968	4.42
446.173	4.26
446.377	4.25
446.581	4.21
446.785	4.09
446.989	3.99
447.193	4
447.398	3.83
447.602	3.78
447.806	3.7
448.01	3.63
448.214	3.65
448.418	3.87
448.622	3.84
448.826	3.61
449.03	3.61
449.234	3.56
449.438	3.6
449.642	3.79
449.846	3.8
450.05	3.79
450.254	3.76
450.458	3.78
450.662	3.68
450.866	3.55
451.069	3.75
451.273	3.86
451.477	4.03
451.681	4.01
451.885	3.83
452.089	3.87
452.292	3.7
452.496	3.8
452.7	3.66
452.904	3.46
453.107	3.53
453.311	3.47
453.515	3.26
453.719	3.19
453.922	3.04
454.126	3.01
454.33	2.84
454.533	2.83
454.737	2.54
454.94	2.52
455.144	2.73
455.348	2.73
455.551	2.89
455.755	3.17
455.958	3.19
456.162	3.32
456.365	3.32
456.569	3.3
456.772	3.35
456.976	3.73
457.179	3.86
457.383	3.75
457.586	3.73
457.79	3.48
457.993	3.43
458.196	3.58
458.4	3.72
458.603	3.77
458.807	3.82
459.01	3.97
459.213	3.81
459.417	3.85
459.62	3.75
459.823	3.76
460.026	3.94
460.23	3.98
460.433	3.81
460.636	3.68
460.839	3.7
461.042	3.78
461.246	3.7
461.449	3.69
461.652	3.7
461.855	3.97
462.058	4.05
462.261	4.11
462.464	3.94
462.668	4.06
462.871	4.06
463.074	4.11
463.277	3.89
463.48	3.7
463.683	3.73
463.886	3.53
464.089	3.16
464.292	2.93
464.495	2.83
464.698	2.81
464.901	2.81
465.104	2.9
465.306	2.72
465.509	2.96
465.712	3.31
465.915	3.13
466.118	3.35
466.321	3.61
466.524	3.73
466.726	3.58
466.929	3.82
467.132	3.52
467.335	3.44
467.538	3.47
467.74	3.08
467.943	2.85
468.146	2.96
468.348	2.84
468.551	2.76
468.754	2.8
468.956	2.98
469.159	2.86
469.362	3.31
469.564	3.41
469.767	3.63
469.969	3.9
470.172	3.95
470.375	4.09
470.577	4.13
470.78	4.12
470.982	4.26
471.185	4.04
471.387	3.87
471.59	3.72
471.792	3.68
471.995	3.64
472.197	3.55
472.399	3.55
472.602	3.53
472.804	3.63
473.007	3.7
473.209	3.57
473.411	3.6
473.614	3.79
473.816	3.67
474.018	3.69
474.22	3.41
474.423	3.48
474.625	3.62
474.827	3.54
475.03	3.27
475.232	3.29
475.434	3.33
475.636	3.32
475.838	3.29
476.04	3.31
476.243	3.47
476.445	3.9
476.647	3.85
476.849	3.89
477.051	3.8
477.253	3.78
477.455	3.76
477.657	3.81
477.859	3.82
478.061	3.73
478.263	3.82
478.465	3.81
478.667	3.5
478.869	3.66
479.071	3.43
479.273	3.59
479.475	3.62
479.677	3.6
479.879	3.47
480.081	3.47
480.283	3.58
480.485	3.59
480.686	3.44
480.888	3.62
481.09	3.62
481.292	3.66
481.494	3.7
481.695	3.81
481.897	3.75
482.099	3.77
482.301	3.85
482.502	3.79
482.704	3.79
482.906	3.87
483.107	3.68
483.309	3.74
483.511	3.74
483.712	3.75
483.914	3.73
484.115	3.75
484.317	3.76
484.519	3.76
484.72	3.83
484.922	3.81
485.123	3.76
485.325	3.85
485.526	3.85
485.728	3.87
485.929	3.79
486.131	3.85
486.332	3.87
486.534	3.87
486.735	3.91
486.936	3.81
487.138	3.79
487.339	3.77
487.541	3.78
487.742	3.78
487.943	3.75
488.144	3.86
488.346	3.83
488.547	3.76
488.748	3.78
488.95	3.79
489.151	3.78
489.352	3.85
489.553	3.89
489.755	3.82
489.956	3.73
490.157	3.78
490.358	3.72
490.559	3.64
490.76	3.76
490.961	3.73
491.163	3.64
491.364	3.73
491.565	3.71
491.766	3.72
491.967	3.8
492.168	3.77
492.369	3.77
492.57	3.76
492.771	3.7
492.972	3.57
493.173	3.51
493.374	3.68
493.575	3.71
493.776	3.65
493.976	3.69
494.177	3.58
494.378	3.59
494.579	3.58
494.78	3.53
494.981	3.68
495.182	3.83
495.382	3.9
495.583	3.71
495.784	3.63
495.985	3.67
496.185	3.63
496.386	3.73
496.587	3.76
496.788	3.7
496.988	3.73
497.189	3.74
497.39	3.8
497.59	3.66
497.791	3.65
497.992	3.47
498.192	3.45
498.393	3.36
498.593	3.27
498.794	3.2
498.994	3.19
499.195	3.23
499.395	3.17
499.596	3.13
499.796	3.37
499.997	3.35
500.197	3.72
500.398	3.74
500.598	3.72
500.799	3.67
500.999	3.63
501.199	3.66
501.4	3.64
501.6	3.79
501.801	3.72
502.001	3.7
502.201	3.53
502.402	3.42
502.602	3.23
502.802	3.23
503.002	3.43
503.203	3.62
503.403	3.65
503.603	3.71
503.803	3.55
504.003	3.51
504.204	3.31
504.404	3.38
504.604	3.38
504.804	3.53
505.004	3.61
505.204	3.59
505.404	3.5
505.604	3.59
505.804	3.63
506.005	3.75
506.205	3.84
506.405	4.05
506.605	4.19
506.805	4.06
507.005	4.04
507.204	4.11
507.404	4.1
507.604	4.18
507.804	4.13
508.004	3.92
508.204	3.92
508.404	3.95
508.604	3.86
508.804	4.01
509.003	4.06
509.203	4.03
509.403	4.06
509.603	3.98
509.803	3.95
510.002	3.94
510.202	4.16
510.402	4.2
510.602	4.18
510.801	4.21
511.001	4.01
511.201	3.99
511.4	4.17
511.6	4.1
511.8	4.15
511.999	4.22
512.199	4.2
512.398	4.02
512.598	3.95
512.797	3.95
512.997	4.11
513.197	4
513.396	3.88
513.596	3.8
513.795	3.74
513.994	3.89
514.194	3.99
514.393	4.12
514.593	4.22
514.792	4.27
514.992	4.23
515.191	4.26
515.39	4.45
515.59	4.67
515.789	4.85
515.988	4.9
516.188	4.9
516.387	4.86
516.586	4.81
516.786	4.8
516.985	4.87
517.184	4.9
517.383	4.91
517.582	4.99
517.782	4.93
517.981	4.73
518.18	4.84
518.379	4.85
518.578	4.74
518.777	4.68
518.976	4.77
519.176	4.86
519.375	5.03
519.574	4.91
519.773	4.83
519.972	4.97
520.171	5.11
520.37	5.1
520.569	5.03
520.768	5.05
520.967	5.09
521.166	5.05
521.365	4.96
521.564	4.74
521.762	4.69
521.961	4.6
522.16	4.61
522.359	4.56
522.558	4.6
522.757	4.7
522.956	4.71
523.154	4.77
523.353	4.71
523.552	4.72
523.751	4.77
523.949	4.97
524.148	5.03
524.347	4.89
524.546	4.86
524.744	4.8
524.943	4.8
525.142	4.93
525.34	4.98
525.539	5
525.737	4.97
525.936	5.05
526.135	5.01
526.333	5.14
526.532	5.22
526.73	5.36
526.929	5.42
527.127	5.49
527.326	5.52
527.524	5.51
527.723	5.57
527.921	5.68
528.12	5.59
528.318	5.62
528.516	5.6
528.715	5.62
528.913	5.58
529.112	5.59
529.31	5.53
529.508	5.5
529.707	5.5
529.905	5.49
530.103	5.45
530.301	5.59
530.5	5.64
530.698	5.77
530.896	5.83
531.094	5.84
531.293	5.83
531.491	5.94
531.689	6.02
531.887	6.12
532.085	6.19
532.283	6.17
532.481	6.15
532.68	6.07
532.878	5.96
533.076	5.86
533.274	5.96
533.472	5.95
533.67	5.96
533.868	5.92
534.066	5.91
534.264	5.83
534.462	5.91
534.66	5.9
534.858	5.95
535.056	5.95
535.253	6.09
535.451	6.16
535.649	6.23
535.847	6.35
536.045	6.44
536.243	6.52
536.441	6.56
536.638	6.44
536.836	6.43
537.034	6.38
537.232	6.5
537.43	6.51
537.627	6.39
537.825	6.51
538.023	6.53
538.22	6.55
538.418	6.5
538.616	6.58
538.813	6.71
539.011	6.79
539.209	6.96
539.406	7.03
539.604	7.04
539.801	7.08
539.999	7.1
540.196	6.99
540.394	6.99
540.591	7.02
540.789	7.1
540.986	7.16
541.184	7.18
541.381	7.27
541.579	7.26
541.776	7.34
541.974	7.49
542.171	7.51
542.368	7.61
542.566	7.65
542.763	7.68
542.96	7.69
543.158	7.66
543.355	7.66
543.552	7.66
543.75	7.51
543.947	7.49
544.144	7.33
544.341	7.36
544.539	7.3
544.736	7.39
544.933	7.55
545.13	7.64
545.327	7.82
545.524	7.82
545.722	7.82
545.919	7.97
546.116	8.04
546.313	8.02
546.51	8
546.707	8.15
546.904	8.07
547.101	8.11
547.298	8.21
547.495	8.09
547.692	8.27
547.889	8.2
548.086	8.38
548.283	8.36
548.48	8.69
548.677	8.79
548.874	8.76
549.07	8.83
549.267	8.92
549.464	8.72
549.661	8.94
549.858	8.91
550.055	9.09
550.251	9.12
550.448	9.26
550.645	9.09
550.842	9.09
551.038	9.05
551.235	9.15
551.432	9.05
551.628	9.26
551.825	9.23
552.022	9.24
552.218	9.38
552.415	9.31
552.612	9.34
552.808	9.31
553.005	9.24
553.201	9.51
553.398	9.59
553.594	9.66
553.791	9.62
553.987	9.59
554.184	9.5
554.38	9.53
554.577	9.66
554.773	9.95
554.97	10.17
555.166	10.4
555.362	10.37
555.559	10.37
555.755	10.32
555.952	10.38
556.148	10.66
556.344	10.96
556.541	10.94
556.737	10.94
556.933	10.77
557.129	10.91
557.326	10.81
557.522	10.94
557.718	10.99
557.914	11.14
558.11	11.44
558.307	11.35
558.503	11.43
558.699	11.54
558.895	11.82
559.091	11.83
559.287	11.73
559.483	11.88
559.679	11.88
559.876	12.31
560.072	12.5
560.268	12.49
560.464	12.71
560.66	12.81
560.856	12.82
561.052	12.85
561.247	12.96
561.443	13.05
561.639	13.05
561.835	13.29
562.031	13.21
562.227	13.15
562.423	13.15
562.619	13.06
562.815	13.06
563.01	13.04
563.206	12.97
563.402	12.99
563.598	13.12
563.793	12.98
563.989	12.92
564.185	12.86
564.381	12.96
564.576	13.06
564.772	13.2
564.968	13.56
565.163	13.95
565.359	14.03
565.555	14.21
565.75	14.36
565.946	14.77
566.141	14.72
566.337	14.92
566.532	15.13
566.728	15.3
566.923	15.46
567.119	15.28
567.314	15.21
567.51	15.43
567.705	15.35
567.901	15.42
568.096	15.46
568.292	15.65
568.487	15.59
568.682	15.42
568.878	15.37
569.073	15.24
569.268	15.59
569.464	15.79
569.659	15.89
569.854	15.8
570.05	15.79
570.245	15.68
570.44	15.72
570.635	15.94
570.831	16.11
571.026	16.23
571.221	16.49
571.416	16.38
571.611	16.26
571.806	16.15
572.002	16.27
572.197	16.29
572.392	16.48
572.587	16.55
572.782	16.5
572.977	16.56
573.172	16.66
573.367	16.54
573.562	16.63
573.757	16.71
573.952	16.87
574.147	17.12
574.342	17.25
574.537	17.47
574.732	17.5
574.927	17.59
575.121	17.69
575.316	17.81
575.511	17.94
575.706	18.04
575.901	18.1
576.096	18.25
576.29	18.34
576.485	18.4
576.68	18.28
576.875	18.47
577.069	18.61
577.264	18.55
577.459	18.44
577.654	18.43
577.848	18.52
578.043	18.73
578.238	18.58
578.432	18.58
578.627	18.75
578.821	18.88
579.016	18.82
579.21	18.7
579.405	18.76
579.6	18.97
579.794	19.17
579.989	19.17
580.183	19.22
580.378	19.37
580.572	19.39
580.766	19.14
580.961	19.35
581.155	19.53
581.35	19.42
581.544	19.53
581.738	19.64
581.933	19.6
582.127	19.64
582.321	19.48
582.516	19.51
582.71	19.59
582.904	19.9
583.099	19.55
583.293	19.39
583.487	19.56
583.681	19.65
583.875	19.7
584.07	19.6
584.264	19.4
584.458	19.39
584.652	19.46
584.846	19.62
585.04	19.59
585.234	19.86
585.428	20.31
585.623	20.23
585.817	20.08
586.011	19.99
586.205	20.28
586.399	20.38
586.593	20.5
586.787	20.51
586.981	20.14
587.174	20.21
587.368	20.08
587.562	19.77
587.756	19.77
587.95	19.91
588.144	20.17
588.338	20.14
588.532	20.61
588.725	20.83
588.919	20.85
589.113	21.11
589.307	21.15
589.501	21.1
589.694	21.06
589.888	21.41
590.082	21.55
590.275	21.39
590.469	21.27
590.663	21.13
590.856	21.12
591.05	21.1
591.244	21.2
591.437	21.24
591.631	21.64
591.824	21.83
592.018	21.99
592.212	21.94
592.405	21.98
592.599	22.15
592.792	21.92
592.986	21.58
593.179	21.93
593.372	21.9
593.566	22.03
593.759	21.86
593.953	21.99
594.146	21.81
594.339	21.77
594.533	21.78
594.726	21.83
594.92	22.14
595.113	22.48
595.306	22.16
595.499	22.41
595.693	22.11
595.886	22.19
596.079	21.96
596.272	22.15
596.466	22.28
596.659	22.36
596.852	22.36
597.045	22.3
597.238	22.11
597.431	22.12
597.624	21.97
597.818	21.98
598.011	22.05
598.204	22.32
598.397	22.07
598.59	22.19
598.783	22.15
598.976	22.12
599.169	22.13
599.362	22.23
599.555	22.25
599.748	22.26
599.941	22.66
600.134	22.73
600.326	22.51
600.519	22.61
600.712	22.59
600.905	22.59
601.098	22.8
601.291	22.73
601.483	22.84
601.676	22.79
601.869	23.18
602.062	23
602.255	23.06
602.447	23.37
602.64	23.42
602.833	23.42
603.025	23.47
603.218	23.37
603.411	23.17
603.603	23.2
603.796	23.41
603.989	23.19
604.181	23.4
604.374	23.42
604.566	23.25
604.759	23.34
604.951	23.4
605.144	23.58
605.336	23.54
605.529	23.7
605.721	23.81
605.914	23.59
606.106	23.62
606.299	23.46
606.491	23.37
606.683	23.4
606.876	23.48
607.068	23.25
607.26	23.04
607.453	23.13
607.645	22.81
607.837	22.52
608.03	22.73
608.222	22.66
608.414	22.77
608.606	22.87
608.799	23.07
608.991	23.2
609.183	23.52
609.375	23.57
609.567	23.45
609.759	23.79
609.952	23.87
610.144	23.85
610.336	23.79
610.528	23.6
610.72	23.58
610.912	23.46
611.104	23.04
611.296	23.04
611.488	22.86
611.68	23.03
611.872	23.05
612.064	23.25
612.256	23.2
612.448	23.34
612.64	23.76
612.832	23.43
613.023	23.29
613.215	23.75
613.407	23.49
613.599	23.78
613.791	23.56
613.983	23.79
614.174	23.79
614.366	23.92
614.558	24.14
614.75	23.85
614.941	24.05
615.133	24.16
615.325	23.91
615.516	24.1
615.708	24.18
615.9	24.55
616.091	24.66
616.283	24.6
616.475	24.88
616.666	24.63
616.858	24.63
617.049	24.93
617.241	25.24
617.432	25.31
617.624	25.22
617.815	25.1
618.007	25.03
618.198	24.81
618.39	25.12
618.581	25.14
618.773	25.28
618.964	25.15
619.155	25.28
619.347	25.3
619.538	25.49
619.729	25.67
619.921	25.78
620.112	25.72
620.303	25.68
620.494	25.5
620.686	25.45
620.877	25.52
621.068	25.51
621.259	25.24
621.451	25.18
621.642	24.95
621.833	24.92
622.024	24.84
622.215	24.89
622.406	24.93
622.597	24.71
622.788	24.32
622.98	24.39
623.171	24.65
623.362	24.68
623.553	24.4
623.744	24.56
623.935	24.42
624.126	24.21
624.317	24.58
624.508	24.82
624.698	24.91
624.889	25.35
625.08	25.22
625.271	25.18
625.462	25.17
625.653	25.31
625.844	25.42
626.034	25.52
626.225	25.63
626.416	25.4
626.607	25.1
626.798	24.93
626.988	24.87
627.179	24.88
627.37	25
627.56	25.03
627.751	24.93
627.942	24.88
628.132	24.86
628.323	24.93
628.514	24.79
628.704	25.1
628.895	25.56
629.085	25.54
629.276	25.56
629.466	25.4
629.657	25.44
629.847	25.62
630.038	25.44
630.228	25.42
630.419	25.29
630.609	25.33
630.8	25.25
630.99	25
631.181	25.15
631.371	25.09
631.561	25.39
631.752	25.68
631.942	25.6
632.132	25.67
632.323	25.73
632.513	26.26
632.703	26.36
632.893	26.63
633.084	26.95
633.274	26.93
633.464	27.3
633.654	27.19
633.844	27.13
634.034	27.34
634.225	27.52
634.415	27.54
634.605	27.48
634.795	27.58
634.985	27.29
635.175	27.38
635.365	27.12
635.555	26.72
635.745	26.76
635.935	26.82
636.125	26.28
636.315	26.18
636.505	26.38
636.695	26.35
636.885	26.24
637.075	26.2
637.265	25.79
637.455	26.18
637.644	26.28
637.834	26.12
638.024	25.9
638.214	26.26
638.404	26.58
638.593	26.45
638.783	26.24
638.973	26.36
639.163	26.42
639.352	26.48
639.542	26.35
639.732	26.43
639.921	26.71
640.111	26.55
640.301	26.89
640.49	26.65
640.68	26.64
640.87	26.62
641.059	26.67
641.249	26.53
641.438	26.33
641.628	26.43
641.817	26.26
642.007	26
642.196	26.4
642.386	26.15
642.575	26.57
642.764	26.22
642.954	26.17
643.143	26.41
643.333	26.39
643.522	26.7
643.711	26.67
643.901	26.71
644.09	26.47
644.279	26.22
644.469	26.05
644.658	25.74
644.847	26.36
645.036	26.82
645.226	26.61
645.415	26.72
645.604	26.45
645.793	26.78
645.982	27.03
646.171	27.63
646.361	27.6
646.55	27.78
646.739	27.53
646.928	27.41
647.117	26.98
647.306	26.8
647.495	26.87
647.684	27.47
647.873	27.16
648.062	27.14
648.251	26.87
648.44	27.46
648.629	27.54
648.818	27.72
649.007	27.84
649.196	28.16
649.384	28.48
649.573	28.57
649.762	28.19
649.951	28.31
650.14	28.33
650.328	28.18
650.517	27.23
650.706	27.28
650.895	27.3
651.083	26.93
651.272	26.79
651.461	26.83
651.65	26.85
651.838	27.02
652.027	26.94
652.216	27.03
652.404	27.5
652.593	28.43
652.781	28.52
652.97	28.81
653.158	28.8
653.347	28.85
653.535	28.28
653.724	28.42
653.912	28.61
654.101	28.39
654.289	28.45
654.478	28.04
654.666	27.75
654.855	27.33
655.043	26.88
655.231	26.55
655.42	27.01
655.608	27.81
655.796	27.48
655.985	27.21
656.173	27.5
656.361	27.42
656.55	27.19
656.738	26.77
656.926	27.19
657.114	27.38
657.302	27.97
657.491	27.79
657.679	27.55
657.867	27.92
658.055	28.27
658.243	28.26
658.431	28.31
658.619	28.65
658.807	28.99
658.996	29.04
659.184	29.47
659.372	29.52
659.56	29.71
659.748	29.55
659.936	29.68
660.124	29.32
660.311	29.24
660.499	29.65
660.687	29.69
660.875	29.57
661.063	29.35
661.251	29.25
661.439	29.36
661.627	28.74
661.814	29.11
662.002	28.96
662.19	29.21
662.378	29.11
662.565	28.65
662.753	29.09
662.941	29.23
663.129	29.73
663.316	29.29
663.504	29.23
663.692	29.65
663.879	29.65
664.067	29.46
664.254	29.13
664.442	30.01
664.63	30
664.817	30.18
665.005	30.13
665.192	29.46
665.38	29.46
665.567	29.72
665.755	29.28
665.942	29.19
666.13	28.85
666.317	29.03
666.504	28.24
666.692	28.42
666.879	27.69
667.067	27.76
667.254	28.26
667.441	28.58
667.629	27.54
667.816	28.19
668.003	28.31
668.19	28.93
668.378	28.65
668.565	28.27
668.752	28.09
668.939	28.44
669.127	28.29
669.314	28.24
669.501	28.15
669.688	29.35
669.875	28.9
670.062	29.21
670.249	28.73
670.436	29.34
670.623	29.89
670.81	30.13
670.997	29.88
671.184	30.43
671.371	30.81
671.558	30.7
671.745	30.15
671.932	30.85
672.119	30.23
672.306	30.53
672.493	30.39
672.68	30.31
672.867	29.65
673.054	29.43
673.24	29.27
673.427	28.42
673.614	28.57
673.801	28.23
673.988	27.88
674.174	27.67
674.361	27.6
674.548	27.6
674.734	27.99
674.921	28.49
675.108	28.8
675.294	28.64
675.481	29.04
675.668	29.16
675.854	29.47
676.041	29.4
676.227	29.6
676.414	29.29
676.601	28.73
676.787	28.5
676.974	28.34
677.16	28.27
677.347	28.6
677.533	28.73
677.719	28.54
677.906	27.98
678.092	27.99
678.279	28.5
678.465	28.99
678.651	29.74
678.838	30.11
679.024	29.8
679.21	30.13
679.397	29.76
679.583	29.77
679.769	29.73
679.955	30.24
680.142	30.37
680.328	30.2
680.514	30.08
680.7	30.09
680.886	29.77
681.073	30.32
681.259	30.05
681.445	30.31
681.631	30.4
681.817	30.57
682.003	30.52
682.189	30.41
682.375	30.28
682.561	30.43
682.747	30.49
682.933	30.26
683.119	29.83
683.305	30.47
683.491	30.2
683.677	29.91
683.863	29.41
684.049	29.38
684.235	29.26
684.42	29.32
684.606	29.44
684.792	29.38
684.978	29.5
685.164	29.73
685.349	29.72
685.535	29.54
685.721	29.41
685.907	29.46
686.092	29.62
686.278	29.44
686.464	29.35
686.649	29.73
686.835	29.48
687.021	29.55
687.206	29.63
687.392	29.53
687.577	29.69
687.763	29.63
687.948	30.04
688.134	30.14
688.319	30.54
688.505	30.82
688.69	30.03
688.876	30.2
689.061	30.11
689.247	30.09
689.432	29.49
689.618	29.64
689.803	30.39
689.988	30.75
690.174	30.72
690.359	30.76
690.544	30.53
690.73	30.88
690.915	30.77
691.1	30.85
691.285	30.95
691.471	30.77
691.656	30.87
691.841	30.65
692.026	30.45
692.211	30.31
692.396	30.19
692.582	30.05
692.767	30.65
692.952	30.81
693.137	30.93
693.322	30.28
693.507	31.16
693.692	30.79
693.877	30.79
694.062	30.5
694.247	30.94
694.432	31
694.617	30.7
694.802	29.54
694.987	29.5
695.172	29.99
695.357	30.68
695.541	30.31
695.726	30.27
695.911	29.88
696.096	29.42
696.281	29.26
696.466	29.25
696.65	30.12
696.835	30.63
697.02	30.15
697.204	29.72
697.389	29.63
697.574	29.32
697.759	29.71
697.943	30
698.128	30.19
698.312	30.02
698.497	30.09
698.682	29.97
698.866	29.62
699.051	30.07
699.235	30.36
699.42	30.16
699.604	29.92
699.789	29.94
699.973	29.69
700.158	30.09
700.342	30.22
700.527	30.12
700.711	30.43
700.895	31.14
701.08	30.88
701.264	30.98
701.448	31.52
701.633	32.11
701.817	32.18
702.001	32.96
702.186	32.83
702.37	32.97
702.554	33.07
702.738	32.33
702.923	31.43
703.107	31.2
703.291	30.38
703.475	29.89
703.659	30.19
703.843	30.19
704.027	29.57
704.212	29.71
704.396	29.8
704.58	29.81
704.764	30.06
704.948	30.42
705.132	30.85
705.316	31.81
705.5	32.26
705.684	32.73
705.868	31.73
706.052	31.45
706.235	31.05
706.419	30.52
706.603	30.85
706.787	31.36
706.971	31.53
707.155	31.58
707.339	31.34
707.522	30.91
707.706	30.74
707.89	31.89
708.074	32.02
708.257	32.43
708.441	33.12
708.625	32.63
708.808	31.65
708.992	31.52
709.176	31.56
709.359	30.58
709.543	30.74
709.727	30.26
709.91	29.95
710.094	29.89
710.277	29.31
710.461	28.1
710.644	28.08
710.828	28.09
711.011	28.02
711.195	27.98
711.378	28.75
711.562	28.93
711.745	28.68
711.928	28.01
712.112	28.48
712.295	28.34
712.478	29.39
712.662	30
712.845	29.87
713.028	29.99
713.212	29.45
713.395	29.48
713.578	29.35
713.761	29.06
713.945	29.49
714.128	29.29
714.311	29.79
714.494	30.17
714.677	29.63
714.86	29.83
715.043	29.53
715.227	30.38
715.41	30.77
715.593	30.77
715.776	31.56
715.959	31.52
716.142	31.44
716.325	31.76
716.508	30.78
716.691	30.85
716.874	31.36
717.057	31.32
717.239	30.72
717.422	30.13
717.605	30.31
717.788	29.61
717.971	29.94
718.154	30.1
718.337	30.88
718.519	31.61
718.702	31.42
718.885	32.49
719.068	33.86
719.25	33.47
719.433	32.67
719.616	33.3
719.798	32.85
719.981	32.86
720.164	32.45
720.346	31.73
720.529	30.97
720.712	30.74
720.894	29.7
721.077	29
721.259	29.61
721.442	29.03
721.624	28.75
721.807	29.64
721.989	30.12
722.172	30.22
722.354	29.2
722.537	29.66
722.719	29.87
722.901	29.43
723.084	29.3
723.266	29
723.448	31.75
723.631	31.32
723.813	30.86
723.995	29.99
724.178	29.94
724.36	29.94
724.542	29.77
724.724	29.85
724.907	31.05
725.089	31.3
725.271	32.1
725.453	29.69
725.635	29.02
725.817	29.29
725.999	29.97
726.181	30.95
726.364	32.18
726.546	33.24
726.728	33.28
726.91	32.82
727.092	32.14
727.274	31.83
727.456	32.5
727.638	33.63
727.819	33.71
728.001	33.01
728.183	32.86
728.365	32.8
728.547	31.51
728.729	31.28
728.911	31.28
729.093	31.66
729.274	31.87
729.456	32.42
729.638	31.22
729.82	31
730.001	32.05
730.183	30.79
730.365	30.03
730.546	29.59
730.728	29.5
730.91	29.05
731.091	28.57
731.273	27.61
731.455	27.89
731.636	28.54
731.818	28.89
731.999	28.13
732.181	29.31
732.362	29.57
732.544	30.6
732.725	30.71
732.907	31.42
733.088	31.51
733.27	33.15
733.451	33.31
733.633	33.46
733.814	33.63
733.995	33.5
734.177	33.64
734.358	33.64
734.539	33.86
734.721	33.95
734.902	33.17
735.083	33.52
735.264	32.53
735.446	31.49
735.627	31.12
735.808	31.21
735.989	32.63
736.17	32.26
736.351	31.66
736.533	31.83
736.714	31.59
736.895	32.15
737.076	31.43
737.257	30.51
737.438	31.56
737.619	32.03
737.8	31.94
737.981	31.96
738.162	31.42
738.343	31.33
738.524	30.57
738.705	31.81
738.886	30.54
739.067	30.97
739.247	30.36
739.428	30.05
739.609	28.83
739.79	29.12
739.971	28.75
740.151	28.63
740.332	29.59
740.513	30.35
740.694	28.9
740.874	30.23
741.055	30.53
741.236	31.87
741.417	31.46
741.597	33.11
741.778	33.13
741.958	31.64
742.139	30.75
742.32	27.89
742.5	27.73
742.681	28.56
742.861	29.36
743.042	29.48
743.222	29.43
743.403	30.34
743.583	28.94
743.764	27.72
743.944	29.38
744.124	31.14
744.305	33.57
744.485	32.77
744.666	31.87
744.846	30.82
745.026	30.49
745.207	30.86
745.387	32.16
745.567	32.07
745.747	33.76
745.928	33.37
746.108	32.86
746.288	33.12
746.468	33.82
746.648	33.59
746.829	31.63
747.009	30.62
747.189	29.86
747.369	28.06
747.549	28.35
747.729	28.6
747.909	28.37
748.089	28.39
748.269	28.5
748.449	28.21
748.629	28.69
748.809	30.28
748.989	31.2
749.169	30.51
749.349	30.28
749.529	31.23
749.709	30.87
749.889	29.99
750.068	29.58
750.248	30.37
750.428	31.99
750.608	32.5
750.788	32.7
750.967	33.6
751.147	34.58
751.327	35.64
751.507	34.82
751.686	34.11
751.866	33.65
752.046	34.55
752.225	33.97
752.405	31.97
752.585	33.37
752.764	32.73
752.944	32.05
753.123	31.52
753.303	29.96
753.482	30.41
753.662	30.34
753.841	30.92
754.021	30.37
754.2	29.5
754.38	28.37
754.559	27.55
754.739	26.65
754.918	27.8
755.097	28.24
755.277	28.1
755.456	27.21
755.635	26.74
755.815	27.76
755.994	28.95
756.173	27.77
756.352	28.48
756.532	26.29
756.711	27.6
756.89	26.88
757.069	26.39
757.248	26.07
757.427	28.07
757.607	30.61
757.786	29.28
757.965	28.04
758.144	30.42
758.323	30.88
758.502	32.26
758.681	31.6
758.86	31.32
759.039	31.21
759.218	31.97
759.397	30.71
759.576	28.56
759.755	29.03
759.934	29.59
760.113	30.55
760.291	30.88
760.47	31.36
760.649	31.69
760.828	32.1
761.007	32.46
761.186	33.44
761.364	33.15
761.543	32.8
761.722	33.15
761.901	32.94
762.079	30.4
762.258	30.35
762.437	29.79
762.615	30.3
762.794	31.11
762.972	31.49
763.151	30.63
763.33	31.05
763.508	31.13
763.687	30.3
763.865	29.98
764.044	29.97
764.222	30.4
764.401	30.24
764.579	30.24
764.758	30.46
764.936	30.8
765.114	31.75
765.293	31.52
765.471	31.87
765.65	32.48
765.828	33.7
766.006	34.59
766.184	34.03
766.363	33.64
766.541	32.34
766.719	31.06
766.898	29.29
767.076	26.41
767.254	25.9
767.432	26.87
767.61	26.53
767.788	25.22
767.967	26.01
768.145	25.66
768.323	26.39
768.501	27.93
768.679	27.07
768.857	29.23
769.035	31.55
769.213	32.07
769.391	31.07
769.569	31.66
769.747	29.85
769.925	27.82
770.103	29.03
770.281	30.29
770.459	29.9
770.636	31.48
770.814	30.09
770.992	31.58
771.17	31.21
771.348	30.64
771.525	31.22
771.703	33.19
771.881	35.79
772.059	34.83
772.236	33.95
772.414	34.41
772.592	32.55
772.769	33.14
772.947	29.85
773.125	29.62
773.302	31.68
773.48	31.54
773.657	29.11
773.835	29.29
774.013	31.9
774.19	31.48
774.368	30.18
774.545	28.85
774.723	30.72
774.9	31.39
775.077	31.82
775.255	31.8
775.432	30.52
775.61	32.79
775.787	30.76
775.964	28.59
776.142	27.22
776.319	27.51
776.496	27.9
776.674	26.3
776.851	27.39
777.028	28.62
777.205	27.8
777.382	28.5
777.56	29.17
777.737	30.73
777.914	29.85
778.091	30.04
778.268	32.04
778.445	33.64
778.622	34.12
778.8	34.81
778.977	33.07
779.154	29.02
779.331	30.18
779.508	30.28
779.685	28.24
779.862	29.73
780.038	30.42
780.215	29.35
780.392	28.52
780.569	26.67
780.746	23.05
780.923	25.27
781.1	25.82
781.277	24.78
781.453	23.03
781.63	25.07
781.807	25.75
781.984	23.74
782.16	21.97
782.337	21.66
782.514	22.97
782.691	23.1
782.867	22.85
783.044	24.66
783.221	23.23
783.397	23.6
783.574	21.71
783.75	19.22
783.927	23.83
784.103	27.71
784.28	29.24
784.456	27.66
784.633	28.6
784.809	25.9
784.986	27.81
785.162	25.27
785.339	27.26
785.515	27.14
785.692	27.11
785.868	24.55
786.044	22.87
786.221	22.57
786.397	26.6
786.573	27.49
786.749	26.8
786.926	26.76
787.102	29.55
787.278	29.5
787.454	31.13
787.631	34.91
787.807	34.15
787.983	35.57
788.159	35.4
788.335	33.29
788.511	32.08
788.687	30.86
788.863	29.74
789.039	29.88
789.216	29.6
789.392	27.91
789.568	27.25
789.744	28.85
789.919	26.45
790.095	24.6
790.271	25.58
790.447	27.32
790.623	29.8
790.799	31.46
790.975	32.84
791.151	34.06
791.327	35.43
791.502	33.81
791.678	35.51
791.854	33.22
792.03	36.22
792.205	37.51
792.381	35.26
792.557	35.98
792.733	33.59
792.908	33.47
793.084	33.73
793.259	33.52
793.435	31
793.611	31.91
793.786	31.28
793.962	29.45
794.137	26.09
794.313	31.85
794.488	30.11
794.664	30.12
794.839	30.8
795.015	29.76
795.19	31.92
795.366	33.29
795.541	28.24
795.716	32.97
795.892	35.35
796.067	33.85
796.242	32.83
796.418	33.06
796.593	33.85
796.768	30.63
796.944	30.12
797.119	26.64
797.294	27.58
797.469	28.39
797.644	27.02
797.82	25.06
797.995	26.52
798.17	26
798.345	24.95
798.52	24.65
798.695	27.9
798.87	27.32
799.045	28.36
799.22	29.58
799.395	31.73
799.57	33.04
799.745	32.15
799.92	35.4
800.095	32.62
800.27	33.84
800.445	37.32
800.62	37.04
800.795	37.14
800.97	37.33
801.145	37.28
801.319	33.93
801.494	30.38
801.669	31.39
801.844	26.08
802.018	27.99
802.193	28.34
802.368	27.66
802.543	25.9
802.717	27.93
802.892	31.99
803.067	29.27
803.241	29.83
803.416	34.71
803.59	37.33
803.765	37.62
803.94	39.72
804.114	38.57
804.289	38.43
804.463	36.39
804.638	33.74
804.812	28.38
804.986	32.43
805.161	35.42
805.335	36.21
805.51	31.96
805.684	30.61
805.858	28.75
806.033	29.68
806.207	29.42
806.381	30.92
806.556	31.71
806.73	31.8
806.904	29.37
807.078	26.73
807.253	18.38
807.427	20.91
807.601	20.9
807.775	19.21
807.949	18.09
808.123	18.22
808.298	19.49
808.472	18.89
808.646	18.42
808.82	12.04
808.994	16.6
809.168	18.76
809.342	16.65
809.516	19.46
809.69	21.18
809.864	22.83
810.038	20.57
810.212	21.41
810.385	21.4
810.559	22.77
810.733	23.51
810.907	24.38
811.081	27.37
811.255	31.67
811.428	33.73
811.602	32.48
811.776	26.89
811.95	22.9
812.123	19.72
812.297	18.79
812.471	18.72
812.644	27.44
812.818	19.98
812.992	14.38
813.165	10.34
813.339	7.71
813.512	7.85
813.686	8.71
813.86	16.15
814.033	21.66
814.207	20.89
814.38	22.66
814.554	22.6
814.727	26.21
814.9	23.51
815.074	27.73
815.247	30.61
815.421	26.37
815.594	33.55
815.767	29.9
815.941	33.1
816.114	33.77
816.287	29.75
816.46	25.16
816.634	19.84
816.807	26.1
816.98	21.59
817.153	18.28
817.327	25.31
817.5	28.07
817.673	26.22
817.846	20.63
818.019	23.36
818.192	27.4
818.365	30.17
818.538	31.8
818.711	35.61
818.884	38.17
819.057	35.01
819.23	38.32
819.403	34.46
819.576	37.05
819.749	39.73
819.922	36.22
820.095	33.98
820.268	29.96
820.441	30.69
820.614	28.98
820.786	30.08
820.959	32.69
821.132	31.15
821.305	32.83
821.477	32.19
821.65	32.15
821.823	33.75
821.996	33.38
822.168	34.44
822.341	34.43
822.514	33.36
822.686	33.29
822.859	33.27
823.031	32.45
823.204	32.15
823.376	32.66
823.549	33.17
823.722	32.42
823.894	33.02
824.067	33.22
824.239	34.43
824.411	34.75
824.584	35.41
824.756	35.74
824.929	36.72
825.101	37.13
825.273	36.72
825.446	36.62
825.618	38.11
825.79	37.55
825.963	37.11
826.135	35.68
826.307	37.61
826.479	37.65
826.652	37.31
826.824	37.08
826.996	37.49
827.168	36.98
827.34	34.92
827.512	34.29
827.684	34.56
827.856	33.39
828.029	32.68
828.201	30.29
828.373	31.34
828.545	31.88
828.717	29.7
828.889	30.55
829.061	30.21
829.232	32.48
829.404	30.82
829.576	31.69
829.748	32.65
829.92	33.07
830.092	34.85
830.264	31.13
830.436	27.59
830.607	31.52
830.779	26.9
830.951	28.72
831.123	26.77
831.294	25.32
831.466	21.54
831.638	18.92
831.809	22.47
831.981	25.07
832.153	25.93
832.324	32.6
832.496	33.53
832.667	32.65
832.839	32.87
833.011	33.29
833.182	34.48
833.354	35.82
833.525	40.84
833.697	35.9
833.868	33.55
834.039	32.77
834.211	31.6
834.382	29.55
834.554	30.69
834.725	27.76
834.896	27.74
835.068	28.55
835.239	29.2
835.41	23.88
835.581	24.1
835.753	23.28
835.924	23.05
836.095	22.92
836.266	18.68
836.438	19.73
836.609	22.3
836.78	23.41
836.951	21.78
837.122	18.07
837.293	23.9
837.464	26.34
837.635	25.82
837.806	28.72
837.977	30.31
838.148	35.51
838.319	34.88
838.49	41.29
838.661	41.87
838.832	48.18
839.003	48.19
839.174	51.78
839.345	50.54
839.516	49.39
839.687	41.01
839.857	38.61
840.028	42.52
840.199	42.18
840.37	28.59
840.54	26.4
840.711	19.78
840.882	27.31
841.053	20.02
841.223	9.23
841.394	11.01
841.564	13.78
841.735	19.06
841.906	14
842.076	17.69
842.247	21.24
842.417	18.08
842.588	17.31
842.758	11.93
842.929	13.07
843.099	17.01
843.27	17.22
843.44	17.49
843.611	8.57
843.781	13.35
843.951	11.9
844.122	11.69
844.292	10.29
844.462	22.07
844.633	28.98
844.803	18.09
844.973	3.35
845.144	-13.93
845.314	15.36
845.484	25.97
845.654	36.39
845.824	14.58
845.995	7.6
846.165	26.35
846.335	-0.97
846.505	-90.68
846.675	-23.25
846.845	-37.88
847.015	-21.62
847.185	-57.82
847.355	-80.62
847.525	-92.61
847.695	-33.45
847.865	-51.43
848.035	-74.28
848.205	-34.14
848.375	33.38
848.545	54.68
848.715	55.22
848.884	58.07
849.054	72.04
849.224	113.35
849.394	104.29
849.564	24.02
849.733	36.54
849.903	4.46
850.073	-29.21
850.243	-92.17
850.412	-68.77
850.582	-55.99
850.752	-10.85
850.921	-70.49
851.091	-57.78
851.26	-29.04
851.43	-29.07
851.599	-31.07
851.769	12.46
851.939	27.87
852.108	22.38
852.278	29.35
852.447	11.31
852.616	-74.13
852.786	33.29
852.955	48.94
853.125	65.47
853.294	71.77
853.463	64.26
853.633	45.42
853.802	32.22
853.971	46.6
854.141	48.41
854.31	47.96
854.479	40.2
854.648	22.39
854.818	35.86
854.987	32.61
855.156	22.55
855.325	35.91
855.494	27.97
855.663	24.75
855.832	8.2
856.001	-28.46
856.171	-69.68
856.34	-104.96
856.509	-62.22
856.678	-83.1
856.847	-48.63
857.016	-14.87
857.185	-45.93
857.353	-31.33
857.522	1.05
857.691	23.67
857.86	27.07
858.029	58.28
858.198	76.48
858.367	83.17
858.535	102.07
858.704	105.05
858.873	66.95
859.042	65.4
859.21	33.8
859.379	10.96
859.548	-19.16
859.717	-35.65
859.885	-18.33
860.054	-90.55
860.222	-10.48
860.391	50.21
860.56	31.25
860.728	17.93
860.897	65.86
861.065	45.81
861.234	61.1
861.402	27.25
861.571	50.06
861.739	50.98
861.908	15.31
862.076	21.63
862.244	11.21
862.413	19.34
862.581	35.63
862.749	-16.57
862.918	-15.52
863.086	-9.3
863.254	25.98
863.423	-9.1
863.591	-18.13
863.759	-2.93
863.927	-23.06
864.096	-52.7
864.264	-70.11
864.432	-72.37
864.6	-12.58
864.768	2.1
864.936	-24.6
865.104	-37.79
865.272	-39.17
865.44	13.47
865.608	-6.39
865.776	-7.82
865.944	13.6
866.112	9.23
866.28	28.26
866.448	8.77
866.616	-3.81
866.784	26.09
866.952	33.16
867.12	17.07
867.288	-75.57
867.455	-660.2
867.623	-217.23
867.791	643.81
867.959	663.57
868.127	211.47
868.294	119.3
868.462	73.38
868.63	133.62
868.797	556.77
868.965	2532.2
869.133	-152.82
869.3	179.04
869.468	388.99
869.636	45.95
869.803	-367.25
869.971	-95.76
870.138	25.69
870.306	-11.76
870.473	-16.42
870.641	-2.78
870.808	-22.4
870.975	-31.34
871.143	-117.69
871.31	-53.09
871.478	-9.32
871.645	14.43
871.812	11.25
871.98	31.88
872.147	30.09
872.314	10.77
872.482	12.96
872.649	25.73
872.816	44.71
872.983	63.53
873.15	58.4
873.318	53.57
873.485	53.49
873.652	31.55
873.819	5.66
873.986	14.48
874.153	30.65
874.32	25.17
874.487	11.43
874.654	5.31
874.821	-40.96
874.988	-43.41
875.155	-1.67
875.322	15.08
875.489	42.13
875.656	32.01
875.823	24.65
875.99	42.32
876.157	43.57
876.324	34.33
876.49	54.04
876.657	49.98
876.824	39.33
876.991	28.33
877.157	23.56
877.324	8.67
877.491	18.61
877.658	18.51
877.824	17.8
877.991	14.86
878.157	24.37
878.324	13.84
878.491	39.95
878.657	42.66
878.824	70.52
878.99	50.98
879.157	64.33
879.323	48.3
879.49	29.55
879.656	47.34
879.823	69.62
879.989	62.34
880.156	48.43
880.322	31.67
880.488	34.85
880.655	35.97
880.821	42.46
880.987	42.95
881.154	50.03
881.32	70.22
881.486	46.9
881.652	38.17
881.819	29.9
881.985	30
882.151	34.06
882.317	33.17
882.483	31.53
882.649	32.98
882.816	33.41
882.982	27.98
883.148	20.71
883.314	21.9
883.48	23.96
883.646	27.16
883.812	27.2
883.978	24.98
884.144	27.35
884.31	23.66
884.476	23.57
884.642	18.87
884.807	21.11
884.973	22.59
885.139	21.61
885.305	20.36
885.471	18.74
885.637	14.47
885.802	12.56
885.968	12.91
886.134	19.76
886.3	18.02
886.465	27.01
886.631	29.77
886.797	24.11
886.962	27.88
887.128	35.08
887.293	27.14
887.459	33.91
887.625	35.13
887.79	18.63
887.956	-1
888.121	-5.67
888.287	-25.82
888.452	-31.79
888.618	-12.05
888.783	-14.26
