Data from 2937862_Reflection_2.txt Node
Date: Wed Jul 15 15:22:20 EDT 2015
User: robert
Spectrometer: USB4E03001
Autoset integration time: false
Trigger mode: 4
Integration Time (sec): 1.000000E-1
Scans to average: 10
Electric dark correction enabled: true
Nonlinearity correction enabled: false
Boxcar width: 5
Stray light correction enabled: false
XAxis mode: Wavelengths
Stop averaging: false
Number of Pixels in Spectrum: 3648
>>>>>Begin Spectral Data<<<<<
177.566	34.49
177.785	17.12
178.005	903.88
178.225	-555.25
178.445	305.16
178.665	133
178.885	96.72
179.105	27.7
179.324	49.69
179.544	88.17
179.764	56.58
179.984	48.65
180.204	24.63
180.423	-67.61
180.643	-95.4
180.863	-367.76
181.083	-123.02
181.302	-83.81
181.522	12.89
181.742	-84.53
181.961	-114.08
182.181	-98.62
182.401	-67.17
182.621	-46.69
182.84	-44.52
183.06	-33.85
183.279	15.87
183.499	11.52
183.719	47.98
183.938	33.25
184.158	51.22
184.377	31
184.597	50.48
184.816	49.58
185.036	77.79
185.256	81.55
185.475	68.26
185.695	43.49
185.914	52.21
186.134	18.66
186.353	15.34
186.572	31.21
186.792	-2.65
187.011	312.84
187.231	1270.21
187.45	-155.18
187.67	-25.31
187.889	-9.94
188.108	-36.14
188.328	-97.64
188.547	-36.48
188.766	-3.32
188.986	-9.44
189.205	6.53
189.424	22.72
189.644	37.5
189.863	24.05
190.082	-3.49
190.302	-47.69
190.521	-33.87
190.74	-32.62
190.959	-14.12
191.178	-25.36
191.398	-35.24
191.617	-63.38
191.836	-73.07
192.055	-206.34
192.274	-69.29
192.494	-1555.81
192.713	-113.89
192.932	-198.2
193.151	-90.67
193.37	170.37
193.589	143.47
193.808	15.69
194.027	124.27
194.246	90.61
194.465	88.31
194.685	20.09
194.904	-24.77
195.123	-112.22
195.342	-110.01
195.561	-1077.6
195.78	-248.9
195.999	-202.51
196.218	-506.56
196.436	-2094.3
196.655	-278.17
196.874	-456.01
197.093	-247.76
197.312	-26.52
197.531	68.14
197.75	89.42
197.969	118.63
198.188	85.62
198.407	104.58
198.625	127.48
198.844	97.02
199.063	68.56
199.282	7260
199.501	205.22
199.719	56.9
199.938	-190.52
200.157	-463.42
200.376	-247.9
200.594	-185.61
200.813	-284.16
201.032	-197.81
201.251	-191.75
201.469	-84.99
201.688	-61.92
201.907	-91.71
202.125	-100.17
202.344	-35.05
202.563	-18.02
202.781	13.96
203	23.38
203.218	49.08
203.437	47
203.656	49.2
203.874	58.87
204.093	80.95
204.311	82.89
204.53	82.09
204.748	56.28
204.967	65.98
205.185	26.25
205.404	-28.39
205.622	-93.27
205.841	17.8
206.059	7.77
206.278	-106.5
206.496	135.25
206.715	462.11
206.933	195.87
207.151	315.12
207.37	586.94
207.588	337.31
207.806	-778.23
208.025	26021.05
208.243	957.77
208.461	-212
208.68	-154.76
208.898	-104.02
209.116	-96.94
209.335	16.94
209.553	50.86
209.771	31.55
209.989	56.51
210.208	90.29
210.426	55.27
210.644	73.66
210.862	32.9
211.081	27.17
211.299	45.81
211.517	44.62
211.735	2.58
211.953	19.43
212.171	25.86
212.39	-134.52
212.608	-165.46
212.826	-179.58
213.044	-121.1
213.262	-285.13
213.48	-198.61
213.698	-997.99
213.916	-492.87
214.134	-225.2
214.352	-337.32
214.57	-200.1
214.788	-30.92
215.006	-17.41
215.224	-99.63
215.442	-158.62
215.66	-87.47
215.878	-105.74
216.096	-133
216.314	-143.96
216.532	-84.27
216.75	-91.73
216.968	-104.04
217.185	-64.28
217.403	-82.14
217.621	-5.66
217.839	5.36
218.057	3.85
218.275	-21.41
218.492	-3.05
218.71	0.79
218.928	4.85
219.146	-4.84
219.363	7.04
219.581	-14.6
219.799	-10.49
220.017	-89
220.234	-110.03
220.452	-64.89
220.67	-53.2
220.887	-59.27
221.105	-73.21
221.323	-83.25
221.54	-72.44
221.758	-114.24
221.976	-143.72
222.193	-87.8
222.411	-54.17
222.629	-40.19
222.846	-48.07
223.064	-43.33
223.281	-38.89
223.499	-23.95
223.716	-25.93
223.934	-33.72
224.151	-69.63
224.369	-77.58
224.586	-88.61
224.804	-187.03
225.021	-131.78
225.239	-139.99
225.456	-61.13
225.674	-48.35
225.891	-12.21
226.108	7.73
226.326	7.95
226.543	22.5
226.76	22.41
226.978	10.6
227.195	3.14
227.413	2.41
227.63	6.51
227.847	7.11
228.064	11
228.282	3.07
228.499	-2
228.716	5.14
228.934	8.74
229.151	11
229.368	15.4
229.585	18.53
229.802	18.05
230.02	19.04
230.237	19.89
230.454	19.29
230.671	21.69
230.888	24.66
231.105	20.84
231.323	21.22
231.54	18.69
231.757	17.03
231.974	14.29
232.191	12.84
232.408	11.86
232.625	3.53
232.842	-0.09
233.059	4.97
233.276	5.29
233.493	-1.77
233.71	-3.76
233.927	1.55
234.144	1.98
234.361	5.94
234.578	9.45
234.795	7.39
235.012	16.88
235.229	20.43
235.446	22.78
235.663	23.4
235.879	24.9
236.096	16.28
236.313	13.28
236.53	6.26
236.747	4.09
236.964	-2.33
237.181	3.43
237.397	-0.84
237.614	-10.23
237.831	-13.32
238.048	-8.56
238.264	1.1
238.481	7.66
238.698	7.72
238.915	7.76
239.131	13.09
239.348	14.64
239.565	16.26
239.781	18.26
239.998	19.4
240.215	19.74
240.431	15.33
240.648	14.22
240.865	16.46
241.081	19.83
241.298	21.67
241.514	18.99
241.731	18.6
241.947	16.79
242.164	14.72
242.38	15.32
242.597	14.86
242.814	15.73
243.03	16.52
243.246	15.06
243.463	12.15
243.679	13.28
243.896	14.73
244.112	13.26
244.329	11.87
244.545	12.29
244.762	11.88
244.978	11.35
245.194	9.5
245.411	6.81
245.627	7.86
245.843	9.31
246.06	8.46
246.276	7.47
246.492	11.03
246.709	12.13
246.925	12.14
247.141	12.95
247.357	12.9
247.574	13.04
247.79	13.92
248.006	14.12
248.222	13.39
248.439	13.32
248.655	13.7
248.871	13.06
249.087	12.76
249.303	12.88
249.519	11.53
249.736	12.04
249.952	11.74
250.168	10.31
250.384	9.73
250.6	9.96
250.816	11.92
251.032	8.01
251.248	7.53
251.464	6.48
251.68	6.07
251.896	6.29
252.112	6.31
252.328	6.16
252.544	6.58
252.76	5.42
252.976	5.91
253.192	2.29
253.408	5.1
253.624	2.62
253.84	2.76
254.056	3.08
254.272	1.31
254.487	1.29
254.703	2.97
254.919	0.88
255.135	3.36
255.351	5.01
255.567	8.93
255.782	7.79
255.998	11.89
256.214	14.4
256.43	11.13
256.646	12.35
256.861	11.7
257.077	10.69
257.293	10.82
257.508	10.9
257.724	7.5
257.94	9.19
258.155	9.39
258.371	9.37
258.587	7.36
258.802	9.38
259.018	10.28
259.234	8.32
259.449	8.46
259.665	9.81
259.88	8.95
260.096	10.51
260.312	9.66
260.527	10.31
260.743	9.66
260.958	10.14
261.174	9.92
261.389	9.67
261.605	9.75
261.82	9.85
262.036	8.85
262.251	9.29
262.466	8.19
262.682	6.9
262.897	6.44
263.113	4.86
263.328	4.34
263.543	4.02
263.759	2.71
263.974	5
264.189	7.83
264.405	7.16
264.62	7.66
264.835	8.8
265.051	9.23
265.266	9.54
265.481	11.33
265.696	11.13
265.912	10.18
266.127	11
266.342	12.01
266.557	9.7
266.773	10.48
266.988	10.12
267.203	9.6
267.418	11.93
267.633	11.65
267.848	11.54
268.064	12.14
268.279	14.7
268.494	15.19
268.709	14.37
268.924	15.28
269.139	14.04
269.354	13.27
269.569	14.16
269.784	12.11
269.999	11.43
270.214	11.68
270.429	10.87
270.644	8.68
270.859	8.39
271.074	9.66
271.289	8.31
271.504	8.94
271.719	8.73
271.934	8.54
272.149	9.62
272.363	8.32
272.578	7.72
272.793	6.72
273.008	7.35
273.223	7.62
273.438	6.68
273.653	7.15
273.867	6.73
274.082	6.53
274.297	6.69
274.512	5.95
274.726	8.14
274.941	8.41
275.156	9.79
275.371	9.02
275.585	7.41
275.8	6.81
276.015	4.77
276.229	5.61
276.444	6.89
276.659	6.3
276.873	6.51
277.088	6.52
277.302	7.91
277.517	7.78
277.732	8.2
277.946	10.8
278.161	12.18
278.375	14.52
278.59	12.52
278.804	12.19
279.019	12.95
279.233	12.42
279.448	11.44
279.662	9.74
279.877	10.62
280.091	11.3
280.306	8.73
280.52	8.9
280.735	8.96
280.949	9.62
281.163	10.38
281.378	11.32
281.592	11
281.806	10.7
282.021	12.19
282.235	12.22
282.449	12.03
282.664	13.18
282.878	12.98
283.092	13.06
283.307	14.94
283.521	14.15
283.735	12.91
283.949	13.22
284.164	14.03
284.378	12.57
284.592	12.73
284.806	12.01
285.02	11.34
285.234	11.46
285.449	11.82
285.663	11.64
285.877	11.15
286.091	10.86
286.305	10.18
286.519	9.97
286.733	10.81
286.947	9.59
287.161	9.68
287.375	10.88
287.589	10.86
287.803	9.01
288.017	7.66
288.231	8.44
288.445	8.04
288.659	9.01
288.873	9.66
289.087	8.51
289.301	10.57
289.515	10.77
289.729	9.71
289.943	9.31
290.157	8.74
290.371	8.66
290.584	8.69
290.798	7.98
291.012	6.98
291.226	7.24
291.44	5.99
291.654	5.38
291.867	5.83
292.081	6.83
292.295	6.56
292.509	8.36
292.722	11.37
292.936	11.61
293.15	11.91
293.364	13
293.577	11.16
293.791	13.12
294.005	14.01
294.218	14.71
294.432	13.28
294.645	14.22
294.859	14.56
295.073	10.77
295.286	11.23
295.5	12.24
295.713	11.19
295.927	11.77
296.14	11.52
296.354	10.65
296.568	9.34
296.781	9.67
296.994	8.54
297.208	7.94
297.421	8.99
297.635	8.35
297.848	7.25
298.062	8.29
298.275	7.13
298.489	7.94
298.702	6.93
298.915	6.52
299.129	6.58
299.342	6.12
299.555	5.67
299.769	6.88
299.982	7.85
300.195	9.09
300.409	9.92
300.622	12.36
300.835	11.12
301.048	11.85
301.262	13.57
301.475	12.67
301.688	13.73
301.901	13.85
302.115	13.4
302.328	12.93
302.541	12.32
302.754	11.23
302.967	11.36
303.18	10.85
303.393	10.68
303.607	9.12
303.82	10.55
304.033	9.47
304.246	10.05
304.459	7.53
304.672	8.32
304.885	9.01
305.098	8.54
305.311	7.55
305.524	8.97
305.737	9.32
305.95	10.01
306.163	9.17
306.376	9.49
306.589	7.52
306.802	9.61
307.015	10.01
307.228	9.77
307.44	9.83
307.653	9.92
307.866	7.47
308.079	8.06
308.292	7.32
308.505	8.84
308.718	9.62
308.93	11.74
309.143	12.46
309.356	11.67
309.569	11.02
309.781	10.26
309.994	9.87
310.207	10.71
310.42	9.21
310.632	9.93
310.845	9.75
311.058	9.64
311.27	9.2
311.483	8.85
311.696	6.81
311.908	6.55
312.121	6.68
312.333	7.02
312.546	7.5
312.759	8.67
312.971	7.85
313.184	8.41
313.396	7.81
313.609	8.24
313.821	9
314.034	10.65
314.246	12.22
314.459	12.76
314.671	11.1
314.884	10.8
315.096	11.19
315.309	12.09
315.521	10.72
315.733	10.96
315.946	9.46
316.158	7.57
316.371	8.5
316.583	8.51
316.795	8.8
317.008	11.18
317.22	11.09
317.432	10.4
317.644	8.86
317.857	7.23
318.069	7.46
318.281	8.5
318.494	9.62
318.706	8.11
318.918	6.25
319.13	6.42
319.342	4.08
319.555	3.41
319.767	3.66
319.979	5.63
320.191	7.66
320.403	6.7
320.615	7.36
320.827	6.34
321.039	7.85
321.252	7.4
321.464	7.62
321.676	9.54
321.888	11.17
322.1	10.8
322.312	9.78
322.524	9.33
322.736	9.58
322.948	9.46
323.16	10.66
323.372	8
323.584	7.87
323.796	5.78
324.007	5.84
324.219	4.64
324.431	6.19
324.643	6.72
324.855	6.39
325.067	6.21
325.279	5.06
325.491	3.84
325.702	5.67
325.914	7.06
326.126	9.52
326.338	7.63
326.55	6.93
326.761	5.41
326.973	5.28
327.185	6.92
327.396	6.63
327.608	7.05
327.82	6.69
328.032	5.88
328.243	5.71
328.455	5.45
328.666	7.4
328.878	8.98
329.09	9.26
329.301	9.67
329.513	8.21
329.725	8.26
329.936	6.72
330.148	8.6
330.359	9.52
330.571	9.32
330.782	7.94
330.994	7.25
331.205	7.02
331.417	6.72
331.628	6.56
331.84	6.71
332.051	8.43
332.262	10.57
332.474	9.57
332.685	9.21
332.897	10.6
333.108	11.95
333.319	10.09
333.531	10.13
333.742	9.19
333.953	8.71
334.165	9.22
334.376	8.95
334.587	8.79
334.799	8.53
335.01	8.4
335.221	6.35
335.432	5.06
335.644	7.32
335.855	7.41
336.066	8.86
336.277	8.43
336.488	8.32
336.7	6.91
336.911	6.61
337.122	6.72
337.333	6.88
337.544	6.19
337.755	7.48
337.966	7.77
338.177	7.71
338.388	6.94
338.599	7.55
338.811	7.06
339.022	7.82
339.233	8.48
339.444	7.23
339.655	6.26
339.866	7.54
340.076	7.03
340.287	6.13
340.498	6.21
340.709	7.41
340.92	7.67
341.131	7.92
341.342	8.41
341.553	6.32
341.764	7.91
341.975	8.24
342.185	8.37
342.396	8.03
342.607	9.93
342.818	11.12
343.029	9.54
343.239	7.58
343.45	7.57
343.661	6.86
343.872	8.62
344.082	8.49
344.293	8.65
344.504	7.64
344.714	6.65
344.925	4.68
345.136	3.68
345.346	4.24
345.557	4.99
345.768	3.52
345.978	4.44
346.189	4.4
346.399	3.86
346.61	3.33
346.821	3.36
347.031	4.7
347.242	4.35
347.452	2.39
347.663	3.83
347.873	4.56
348.084	5.08
348.294	5.06
348.504	5.19
348.715	4.96
348.925	7.45
349.136	8.03
349.346	8.17
349.557	8.26
349.767	8.93
349.977	7.47
350.188	7.07
350.398	7.99
350.608	6.69
350.819	6.82
351.029	5.93
351.239	4.31
351.449	4.08
351.66	3.24
351.87	4.22
352.08	3.2
352.29	3.39
352.501	4.5
352.711	5.27
352.921	5.7
353.131	5.09
353.341	6.17
353.552	7.03
353.762	7.96
353.972	8.32
354.182	8.49
354.392	10.2
354.602	10.33
354.812	10.3
355.022	9.28
355.232	9.3
355.442	9.53
355.652	9.87
355.862	10
356.072	10.13
356.282	10.84
356.492	10.13
356.702	9.44
356.912	10.07
357.122	9.52
357.332	9.47
357.542	10.18
357.752	9.95
357.962	10.44
358.171	10.23
358.381	9.51
358.591	9.39
358.801	9.72
359.011	9.92
359.221	9.34
359.43	9.88
359.64	11.08
359.85	10.52
360.06	10.43
360.269	10.3
360.479	10.02
360.689	9.64
360.899	9.35
361.108	8.99
361.318	9.19
361.528	8.74
361.737	8.96
361.947	8.08
362.156	8.54
362.366	7.98
362.576	7.34
362.785	6.95
362.995	7.47
363.204	6.57
363.414	5.98
363.623	6.05
363.833	6.39
364.042	5.66
364.252	5.13
364.461	4.57
364.671	5.23
364.88	5.94
365.09	6.01
365.299	5.75
365.509	6.6
365.718	7.36
365.927	7.09
366.137	6.99
366.346	7.06
366.555	7.42
366.765	7.45
366.974	7.89
367.183	6.73
367.393	6.68
367.602	6.63
367.811	6.23
368.021	5.68
368.23	5.54
368.439	5.73
368.648	5.54
368.857	5.26
369.067	4.45
369.276	3.98
369.485	4.93
369.694	4.58
369.903	4.91
370.112	5.69
370.321	5.78
370.531	5.18
370.74	4.15
370.949	3.8
371.158	3.5
371.367	4.05
371.576	4.57
371.785	3.69
371.994	4.32
372.203	4.49
372.412	4.46
372.621	4.72
372.83	5.01
373.039	5.63
373.248	5.94
373.457	6.43
373.666	6.37
373.874	5.63
374.083	6.57
374.292	6.89
374.501	5.93
374.71	5.48
374.919	4.95
375.128	4.63
375.336	4.67
375.545	4.91
375.754	4.68
375.963	5.46
376.171	6.07
376.38	5.91
376.589	5.28
376.798	5.54
377.006	5.62
377.215	6.47
377.424	7.1
377.632	7.43
377.841	7.23
378.05	7.97
378.258	7.49
378.467	7.19
378.675	6.5
378.884	6.71
379.093	6.38
379.301	6.26
379.51	5.59
379.718	5.1
379.927	4.95
380.135	5.07
380.344	4.44
380.552	4.53
380.761	4.09
380.969	4.55
381.177	4.78
381.386	5.05
381.594	5.31
381.803	5.14
382.011	5.19
382.219	4.61
382.428	5.02
382.636	5.41
382.845	5.37
383.053	5.65
383.261	5.39
383.469	5.44
383.678	5.6
383.886	4.88
384.094	5.08
384.302	5.28
384.511	5.67
384.719	4.71
384.927	4.34
385.135	3.63
385.343	3.77
385.552	4.44
385.76	4.11
385.968	4.47
386.176	4.8
386.384	4.83
386.592	4.66
386.8	3.93
387.008	4.64
387.216	5.11
387.424	5.29
387.633	5.19
387.841	4.63
388.049	4.49
388.257	4.02
388.465	3.9
388.672	3.74
388.88	4.31
389.088	4.72
389.296	4.3
389.504	4.08
389.712	4.51
389.92	4.38
390.128	4.32
390.336	4.74
390.544	4.36
390.751	4.37
390.959	4.01
391.167	3.49
391.375	3.52
391.583	3.58
391.79	3.3
391.998	2.88
392.206	3.03
392.414	3.06
392.621	3
392.829	3.3
393.037	3.31
393.244	3.64
393.452	3.96
393.66	3.86
393.867	4
394.075	4.07
394.283	4.19
394.49	4.16
394.698	3.92
394.905	3.71
395.113	3.82
395.32	4.02
395.528	4.33
395.735	3.94
395.943	4.32
396.15	4.37
396.358	4.5
396.565	4.81
396.773	4.77
396.98	5.01
397.188	5.18
397.395	5.24
397.602	5.26
397.81	4.58
398.017	4.7
398.225	4.83
398.432	4.48
398.639	4.54
398.847	4.36
399.054	4.45
399.261	3.95
399.468	3.84
399.676	3.3
399.883	3.11
400.09	3.31
400.297	3.2
400.505	3.06
400.712	3.24
400.919	3.35
401.126	3.06
401.333	3.3
401.54	3.75
401.748	3.87
401.955	4.17
402.162	3.82
402.369	4.3
402.576	4.29
402.783	3.71
402.99	3.62
403.197	3.31
403.404	3.69
403.611	3.21
403.818	3.58
404.025	3.33
404.232	3.57
404.439	3.88
404.646	3.57
404.853	3.74
405.06	3.99
405.267	3.68
405.474	3.55
405.681	3.47
405.887	3.71
406.094	3.33
406.301	3.39
406.508	3.14
406.715	3.16
406.922	3.23
407.128	3.16
407.335	3.29
407.542	3.63
407.749	3.63
407.955	3.8
408.162	3.6
408.369	3.87
408.575	3.88
408.782	3.94
408.989	4.1
409.195	4.29
409.402	4.25
409.609	4.13
409.815	4.19
410.022	4.04
410.228	3.87
410.435	3.99
410.642	4.07
410.848	4.19
411.055	4.19
411.261	3.71
411.468	3.43
411.674	3.59
411.881	3.55
412.087	3.66
412.294	4.18
412.5	4.17
412.706	4.06
412.913	3.95
413.119	3.73
413.326	3.66
413.532	3.77
413.738	3.84
413.945	3.68
414.151	3.79
414.357	3.7
414.564	3.21
414.77	3.13
414.976	2.98
415.182	2.73
415.389	2.97
415.595	2.93
415.801	3.14
416.007	3.22
416.214	3.49
416.42	3.24
416.626	3.25
416.832	3.33
417.038	3.42
417.244	3.38
417.45	3.59
417.657	3.66
417.863	3.63
418.069	3.75
418.275	3.6
418.481	3.41
418.687	3.49
418.893	3.4
419.099	3.5
419.305	3.39
419.511	3.63
419.717	3.65
419.923	3.4
420.129	3.47
420.335	3.21
420.541	3.21
420.746	3.32
420.952	3.37
421.158	3.56
421.364	3.42
421.57	3.4
421.776	3.4
421.982	3.25
422.187	3.34
422.393	3.41
422.599	3.57
422.805	3.61
423.01	3.5
423.216	3.36
423.422	3.28
423.628	3.41
423.833	3.54
424.039	3.52
424.245	3.67
424.45	3.62
424.656	3.71
424.862	3.69
425.067	3.92
425.273	3.93
425.478	3.98
425.684	3.9
425.889	3.91
426.095	3.92
426.301	3.89
426.506	3.79
426.712	3.9
426.917	3.7
427.123	3.79
427.328	3.5
427.533	3.42
427.739	3.61
427.944	3.73
428.15	3.57
428.355	3.38
428.561	3.34
428.766	3.3
428.971	3.31
429.177	3.4
429.382	3.06
429.587	2.91
429.793	3.29
429.998	3
430.203	2.92
430.408	3.12
430.614	3.27
430.819	3.14
431.024	3.37
431.229	3.19
431.434	3.1
431.64	3.18
431.845	3.2
432.05	2.75
432.255	3.08
432.46	3.14
432.665	3.07
432.87	3.16
433.076	3.25
433.281	3.07
433.486	3.04
433.691	2.94
433.896	2.92
434.101	3.16
434.306	3.32
434.511	3.31
434.716	3.09
434.921	3.11
435.126	3.15
435.331	3.11
435.535	3.12
435.74	3.09
435.945	3.17
436.15	3.43
436.355	3.23
436.56	3.27
436.765	3.07
436.97	3.2
437.174	3.23
437.379	3.14
437.584	3.19
437.789	3.32
437.993	3.49
438.198	3.4
438.403	3.43
438.608	3.33
438.812	3.25
439.017	3.23
439.222	3.36
439.426	3.3
439.631	3.22
439.836	3.28
440.04	3.21
440.245	3.22
440.45	3.25
440.654	3.11
440.859	3.26
441.063	3.34
441.268	3.34
441.472	3.23
441.677	3.18
441.881	2.99
442.086	3.01
442.29	2.83
442.495	2.69
442.699	2.54
442.904	2.64
443.108	2.52
443.312	2.41
443.517	2.44
443.721	2.44
443.925	2.77
444.13	2.92
444.334	2.7
444.538	2.88
444.743	2.97
444.947	3.05
445.151	2.95
445.356	2.93
445.56	2.99
445.764	2.99
445.968	2.99
446.173	2.9
446.377	2.77
446.581	2.91
446.785	3.02
446.989	3.05
447.193	3.1
447.398	3.02
447.602	3.01
447.806	2.9
448.01	2.86
448.214	2.89
448.418	2.76
448.622	3.02
448.826	2.97
449.03	2.7
449.234	2.71
449.438	2.78
449.642	2.73
449.846	2.8
450.05	3.03
450.254	3.27
450.458	3.22
450.662	3.2
450.866	2.98
451.069	2.96
451.273	3.02
451.477	2.97
451.681	2.96
451.885	3.04
452.089	3.24
452.292	2.9
452.496	2.63
452.7	2.67
452.904	2.63
453.107	2.82
453.311	2.8
453.515	2.77
453.719	2.74
453.922	2.75
454.126	2.75
454.33	2.45
454.533	2.55
454.737	2.5
454.94	2.45
455.144	2.68
455.348	2.58
455.551	2.85
455.755	2.84
455.958	2.9
456.162	2.89
456.365	2.97
456.569	3.07
456.772	3.13
456.976	3.16
457.179	3.07
457.383	3.03
457.586	3
457.79	2.6
457.993	2.57
458.196	2.61
458.4	2.55
458.603	2.44
458.807	2.36
459.01	2.53
459.213	2.55
459.417	2.7
459.62	2.73
459.823	2.78
460.026	2.9
460.23	3.01
460.433	2.87
460.636	2.94
460.839	3.04
461.042	3.2
461.246	3.07
461.449	3.23
461.652	3.13
461.855	2.88
462.058	2.77
462.261	2.71
462.464	2.76
462.668	2.83
462.871	2.83
463.074	2.74
463.277	2.78
463.48	2.64
463.683	2.53
463.886	2.56
464.089	2.74
464.292	2.93
464.495	2.83
464.698	2.49
464.901	2.33
465.104	2.33
465.306	2.41
465.509	2.19
465.712	2.45
465.915	2.39
466.118	2.42
466.321	2.6
466.524	2.48
466.726	2.62
466.929	2.94
467.132	3.1
467.335	2.94
467.538	2.89
467.74	2.94
467.943	2.87
468.146	3.04
468.348	3.06
468.551	2.9
468.754	3.08
468.956	3.04
469.159	2.81
469.362	2.72
469.564	2.79
469.767	2.77
469.969	2.76
470.172	2.98
470.375	2.91
470.577	2.82
470.78	2.8
470.982	2.7
471.185	2.83
471.387	2.83
471.59	2.91
471.792	3.01
471.995	2.95
472.197	2.73
472.399	2.54
472.602	2.55
472.804	2.49
473.007	2.33
473.209	2.42
473.411	2.36
473.614	2.49
473.816	2.59
474.018	2.31
474.22	2.61
474.423	3.04
474.625	2.97
474.827	2.76
475.03	2.99
475.232	3.18
475.434	3.05
475.636	2.92
475.838	2.92
476.04	2.86
476.243	3.23
476.445	3.06
476.647	2.94
476.849	2.81
477.051	3.04
477.253	2.97
477.455	3.04
477.657	2.99
477.859	3.07
478.061	3.11
478.263	2.97
478.465	2.92
478.667	2.78
478.869	2.66
479.071	2.92
479.273	2.82
479.475	2.75
479.677	2.75
479.879	2.83
480.081	2.8
480.283	2.57
480.485	2.68
480.686	2.52
480.888	2.8
481.09	2.95
481.292	2.89
481.494	2.94
481.695	3.03
481.897	3.08
482.099	2.98
482.301	3.08
482.502	3.17
482.704	3.21
482.906	3.29
483.107	3.22
483.309	3.11
483.511	3.08
483.712	3.08
483.914	3.04
484.115	2.94
484.317	2.92
484.519	2.89
484.72	2.91
484.922	2.84
485.123	2.76
485.325	2.71
485.526	2.73
485.728	2.69
485.929	2.65
486.131	2.62
486.332	2.67
486.534	2.71
486.735	2.7
486.936	2.7
487.138	2.77
487.339	2.88
487.541	2.86
487.742	2.84
487.943	2.84
488.144	2.81
488.346	2.93
488.547	2.93
488.748	2.98
488.95	3.02
489.151	3.03
489.352	3.01
489.553	2.97
489.755	2.97
489.956	3.14
490.157	3.21
490.358	3.21
490.559	3.11
490.76	3.14
490.961	3.12
491.163	3
491.364	2.94
491.565	3
491.766	3
491.967	3.02
492.168	2.9
492.369	2.84
492.57	2.82
492.771	2.79
492.972	2.79
493.173	2.67
493.374	2.66
493.575	2.65
493.776	2.57
493.976	2.43
494.177	2.39
494.378	2.37
494.579	2.39
494.78	2.54
494.981	2.46
495.182	2.36
495.382	2.45
495.583	2.63
495.784	2.69
495.985	2.55
496.185	2.61
496.386	2.78
496.587	2.82
496.788	2.81
496.988	2.83
497.189	2.87
497.39	2.96
497.59	3.02
497.791	2.98
497.992	2.87
498.192	3.05
498.393	3.08
498.593	2.86
498.794	2.91
498.994	2.96
499.195	2.92
499.395	2.95
499.596	2.83
499.796	2.9
499.997	2.86
500.197	3.02
500.398	2.73
500.598	2.78
500.799	3.06
500.999	2.9
501.199	2.87
501.4	2.98
501.6	3.04
501.801	3.13
502.001	3
502.201	3.11
502.402	3.14
502.602	3.42
502.802	3.41
503.002	3.36
503.203	3.38
503.403	3.37
503.603	3.07
503.803	2.98
504.003	3.08
504.204	3.09
504.404	3.04
504.604	3.08
504.804	3
505.004	3.1
505.204	3.11
505.404	3.23
505.604	3.35
505.804	3.45
506.005	3.59
506.205	3.48
506.405	3.44
506.605	3.51
506.805	3.49
507.005	3.41
507.204	3.37
507.404	3.3
507.604	3.33
507.804	3.4
508.004	3.3
508.204	3.12
508.404	3.18
508.604	3.36
508.804	3.26
509.003	3.2
509.203	3.19
509.403	3.13
509.603	3.1
509.803	3.05
510.002	2.96
510.202	3.22
510.402	3.47
510.602	3.46
510.801	3.26
511.001	3.26
511.201	3.38
511.4	3.38
511.6	3.49
511.8	3.52
511.999	3.56
512.199	3.48
512.398	3.37
512.598	3.31
512.797	3.3
512.997	3.39
513.197	3.53
513.396	3.56
513.596	3.79
513.795	3.8
513.994	3.72
514.194	3.7
514.393	3.65
514.593	3.63
514.792	3.49
514.992	3.56
515.191	3.7
515.39	3.73
515.59	3.83
515.789	3.89
515.988	3.78
516.188	3.81
516.387	3.8
516.586	4.01
516.786	4.1
516.985	4.18
517.184	4.11
517.383	4.01
517.582	3.9
517.782	3.74
517.981	3.69
518.18	3.72
518.379	3.94
518.578	4
518.777	4.06
518.976	4.06
519.176	4.11
519.375	4.07
519.574	4.07
519.773	4.09
519.972	4.06
520.171	4.01
520.37	4.05
520.569	4.01
520.768	3.93
520.967	3.74
521.166	3.51
521.365	3.53
521.564	3.56
521.762	3.59
521.961	3.66
522.16	3.72
522.359	3.78
522.558	3.73
522.757	3.56
522.956	3.77
523.154	3.83
523.353	4.03
523.552	3.99
523.751	4.03
523.949	4.07
524.148	4.1
524.347	4.06
524.546	4.11
524.744	4.14
524.943	4.28
525.142	4.11
525.34	4.13
525.539	4.08
525.737	4.15
525.936	4.29
526.135	4.34
526.333	4.38
526.532	4.43
526.73	4.37
526.929	4.36
527.127	4.39
527.326	4.45
527.524	4.45
527.723	4.48
527.921	4.47
528.12	4.35
528.318	4.39
528.516	4.4
528.715	4.4
528.913	4.4
529.112	4.51
529.31	4.51
529.508	4.49
529.707	4.51
529.905	4.55
530.103	4.55
530.301	4.63
530.5	4.64
530.698	4.6
530.896	4.65
531.094	4.75
531.293	4.73
531.491	4.68
531.689	4.82
531.887	4.92
532.085	5.02
532.283	5.07
532.481	5.15
532.68	5.18
532.878	5.18
533.076	5.21
533.274	5.25
533.472	5.23
533.67	5.27
533.868	5.17
534.066	5.11
534.264	5.05
534.462	5.03
534.66	4.99
534.858	4.97
535.056	5.02
535.253	5.07
535.451	5.03
535.649	5
535.847	5.06
536.045	5.14
536.243	5.22
536.441	5.3
536.638	5.26
536.836	5.34
537.034	5.35
537.232	5.39
537.43	5.27
537.627	5.35
537.825	5.35
538.023	5.4
538.22	5.5
538.418	5.51
538.616	5.58
538.813	5.71
539.011	5.62
539.209	5.85
539.406	5.83
539.604	6.09
539.801	6.08
539.999	6.06
540.196	5.99
540.394	6.05
540.591	6.06
540.789	6.08
540.986	6.06
541.184	6.1
541.381	5.97
541.579	5.96
541.776	5.95
541.974	5.95
542.171	6.01
542.368	6.09
542.566	6.06
542.763	6.2
542.96	6.24
543.158	6.26
543.355	6.32
543.552	6.37
543.75	6.59
543.947	6.67
544.144	6.74
544.341	6.78
544.539	6.82
544.736	6.88
544.933	6.82
545.13	6.92
545.327	7
545.524	7.07
545.722	7.11
545.919	6.95
546.116	6.96
546.313	7.05
546.51	7.19
546.707	7.15
546.904	7.08
547.101	7.09
547.298	7.07
547.495	7.22
547.692	7.34
547.889	7.48
548.086	7.62
548.283	7.47
548.48	7.44
548.677	7.28
548.874	7.4
549.07	7.61
549.267	7.59
549.464	7.6
549.661	7.62
549.858	7.59
550.055	7.41
550.251	7.44
550.448	7.62
550.645	7.62
550.842	7.8
551.038	7.94
551.235	8.13
551.432	8.29
551.628	8.35
551.825	8.35
552.022	8.42
552.218	8.35
552.415	8.38
552.612	8.42
552.808	8.69
553.005	8.77
553.201	8.79
553.398	8.77
553.594	8.67
553.791	8.67
553.987	8.7
554.184	8.62
554.38	8.95
554.577	9.02
554.773	9.05
554.97	8.97
555.166	9.14
555.362	9.29
555.559	9.31
555.755	9.47
555.952	9.53
556.148	9.64
556.344	9.8
556.541	9.86
556.737	10.15
556.933	10.4
557.129	10.42
557.326	10.22
557.522	10.18
557.718	10.27
557.914	10.13
558.11	10.31
558.307	10.29
558.503	10.37
558.699	10.15
558.895	9.89
559.091	9.89
559.287	9.79
559.483	9.73
559.679	9.69
559.876	9.74
560.072	9.91
560.268	9.67
560.464	9.88
560.66	10.13
560.856	10.45
561.052	10.57
561.247	10.75
561.443	10.94
561.639	11.43
561.835	11.47
562.031	11.32
562.227	11.49
562.423	11.66
562.619	11.76
562.815	11.67
563.01	11.57
563.206	11.77
563.402	11.68
563.598	11.65
563.793	11.53
563.989	11.45
564.185	11.67
564.381	11.56
564.576	11.55
564.772	11.27
564.968	11.47
565.163	11.6
565.359	11.35
565.555	11.65
565.75	12.06
565.946	12.25
566.141	12.4
566.337	12.39
566.532	12.45
566.728	12.5
566.923	12.7
567.119	12.56
567.314	12.55
567.51	12.8
567.705	12.51
567.901	12.31
568.096	12.31
568.292	12.36
568.487	12.64
568.682	12.79
568.878	13.04
569.073	13.08
569.268	13.18
569.464	13.24
569.659	13.13
569.854	13.43
570.05	13.47
570.245	13.46
570.44	13.67
570.635	13.48
570.831	13.46
571.026	13.62
571.221	13.58
571.416	13.72
571.611	13.82
571.806	13.97
572.002	13.77
572.197	13.84
572.392	13.78
572.587	13.81
572.782	14.03
572.977	14.29
573.172	14.04
573.367	14.25
573.562	14.15
573.757	14.11
573.952	14.03
574.147	14.03
574.342	14.05
574.537	14.17
574.732	13.99
574.927	13.92
575.121	13.92
575.316	14.29
575.511	14.34
575.706	14.49
575.901	14.68
576.096	14.8
576.29	15.07
576.485	15.09
576.68	14.99
576.875	15.26
577.069	15.28
577.264	15.1
577.459	14.72
577.654	14.78
577.848	14.46
578.043	14.33
578.238	14.4
578.432	14.52
578.627	14.63
578.821	14.78
579.016	14.5
579.21	14.36
579.405	14.59
579.6	14.68
579.794	14.82
579.989	15.08
580.183	15.12
580.378	15.15
580.572	14.9
580.766	15
580.961	15.12
581.155	15.18
581.35	15.21
581.544	15.19
581.738	15.47
581.933	15.38
582.127	15.43
582.321	15.36
582.516	14.88
582.71	15.05
582.904	15.04
583.099	15.12
583.293	15.58
583.487	15.62
583.681	15.49
583.875	15.38
584.07	15.32
584.264	15.25
584.458	15.4
584.652	16.12
584.846	16.19
585.04	16.3
585.234	16.33
585.428	16.4
585.623	16.49
585.817	16.86
586.011	16.78
586.205	16.8
586.399	17.19
586.593	17.47
586.787	17.17
586.981	17.07
587.174	16.62
587.368	16.44
587.562	16.3
587.756	16.34
587.95	16.29
588.144	16.24
588.338	16.28
588.532	16.05
588.725	15.67
588.919	15.92
589.113	16.05
589.307	16.6
589.501	16.6
589.694	16.33
589.888	16.53
590.082	16.32
590.275	16.65
590.469	16.63
590.663	16.7
590.856	16.77
591.05	16.57
591.244	16.19
591.437	15.94
591.631	15.99
591.824	16.27
592.018	16.15
592.212	16.38
592.405	16.18
592.599	16.19
592.792	16.31
592.986	16.52
593.179	16.69
593.372	16.8
593.566	16.83
593.759	16.98
593.953	16.85
594.146	17.05
594.339	17.38
594.533	17.49
594.726	17.54
594.92	17.52
595.113	17.56
595.306	17.71
595.499	18.06
595.693	18.09
595.886	17.97
596.079	18.18
596.272	18.3
596.466	18.21
596.659	18.24
596.852	18.11
597.045	18.12
597.238	18.23
597.431	18.12
597.624	17.98
597.818	18.02
598.011	18.01
598.204	17.95
598.397	17.53
598.59	17.24
598.783	17.38
598.976	17.49
599.169	17.44
599.362	17.25
599.555	17.34
599.748	17.66
599.941	17.66
600.134	17.84
600.326	18.06
600.519	18.39
600.712	18.34
600.905	18.32
601.098	18.39
601.291	18.43
601.483	18.64
601.676	18.55
601.869	18.43
602.062	18.52
602.255	18.48
602.447	18.24
602.64	18.13
602.833	18.19
603.025	18.02
603.218	17.96
603.411	17.9
603.603	17.94
603.796	18.14
603.989	18.14
604.181	18.16
604.374	18.27
604.566	18.24
604.759	18.31
604.951	18.39
605.144	18.43
605.336	18.61
605.529	18.7
605.721	18.52
605.914	18.46
606.106	18.49
606.299	18.44
606.491	18.42
606.683	18.46
606.876	18.61
607.068	18.62
607.26	18.65
607.453	18.52
607.645	18.23
607.837	18.29
608.03	18.07
608.222	18.13
608.414	18.1
608.606	18.09
608.799	18.22
608.991	17.9
609.183	18.05
609.375	18.28
609.567	18.19
609.759	18.48
609.952	18.39
610.144	18.64
610.336	18.26
610.528	18.26
610.72	18.64
610.912	18.67
611.104	19.01
611.296	18.91
611.488	18.67
611.68	18.91
611.872	18.83
612.064	18.95
612.256	18.58
612.448	18.72
612.64	18.83
612.832	18.31
613.023	18.27
613.215	18.07
613.407	17.88
613.599	17.74
613.791	17.25
613.983	17.45
614.174	17.57
614.366	17.46
614.558	17.72
614.75	17.72
614.941	17.51
615.133	17.21
615.325	16.9
615.516	16.89
615.708	17.25
615.9	17.84
616.091	17.63
616.283	17.76
616.475	18.15
616.666	18.03
616.858	18.19
617.049	18.53
617.241	18.79
617.432	19.17
617.624	19.43
617.815	19.23
618.007	18.93
618.198	19.13
618.39	19.32
618.581	19.4
618.773	19.75
618.964	19.47
619.155	19.4
619.347	19.45
619.538	19.52
619.729	19.43
619.921	19.64
620.112	19.84
620.303	19.75
620.494	19.36
620.686	19.37
620.877	18.87
621.068	19.05
621.259	18.76
621.451	18.73
621.642	18.52
621.833	18.38
622.024	18.03
622.215	18.17
622.406	18.37
622.597	18.48
622.788	18.84
622.98	18.95
623.171	19.02
623.362	19.54
623.553	19.43
623.744	19.48
623.935	19.54
624.126	20.02
624.317	19.87
624.508	19.7
624.698	19.58
624.889	19.1
625.08	19.34
625.271	19.23
625.462	19.03
625.653	18.96
625.844	18.92
626.034	18.9
626.225	18.62
626.416	18.5
626.607	18.65
626.798	18.77
626.988	18.81
627.179	18.78
627.37	18.98
627.56	18.88
627.751	19.19
627.942	19.27
628.132	19.72
628.323	19.85
628.514	19.93
628.704	19.84
628.895	20.07
629.085	20.23
629.276	20.36
629.466	20.01
629.657	19.92
629.847	19.68
630.038	19.74
630.228	19.22
630.419	19.02
630.609	19.17
630.8	19
630.99	18.74
631.181	18.62
631.371	18.84
631.561	19.04
631.752	19.48
631.942	19.27
632.132	19.2
632.323	19.54
632.513	20.1
632.703	19.86
632.893	19.99
633.084	19.92
633.274	20.02
633.464	19.83
633.654	19.95
633.844	19.74
634.034	19.95
634.225	20.17
634.415	19.77
634.605	19.17
634.795	19.38
634.985	19.42
635.175	19.63
635.365	19.7
635.555	19.63
635.745	19.59
635.935	19.36
636.125	19.55
636.315	19.26
636.505	19.77
636.695	20.08
636.885	20.24
637.075	20.55
637.265	20.71
637.455	20.66
637.644	20.57
637.834	20.25
638.024	20.39
638.214	20.48
638.404	20.28
638.593	20.11
638.783	20.56
638.973	20.08
639.163	19.63
639.352	19.65
639.542	19.74
639.732	19.78
639.921	20.11
640.111	20.49
640.301	20.4
640.49	21.1
640.68	21.09
640.87	20.94
641.059	21.28
641.249	21.75
641.438	21.32
641.628	21.31
641.817	21.38
642.007	21.52
642.196	21.22
642.386	21.04
642.575	20.85
642.764	21.02
642.954	21
643.143	21.21
643.333	20.72
643.522	21.07
643.711	20.75
643.901	20.81
644.09	20.13
644.279	20.02
644.469	19.96
644.658	19.89
644.847	19.6
645.036	19.19
645.226	19.19
645.415	19.55
645.604	19.16
645.793	19.34
645.982	19.39
646.171	19.78
646.361	20.36
646.55	20.62
646.739	20.57
646.928	20.6
647.117	20.93
647.306	20.94
647.495	21.14
647.684	21.28
647.873	21.25
648.062	21.17
648.251	21.33
648.44	21.08
648.629	20.97
648.818	21.17
649.007	21.28
649.196	21.03
649.384	20.68
649.573	20.28
649.762	20.09
649.951	20.49
650.14	20.73
650.328	20.64
650.517	20.32
650.706	20.08
650.895	19.76
651.083	19.92
651.272	19.98
651.461	19.65
651.65	20.08
651.838	20.36
652.027	20.02
652.216	20.02
652.404	19.97
652.593	20.37
652.781	20.67
652.97	20.55
653.158	20.5
653.347	20.66
653.535	21.31
653.724	21.16
653.912	20.86
654.101	21.01
654.289	21.14
654.478	21.46
654.666	20.93
654.855	20.42
655.043	20.76
655.231	20.83
655.42	20.71
655.608	20.73
655.796	20.82
655.985	20.72
656.173	20.62
656.361	20.21
656.55	20.17
656.738	20.63
656.926	21.11
657.114	20.52
657.302	20.22
657.491	20.05
657.679	20.04
657.867	19.87
658.055	20.11
658.243	19.88
658.431	20.13
658.619	20.08
658.807	20.2
658.996	20.48
659.184	21.1
659.372	21.27
659.56	21.34
659.748	21.17
659.936	21.05
660.124	21.12
660.311	21.24
660.499	20.75
660.687	20.8
660.875	20.91
661.063	20.6
661.251	20.83
661.439	21.02
661.627	21.05
661.814	21.03
662.002	21.2
662.19	21.07
662.378	20.84
662.565	21.35
662.753	21.32
662.941	21.14
663.129	20.99
663.316	20.48
663.504	20.92
663.692	21.29
663.879	21.37
664.067	20.71
664.254	20.75
664.442	21.22
664.63	20.97
664.817	20.81
665.005	20.97
665.192	21.22
665.38	21.27
665.567	21.01
665.755	20.74
665.942	21
666.13	21.46
666.317	21.4
666.504	20.99
666.692	21.16
666.879	20.94
667.067	20.53
667.254	20.71
667.441	20.55
667.629	19.34
667.816	19.48
668.003	19.47
668.19	19.77
668.378	19.97
668.565	20.75
668.752	21.23
668.939	21.39
669.127	21.56
669.314	20.94
669.501	21.41
669.688	21.97
669.875	22.08
670.062	21.95
670.249	21.45
670.436	21.22
670.623	20.65
670.81	20.19
670.997	20.14
671.184	19.79
671.371	20.32
671.558	19.95
671.745	20.31
671.932	20.06
672.119	19.96
672.306	20.44
672.493	20.31
672.68	20.77
672.867	20.66
673.054	21.36
673.24	21.5
673.427	21.25
673.614	21.14
673.801	20.69
673.988	21.08
674.174	21.26
674.361	21.2
674.548	21.81
674.734	21.81
674.921	22.09
675.108	21.97
675.294	21.86
675.481	21.87
675.668	21.7
675.854	22
676.041	21.32
676.227	21
676.414	20.6
676.601	20.3
676.787	19.7
676.974	19.65
677.16	19.42
677.347	19.71
677.533	20.2
677.719	20.31
677.906	20.56
678.092	21.22
678.279	21.28
678.465	20.92
678.651	21.09
678.838	20.98
679.024	20.73
679.21	20.7
679.397	20.57
679.583	20.31
679.769	20.46
679.955	20.34
680.142	20.06
680.328	20.05
680.514	20.64
680.7	20.49
680.886	20.57
681.073	20.63
681.259	20.83
681.445	20.73
681.631	20.88
681.817	20.87
682.003	20.67
682.189	20.94
682.375	20.88
682.561	20.91
682.747	20.78
682.933	21.24
683.119	20.88
683.305	20.8
683.491	21.24
683.677	21.66
683.863	21.56
684.049	21.45
684.235	21.37
684.42	21.46
684.606	21.32
684.792	21.98
684.978	21.73
685.164	22.17
685.349	21.93
685.535	21.61
685.721	21.12
685.907	21.28
686.092	22.04
686.278	21.73
686.464	21.86
686.649	21.55
686.835	21.31
687.021	21.28
687.206	21.57
687.392	21.88
687.577	22.19
687.763	22.19
687.948	22.51
688.134	21.99
688.319	21.98
688.505	21.47
688.69	22.31
688.876	22.38
689.061	22.76
689.247	22.77
689.432	22.98
689.618	22.74
689.803	23.15
689.988	22.79
690.174	23.12
690.359	23.25
690.544	23.88
690.73	23.75
690.915	23.91
691.1	23.7
691.285	23.5
691.471	23.3
691.656	22.86
691.841	21.86
692.026	21.74
692.211	21.51
692.396	21.6
692.582	21.48
692.767	21.29
692.952	21.46
693.137	21.42
693.322	21.14
693.507	20.36
693.692	20.73
693.877	21.77
694.062	22.2
694.247	22.58
694.432	22.52
694.617	22.48
694.802	22.55
694.987	21.76
695.172	21.71
695.357	21.53
695.541	21.76
695.726	22.25
695.911	21.55
696.096	21.4
696.281	20.88
696.466	21.31
696.65	21.24
696.835	21.39
697.02	21.74
697.204	21.99
697.389	22.52
697.574	23.3
697.759	23.35
697.943	23.29
698.128	23.25
698.312	23.26
698.497	22.97
698.682	23.22
698.866	23.25
699.051	23.4
699.235	22.87
699.42	22.76
699.604	22.07
699.789	22.05
699.973	22.14
700.158	22.29
700.342	22.62
700.527	22.65
700.711	22.59
700.895	22.34
701.08	22.55
701.264	22.91
701.448	23.11
701.633	23.79
701.817	23.53
702.001	23.68
702.186	23.13
702.37	22.52
702.554	22.73
702.738	22.63
702.923	22.57
703.107	21.74
703.291	21.32
703.475	20.79
703.659	20.47
703.843	19.9
704.027	20.18
704.212	20.05
704.396	20.54
704.58	20.82
704.764	20.95
704.948	21.26
705.132	21.53
705.316	22.29
705.5	22.45
705.684	21.87
705.868	22.58
706.052	22.15
706.235	22.79
706.419	22.9
706.603	22.38
706.787	22.44
706.971	22.16
707.155	21.51
707.339	21.51
707.522	21.66
707.706	22.06
707.89	21.76
708.074	21.27
708.257	21.94
708.441	21.64
708.625	21.65
708.808	21.1
708.992	21.1
709.176	22.32
709.359	22.6
709.543	22.32
709.727	22.62
709.91	23.31
710.094	23.81
710.277	23.26
710.461	23.62
710.644	24.09
710.828	24.05
711.011	23.21
711.195	22.57
711.378	22.47
711.562	22.17
711.745	21.66
711.928	21.11
712.112	20.91
712.295	20.21
712.478	19.45
712.662	19.34
712.845	19.54
713.028	20.93
713.212	21.01
713.395	21.33
713.578	21.89
713.761	22.13
713.945	22.41
714.128	23.04
714.311	23.42
714.494	23.62
714.677	23.6
714.86	23.46
715.043	22.99
715.227	22.83
715.41	22.08
715.593	21.91
715.776	22.12
715.959	21.19
716.142	20.67
716.325	21.05
716.508	21.23
716.691	21.03
716.874	21.74
717.057	21.5
717.239	21.77
717.422	21.76
717.605	21.75
717.788	21.53
717.971	21.93
718.154	21.76
718.337	21.21
718.519	21.06
718.702	21.2
718.885	20.17
719.068	20.15
719.25	19.87
719.433	19.52
719.616	20.47
719.798	20.62
719.981	20.86
720.164	21.01
720.346	21.66
720.529	22.01
720.712	21.27
720.894	21.86
721.077	22.19
721.259	21.97
721.442	22.23
721.624	22.24
721.807	22.25
721.989	22.24
722.172	22.84
722.354	22.64
722.537	22.61
722.719	23.38
722.901	23.89
723.084	22.94
723.266	23.24
723.448	23.6
723.631	22.91
723.813	22.97
723.995	23.45
724.178	23.69
724.36	22.81
724.542	23.04
724.724	22.61
724.907	21.38
725.089	22.29
725.271	21.97
725.453	21.97
725.635	21.38
725.817	20.39
725.999	20.03
726.181	19.36
726.364	20.04
726.546	19.69
726.728	20.02
726.91	20.82
727.092	21.25
727.274	22.43
727.456	22.83
727.638	22.89
727.819	23.31
728.001	23.98
728.183	24.04
728.365	24.2
728.547	24.66
728.729	24.65
728.911	24.11
729.093	23.11
729.274	22.33
729.456	23.04
729.638	22.97
729.82	23.75
730.001	22.85
730.183	22.47
730.365	22.22
730.546	22.06
730.728	21.82
730.91	22.17
731.091	22.66
731.273	22.75
731.455	21.85
731.636	22.57
731.818	22.15
731.999	23.35
732.181	24.18
732.362	23.9
732.544	22.96
732.725	22.79
732.907	22.48
733.088	23.11
733.27	23.57
733.451	22.96
733.633	23.08
733.814	22.54
733.995	22.17
734.177	22.27
734.358	22.58
734.539	23.3
734.721	23.44
734.902	24.55
735.083	24.15
735.264	22.91
735.446	24.37
735.627	24.14
735.808	25.51
735.989	25.33
736.17	25.62
736.351	25.83
736.533	26.05
736.714	25.28
736.895	24.99
737.076	24.84
737.257	25.11
737.438	23.95
737.619	24.15
737.8	22.73
737.981	22.09
738.162	21.87
738.343	22.27
738.524	23.36
738.705	24.53
738.886	23.95
739.067	24.24
739.247	25.04
739.428	24.2
739.609	24.71
739.79	25.2
739.971	25.7
740.151	24.53
740.332	23.46
740.513	21.47
740.694	21.79
740.874	22.4
741.055	22.64
741.236	23.1
741.417	24.74
741.597	23.23
741.778	21.63
741.958	22.44
742.139	23.55
742.32	25.03
742.5	25.94
742.681	26.11
742.861	24.3
743.042	23.21
743.222	21.91
743.403	19.9
743.583	20.39
743.764	21.36
743.944	19.64
744.124	20.84
744.305	19.92
744.485	20.02
744.666	18.67
744.846	20.69
745.026	21.12
745.207	20.35
745.387	21.2
745.567	22.51
745.747	24.24
745.928	24.54
746.108	23.65
746.288	22.95
746.468	22.18
746.648	24.62
746.829	23.13
747.009	22.01
747.189	23.61
747.369	24.72
747.549	24.81
747.729	24.81
747.909	24.38
748.089	24.99
748.269	24.68
748.449	24.88
748.629	22.53
748.809	23.72
748.989	24.36
749.169	23.06
749.349	21.99
749.529	20.2
749.709	19.1
749.889	18.98
750.068	18.44
750.248	20.01
750.428	20.35
750.608	20.79
750.788	20.59
750.967	21.59
751.147	22.39
751.327	23.3
751.507	23.93
751.686	24.08
751.866	24.76
752.046	24.36
752.225	23.49
752.405	23.19
752.585	22.8
752.764	22.08
752.944	22.04
753.123	21.78
753.303	21.98
753.482	22.62
753.662	22.88
753.841	23
754.021	21.21
754.2	23.07
754.38	22.74
754.559	22.07
754.739	21.19
754.918	20.2
755.097	20.83
755.277	19.45
755.456	18.51
755.635	18.35
755.815	20.01
755.994	21.17
756.173	18.87
756.352	19.2
756.532	20.09
756.711	21.62
756.89	22.43
757.069	22.44
757.248	23.82
757.427	22.87
757.607	24.36
757.786	23.7
757.965	24.52
758.144	26.1
758.323	26.93
758.502	27.57
758.681	28.03
758.86	27.86
759.039	27.05
759.218	26.33
759.397	27.71
759.576	27.08
759.755	25.99
759.934	25.21
760.113	24.89
760.291	25.26
760.47	24.91
760.649	24.33
760.828	24.07
761.007	24.06
761.186	24.18
761.364	24.29
761.543	23.25
761.722	23.19
761.901	23.58
762.079	24.53
762.258	23.62
762.437	23.93
762.615	24.77
762.794	24.41
762.972	24.47
763.151	24.89
763.33	25.14
763.508	24.67
763.687	25.45
763.865	25.36
764.044	24.03
764.222	24.33
764.401	23.95
764.579	23.61
764.758	24.81
764.936	24.15
765.114	23.55
765.293	22.48
765.471	22.78
765.65	21.28
765.828	21.24
766.006	20.86
766.184	20.07
766.363	20.51
766.541	20.13
766.719	19.05
766.898	19.62
767.076	19.87
767.254	20.86
767.432	21.23
767.61	22.04
767.788	22.34
767.967	24.42
768.145	24.48
768.323	24.02
768.501	24.38
768.679	25.06
768.857	25.96
769.035	26.72
769.213	26.03
769.391	25.88
769.569	25.41
769.747	25.1
769.925	23.89
770.103	24.64
770.281	24.35
770.459	23.21
770.636	22.57
770.814	22.79
770.992	22.7
771.17	21.07
771.348	21.44
771.525	21.72
771.703	20.54
771.881	19.52
772.059	18.53
772.236	18.86
772.414	19.26
772.592	18.39
772.769	17.11
772.947	18.48
773.125	20.31
773.302	20.66
773.48	22.77
773.657	24.47
773.835	25.91
774.013	26.7
774.19	26.13
774.368	26.58
774.545	24.68
774.723	24.46
774.9	20.86
775.077	20.25
775.255	18.61
775.432	18.37
775.61	17.62
775.787	17.22
775.964	18.41
776.142	21.17
776.319	22.85
776.496	24.44
776.674	25.19
776.851	27.96
777.028	27.83
777.205	30.45
777.382	28.72
777.56	28.4
777.737	27.14
777.914	24.88
778.091	22.89
778.268	19.71
778.445	21.83
778.622	23.96
778.8	21.39
778.977	21.65
779.154	20.24
779.331	20.91
779.508	22.42
779.685	21.67
779.862	21.46
780.038	19.98
780.215	19.98
780.392	21.23
780.569	20.19
780.746	21.6
780.923	21.36
781.1	19.57
781.277	18.92
781.453	18.69
781.63	19.74
781.807	20.52
781.984	20.72
782.16	23.22
782.337	18.92
782.514	18.21
782.691	19.12
782.867	20.55
783.044	21.98
783.221	22.73
783.397	21.35
783.574	24.24
783.75	26.4
783.927	28.3
784.103	28.07
784.28	29.41
784.456	28.22
784.633	26.57
784.809	26.42
784.986	27.62
785.162	26.79
785.339	30.15
785.515	25.74
785.692	24.13
785.868	20.8
786.044	20.54
786.221	22.2
786.397	21.97
786.573	24.92
786.749	23.02
786.926	22.97
787.102	23.38
787.278	20.13
787.454	21.4
787.631	21.27
787.807	22.18
787.983	22.23
788.159	20.46
788.335	20.74
788.511	18.95
788.687	19.26
788.863	20.09
789.039	21.81
789.216	21.99
789.392	24.12
789.568	23.41
789.744	21.54
789.919	23.08
790.095	21.41
790.271	24.18
790.447	25.63
790.623	27.13
790.799	26.27
790.975	25.5
791.151	27
791.327	23.62
791.502	25.5
791.678	28.92
791.854	26.97
792.03	30.73
792.205	28.39
792.381	27.71
792.557	25.5
792.733	27.2
792.908	25.65
793.084	24.25
793.259	25.45
793.435	23.88
793.611	23.75
793.786	23.22
793.962	24.89
794.137	22.79
794.313	21.65
794.488	22.22
794.664	22.47
794.839	25.57
795.015	26.98
795.19	27.86
795.366	29.04
795.541	23.33
795.716	23.21
795.892	20.29
796.067	23.55
796.242	22.96
796.418	24.97
796.593	21.4
796.768	19.42
796.944	19.61
797.119	21.09
797.294	18.58
797.469	21.91
797.644	24.85
797.82	28.81
797.995	27.27
798.17	24.29
798.345	26.46
798.52	32.28
798.695	33.22
798.87	31.91
799.045	30.56
799.22	31.45
799.395	33.38
799.57	31.77
799.745	28.98
799.92	27.54
800.095	29.94
800.27	27.19
800.445	25
800.62	24.06
800.795	25.48
800.97	25.25
801.145	25.46
801.319	23.86
801.494	21.84
801.669	20.8
801.844	22.27
802.018	23.23
802.193	27.17
802.368	24.42
802.543	23.35
802.717	26.54
802.892	25.03
803.067	26.14
803.241	26.75
803.416	29.33
803.59	31.46
803.765	32.49
803.94	34.27
804.114	29.88
804.289	31.53
804.463	32.34
804.638	26.76
804.812	25.56
804.986	24.92
805.161	24.84
805.335	23.9
805.51	25.8
805.684	22.95
805.858	20.36
806.033	20.44
806.207	23.98
806.381	26.18
806.556	25.59
806.73	27.51
806.904	26.15
807.078	24.37
807.253	23.71
807.427	21.47
807.601	23.58
807.775	19.54
807.949	19.8
808.123	11.44
808.298	7.8
808.472	10.38
808.646	12.9
808.82	14.62
808.994	13.05
809.168	13.83
809.342	13.6
809.516	10.93
809.69	18.53
809.864	19.18
810.038	22.47
810.212	22.28
810.385	18.91
810.559	15.5
810.733	20.7
810.907	21.37
811.081	16.97
811.255	17.92
811.428	17.93
811.602	15.2
811.776	13.6
811.95	14.44
812.123	18.51
812.297	20.9
812.471	21.06
812.644	17.31
812.818	22.88
812.992	28.64
813.165	27.57
813.339	29.22
813.512	30.2
813.686	28.2
813.86	33.63
814.033	33.05
814.207	28.69
814.38	28.41
814.554	23.27
814.727	21.04
814.9	17.56
815.074	19.25
815.247	21.54
815.421	24.18
815.594	27.54
815.767	19.47
815.941	12.6
816.114	13.9
816.287	14.74
816.46	20.1
816.634	19.73
816.807	17.33
816.98	14.41
817.153	7.97
817.327	5.94
817.5	1.87
817.673	3.03
817.846	9.47
818.019	10.8
818.192	11.51
818.365	9.66
818.538	7.7
818.711	13.03
818.884	14.09
819.057	16.55
819.23	18.63
819.403	22.52
819.576	23.96
819.749	23.98
819.922	24.38
820.095	19.97
820.268	19.36
820.441	20.91
820.614	19.92
820.786	22.73
820.959	24.25
821.132	23.32
821.305	22.68
821.477	23.38
821.65	23.12
821.823	24.11
821.996	26.42
822.168	26.66
822.341	26.84
822.514	27.87
822.686	27.27
822.859	27.26
823.031	27.2
823.204	27.13
823.376	26.6
823.549	27.26
823.722	27.17
823.894	26.69
824.067	26.94
824.239	27.08
824.411	26.14
824.584	26.57
824.756	26.37
824.929	26.98
825.101	27.02
825.273	27.65
825.446	26.59
825.618	27.19
825.79	26.6
825.963	25.4
826.135	25.29
826.307	26.21
826.479	25.79
826.652	24.78
826.824	23.88
826.996	23.82
827.168	23.21
827.34	22.21
827.512	20.4
827.684	19.72
827.856	21.12
828.029	20.33
828.201	18.94
828.373	19.9
828.545	19.96
828.717	20.01
828.889	20.81
829.061	19.61
829.232	19.36
829.404	22.34
829.576	25.64
829.748	24.32
829.92	26.52
830.092	28.6
830.264	26.48
830.436	27.76
830.607	28.54
830.779	26.26
830.951	29.07
831.123	32.49
831.294	29.66
831.466	27.51
831.638	31.14
831.809	29.24
831.981	27.26
832.153	30.5
832.324	31.24
832.496	29.78
832.667	30.89
832.839	28.14
833.011	22.18
833.182	24.03
833.354	25.11
833.525	21.38
833.697	21.31
833.868	17.26
834.039	14.79
834.211	15.34
834.382	17.5
834.554	17.93
834.725	17.73
834.896	21.5
835.068	21.69
835.239	19.08
835.41	19.35
835.581	19.5
835.753	25.09
835.924	25.59
836.095	24.5
836.266	24.33
836.438	25.05
836.609	25.96
836.78	25.47
836.951	25.65
837.122	28.97
837.293	29.62
837.464	28.07
837.635	24.38
837.806	24.55
837.977	24.2
838.148	20.82
838.319	19.63
838.49	19.09
838.661	17.3
838.832	15.02
839.003	13.13
839.174	10.78
839.345	13.9
839.516	9.86
839.687	14.28
839.857	13.03
840.028	8.28
840.199	11.14
840.37	7.47
840.54	10.66
840.711	13.37
840.882	12.78
841.053	13.45
841.223	12.43
841.394	14.18
841.564	10.67
841.735	10.06
841.906	15.81
842.076	11.73
842.247	14.08
842.417	14.23
842.588	12.83
842.758	11.9
842.929	7.81
843.099	2.93
843.27	7.32
843.44	-2.29
843.611	-4.37
843.781	-9.35
843.951	-3.81
844.122	-7
844.292	-14.05
844.462	-29.63
844.633	-15.16
844.803	-8.74
844.973	-0.31
845.144	-5.32
845.314	15.17
845.484	25.54
845.654	19.5
845.824	15.83
845.995	22.28
846.165	21.27
846.335	33.13
846.505	25.16
846.675	31.33
846.845	36.84
847.015	32.92
847.185	27.87
847.355	23.05
847.525	24.12
847.695	21.08
847.865	24.36
848.035	27.97
848.205	26.23
848.375	22.94
848.545	20.74
848.715	11.39
848.884	22.97
849.054	27.58
849.224	33.15
849.394	40.57
849.564	40.77
849.733	35.97
849.903	37.46
850.073	34.02
850.243	48.9
850.412	24.3
850.582	21.27
850.752	12.94
850.921	5.98
851.091	-4.59
851.26	4.44
851.43	-0.98
851.599	8.41
851.769	2.41
851.939	5.28
852.108	-2.34
852.278	20.99
852.447	19.86
852.616	12.88
852.786	7.19
852.955	4.93
853.125	0.97
853.294	0.7
853.463	-3.79
853.633	4.65
853.802	1.68
853.971	18.03
854.141	0.48
854.31	12.26
854.479	11.97
854.648	23.09
854.818	15.29
854.987	11.08
855.156	11.07
855.325	0.97
855.494	-10.89
855.663	-4.92
855.832	-31.07
856.001	-31.65
856.171	-59.38
856.34	-50.99
856.509	-101.08
856.678	-52.31
856.847	-27.12
857.016	-1.25
857.185	11.27
857.353	5.04
857.522	13.79
857.691	21.63
857.86	17.18
858.029	17.6
858.198	28.55
858.367	45.58
858.535	39.24
858.704	37.59
858.873	21.56
859.042	24.48
859.21	27.7
859.379	-1.17
859.548	10.01
859.717	26.63
859.885	35.12
860.054	13.77
860.222	-2.93
860.391	-7.73
860.56	-17.44
860.728	-14.22
860.897	-23.23
861.065	-30.97
861.234	-24.03
861.402	-33.46
861.571	-25.98
861.739	-24.25
861.908	-22.26
862.076	-16.77
862.244	-7.04
862.413	-11.31
862.581	-32.37
862.749	-46.84
862.918	-17.27
863.086	-34.99
863.254	-12.61
863.423	-46.65
863.591	-16.6
863.759	-27.52
863.927	-29.17
864.096	-24.28
864.264	-38.48
864.432	-0.69
864.6	21.94
864.768	18
864.936	15.16
865.104	5.25
865.272	3.5
865.44	-10.65
865.608	-1.66
865.776	-4.11
865.944	-20.67
866.112	-1.56
866.28	-0.5
866.448	-15.62
866.616	-21.68
866.784	7.08
866.952	7.35
867.12	1.24
867.288	8.02
867.455	-18.93
867.623	-8.81
867.791	2.39
867.959	-18.3
868.127	-4.07
868.294	8.67
868.462	6.3
868.63	-24.26
868.797	-6.44
868.965	17.53
869.133	-2.62
869.3	9.85
869.468	14.41
869.636	5.4
869.803	4.36
869.971	-19.36
870.138	-7.86
870.306	5.98
870.473	-5.26
870.641	-9.33
870.808	-19.84
870.975	-3.71
871.143	-11.05
871.31	-35.64
871.478	-24.09
871.645	-16.85
871.812	44.17
871.98	44.05
872.147	33.69
872.314	32.75
872.482	30.73
872.649	23.69
872.816	38.16
872.983	38.06
873.15	39.95
873.318	34.21
873.485	25.58
873.652	18.53
873.819	4.45
873.986	-8.69
874.153	-2.52
874.32	-12.92
874.487	-10.11
874.654	-27.24
874.821	-45.23
874.988	-44.53
875.155	-77.76
875.322	-38.04
875.489	-32.04
875.656	-23.22
875.823	-25.06
875.99	-20.05
876.157	-5.05
876.324	-6.82
876.49	8.84
876.657	19.62
876.824	27.61
876.991	31.28
877.157	32.76
877.324	19.11
877.491	18.31
877.658	23.95
877.824	25.56
877.991	28.4
878.157	34.84
878.324	25.7
878.491	24.18
878.657	13.09
878.824	10.13
878.99	-18.97
879.157	-11.19
879.323	-16.12
879.49	-17.28
879.656	-21.08
879.823	-39.2
879.989	-42.52
880.156	-51.65
880.322	-39
880.488	-0.16
880.655	7.44
880.821	34.72
880.987	31.52
881.154	27.55
881.32	26.86
881.486	23.32
881.652	26.01
881.819	29.91
881.985	33.78
882.151	31.63
882.317	21.48
882.483	18.81
882.649	18.74
882.816	19.28
882.982	22.2
883.148	23.1
883.314	21.64
883.48	21.08
883.646	22.97
883.812	20.08
883.978	20.01
884.144	23.36
884.31	25.43
884.476	25.1
884.642	25.2
884.807	25
884.973	23.26
885.139	23.58
885.305	22.01
885.471	19.1
885.637	17.97
885.802	12.63
885.968	12.27
886.134	8.32
886.3	8.66
886.465	4.38
886.631	2.79
886.797	2.64
886.962	3.09
887.128	7.45
887.293	7.79
887.459	7.7
887.625	14.52
887.79	6.13
887.956	3.84
888.121	1.08
888.287	4.47
888.452	1.23
888.618	-3.32
888.783	-4.52
