Data from 2937865_Reflection_2.txt Node
Date: Wed Jul 15 15:13:03 EDT 2015
User: robert
Spectrometer: USB4E03001
Autoset integration time: false
Trigger mode: 4
Integration Time (sec): 1.000000E-1
Scans to average: 10
Electric dark correction enabled: true
Nonlinearity correction enabled: false
Boxcar width: 5
Stray light correction enabled: false
XAxis mode: Wavelengths
Stop averaging: false
Number of Pixels in Spectrum: 3648
>>>>>Begin Spectral Data<<<<<
177.566	294.41
177.785	155.23
178.005	-290.29
178.225	-256.79
178.445	344.96
178.665	18.77
178.885	165.38
179.105	264.21
179.324	104.74
179.544	80.51
179.764	72.43
179.984	75.61
180.204	49.76
180.423	9.15
180.643	-677.81
180.863	-1178.84
181.083	-255.09
181.302	-171.15
181.522	-8.84
181.742	-22.46
181.961	-34.32
182.181	-77.38
182.401	7.39
182.621	21.2
182.84	-11.48
183.06	32.31
183.279	38.28
183.499	20.83
183.719	-16.59
183.938	-112.16
184.158	-96.6
184.377	-51
184.597	-24.77
184.816	-53.25
185.036	-88.49
185.256	-121.22
185.475	-84.94
185.695	-44.46
185.914	-46.4
186.134	-43.89
186.353	-81.68
186.572	-30.77
186.792	-136.58
187.011	261.84
187.231	382.88
187.45	2.16
187.67	34.42
187.889	48.22
188.108	64.74
188.328	67.71
188.547	76.98
188.766	96.63
188.986	77.24
189.205	60.9
189.424	56.33
189.644	44.01
189.863	46.86
190.082	46.26
190.302	54.21
190.521	40.91
190.74	38.75
190.959	34.25
191.178	-3.54
191.398	21.51
191.617	-17.67
191.836	-23.65
192.055	-109.11
192.274	-80.54
192.494	-2104.19
192.713	-162.94
192.932	-252.69
193.151	-212.41
193.37	360.85
193.589	462.48
193.808	315.15
194.027	-213.99
194.246	-375.87
194.465	-84.69
194.685	-13.97
194.904	-46.96
195.123	-240.33
195.342	-132.67
195.561	-697.4
195.78	-136.88
195.999	-65.86
196.218	-92.36
196.436	250.88
196.655	12.44
196.874	-8.93
197.093	-71.34
197.312	50.14
197.531	96.66
197.75	23.72
197.969	111.46
198.188	56.07
198.407	64.4
198.625	48.75
198.844	17.08
199.063	70.65
199.282	6370
199.501	27.9
199.719	62.71
199.938	-132.92
200.157	-207.82
200.376	-191.13
200.594	-27.36
200.813	-14.44
201.032	-8.75
201.251	14.4
201.469	7.13
201.688	1.2
201.907	6.43
202.125	-37.26
202.344	3.23
202.563	32.55
202.781	58.96
203	35.42
203.218	18.44
203.437	19.22
203.656	14.27
203.874	30.64
204.093	77.83
204.311	62.79
204.53	70.83
204.748	98.09
204.967	82.12
205.185	53
205.404	-39.99
205.622	-92.93
205.841	35.25
206.059	-2.91
206.278	-108.75
206.496	194.32
206.715	396.63
206.933	159.52
207.151	257.75
207.37	640.34
207.588	350.3
207.806	-676.71
208.025	15668.42
208.243	552.9
208.461	-85.69
208.68	85.69
208.898	64.56
209.116	113.72
209.335	107.73
209.553	96.31
209.771	117.72
209.989	113.77
210.208	161.74
210.426	106.95
210.644	134.82
210.862	139.34
211.081	75.4
211.299	72.34
211.517	78.6
211.735	41.67
211.953	48.98
212.171	60.54
212.39	35.43
212.608	25.98
212.826	17.11
213.044	13.44
213.262	-68.85
213.48	-19.04
213.698	-63.51
213.916	-130.39
214.134	34.98
214.352	40.94
214.57	99.36
214.788	96.44
215.006	84.74
215.224	79.93
215.442	98.7
215.66	55.52
215.878	51.64
216.096	8.65
216.314	-12.08
216.532	-0
216.75	4
216.968	-69.62
217.185	-59.35
217.403	-67.37
217.621	-19.2
217.839	-24.55
218.057	-20.46
218.275	-7.04
218.492	-0.46
218.71	-7.75
218.928	-6.3
219.146	3.75
219.363	15.34
219.581	0.75
219.799	1.37
220.017	18.01
220.234	14.14
220.452	4.84
220.67	-10.43
220.887	18.53
221.105	37.16
221.323	33.58
221.54	7.39
221.758	1.76
221.976	-13.45
222.193	0.74
222.411	5.2
222.629	13.67
222.846	18.46
223.064	29.07
223.281	18.67
223.499	8.02
223.716	-4.06
223.934	15.42
224.151	-24.97
224.369	-23.73
224.586	17.01
224.804	-28.92
225.021	-32.42
225.239	-43.29
225.456	-14.11
225.674	10.26
225.891	51.98
226.108	46.65
226.326	43.26
226.543	55.96
226.76	50.77
226.978	30.83
227.195	22.88
227.413	20.05
227.63	21.53
227.847	20.54
228.064	14.81
228.282	5.21
228.499	6.73
228.716	10.06
228.934	11.48
229.151	14.7
229.368	17.4
229.585	20.45
229.802	19.07
230.02	19.07
230.237	19.63
230.454	20.89
230.671	24.61
230.888	28.89
231.105	28.48
231.323	28.67
231.54	28.21
231.757	28.77
231.974	27.73
232.191	31.3
232.408	28.43
232.625	21.3
232.842	24.38
233.059	24.47
233.276	15.76
233.493	11.21
233.71	13.95
233.927	14.62
234.144	11.77
234.361	17.23
234.578	15.87
234.795	15.94
235.012	29.95
235.229	26.83
235.446	24.25
235.663	25.76
235.879	32.36
236.096	28.35
236.313	22.85
236.53	22.06
236.747	16.14
236.964	17.76
237.181	20.5
237.397	8.51
237.614	8.16
237.831	15.16
238.048	25.59
238.264	24.49
238.481	28.49
238.698	33.09
238.915	30.23
239.131	24.54
239.348	18.48
239.565	22.11
239.781	23.72
239.998	19.28
240.215	16.48
240.431	10.32
240.648	12.48
240.865	11.29
241.081	14.31
241.298	18.38
241.514	22.2
241.731	23.39
241.947	22.44
242.164	23.96
242.38	25.64
242.597	25.6
242.814	24.84
243.03	24.94
243.246	25.42
243.463	24.21
243.679	22.52
243.896	22.38
244.112	22.48
244.329	21.62
244.545	19.11
244.762	16.85
244.978	13.98
245.194	15.1
245.411	15.16
245.627	15.56
245.843	15.61
246.06	16.09
246.276	16.38
246.492	17.48
246.709	17.39
246.925	16.8
247.141	16.96
247.357	17.24
247.574	16.61
247.79	16.35
248.006	16.61
248.222	15.3
248.439	15.55
248.655	15.71
248.871	15.36
249.087	15.18
249.303	14.94
249.519	15.67
249.736	16.7
249.952	17.07
250.168	15.22
250.384	13.69
250.6	15.19
250.816	15.92
251.032	10.39
251.248	11.81
251.464	12.56
251.68	14.14
251.896	13.21
252.112	12.98
252.328	13.69
252.544	15.5
252.76	14.82
252.976	14.4
253.192	12.33
253.408	14.82
253.624	13.14
253.84	12.33
254.056	11.84
254.272	11.02
254.487	9.14
254.703	9
254.919	6.09
255.135	9.01
255.351	8.64
255.567	9.76
255.782	10.26
255.998	10.35
256.214	10.1
256.43	8.76
256.646	11.56
256.861	11.59
257.077	10.57
257.293	12.93
257.508	11
257.724	11.63
257.94	9.74
258.155	10.42
258.371	10.76
258.587	11
258.802	10.79
259.018	10.42
259.234	10.45
259.449	10.19
259.665	9.52
259.88	9.69
260.096	10.41
260.312	11.33
260.527	11.63
260.743	11.71
260.958	12.08
261.174	12.62
261.389	12.03
261.605	11.12
261.82	11.29
262.036	12.06
262.251	10.49
262.466	9.93
262.682	9.07
262.897	8.45
263.113	8.52
263.328	8.24
263.543	7.82
263.759	7.95
263.974	10.22
264.189	12.21
264.405	12.88
264.62	16.4
264.835	15.35
265.051	16.08
265.266	15.21
265.481	12.15
265.696	9.9
265.912	10.3
266.127	9.62
266.342	11.73
266.557	10.93
266.773	10.19
266.988	9
267.203	10.86
267.418	11.17
267.633	10.34
267.848	10.72
268.064	12.23
268.279	12.57
268.494	13.4
268.709	12.25
268.924	11.66
269.139	10.88
269.354	11.19
269.569	9.61
269.784	9.09
269.999	8.74
270.214	9.24
270.429	8.95
270.644	8.86
270.859	8.29
271.074	8.11
271.289	7.37
271.504	7.5
271.719	7.78
271.934	8.19
272.149	7.87
272.363	8.32
272.578	7.66
272.793	7.49
273.008	8.51
273.223	8.3
273.438	9.01
273.653	9.16
273.867	8.14
274.082	7.78
274.297	7.41
274.512	6.65
274.726	7.46
274.941	9.3
275.156	7.99
275.371	6.28
275.585	7.56
275.8	5.57
276.015	5.28
276.229	8.53
276.444	10.47
276.659	10.62
276.873	11.38
277.088	13.03
277.302	13.51
277.517	14.62
277.732	15.07
277.946	14.73
278.161	15.64
278.375	18.3
278.59	17.21
278.804	16.18
279.019	16.63
279.233	17.36
279.448	16.49
279.662	14.03
279.877	15.22
280.091	14.64
280.306	14.31
280.52	15.29
280.735	13.67
280.949	12.27
281.163	13.85
281.378	14
281.592	14.51
281.806	13.81
282.021	15.24
282.235	15.1
282.449	15.07
282.664	16.39
282.878	16.96
283.092	17.22
283.307	18.07
283.521	15.3
283.735	14.68
283.949	13.95
284.164	15.41
284.378	14.87
284.592	14.6
284.806	13.84
285.02	11.54
285.234	10.63
285.449	10.2
285.663	11.13
285.877	12.54
286.091	12.5
286.305	12.36
286.519	11.49
286.733	11.73
286.947	10.99
287.161	11.42
287.375	13.14
287.589	12.68
287.803	12.69
288.017	12.28
288.231	11
288.445	10.97
288.659	11.36
288.873	10.32
289.087	10.33
289.301	10.72
289.515	11.03
289.729	10.74
289.943	11.7
290.157	11.5
290.371	11.17
290.584	12.72
290.798	12.47
291.012	11.52
291.226	12.75
291.44	11.81
291.654	11.97
291.867	13.46
292.081	14.65
292.295	13.15
292.509	14.76
292.722	14.78
292.936	13.49
293.15	13.53
293.364	13.03
293.577	11.92
293.791	13.02
294.005	14.17
294.218	13.34
294.432	11.58
294.645	11.54
294.859	9.81
295.073	9.76
295.286	9.35
295.5	10.09
295.713	10.68
295.927	10.68
296.14	10.68
296.354	10.2
296.568	10.78
296.781	11.04
296.994	11.94
297.208	12.26
297.421	11.92
297.635	13.07
297.848	13.04
298.062	13.3
298.275	13.35
298.489	13.36
298.702	12.67
298.915	12.54
299.129	11.85
299.342	11.5
299.555	12.3
299.769	13.54
299.982	14.34
300.195	14.63
300.409	15.97
300.622	17.73
300.835	17.53
301.048	18.89
301.262	19.14
301.475	19.11
301.688	19.2
301.901	19.63
302.115	18.95
302.328	17.26
302.541	17.7
302.754	17.03
302.967	17.92
303.18	17.34
303.393	15.64
303.607	14.37
303.82	15.51
304.033	15.87
304.246	14.57
304.459	13.22
304.672	13.43
304.885	12.25
305.098	11.79
305.311	9.77
305.524	10.16
305.737	12.21
305.95	12.61
306.163	12.06
306.376	11.72
306.589	11.69
306.802	12.61
307.015	13.79
307.228	14.4
307.44	13.74
307.653	14.7
307.866	14.41
308.079	13.23
308.292	12.49
308.505	14.64
308.718	15.13
308.93	15.59
309.143	16.7
309.356	15.12
309.569	14.37
309.781	14.42
309.994	13.85
310.207	15.05
310.42	14.6
310.632	14.85
310.845	13.45
311.058	12.89
311.27	13.84
311.483	13.39
311.696	13.77
311.908	13.98
312.121	13.84
312.333	12.59
312.546	11.1
312.759	11.57
312.971	11.3
313.184	12.78
313.396	12.36
313.609	11.26
313.821	12.6
314.034	12.88
314.246	14.67
314.459	14.97
314.671	14.64
314.884	16.21
315.096	16.38
315.309	17.25
315.521	16.91
315.733	18.35
315.946	16.87
316.158	15.96
316.371	16.64
316.583	15.14
316.795	14.58
317.008	15.9
317.22	14.56
317.432	14.55
317.644	14.26
317.857	12.04
318.069	12.23
318.281	13.22
318.494	12.09
318.706	11.54
318.918	11.41
319.13	12.4
319.342	11.34
319.555	11.04
319.767	11.22
319.979	10.77
320.191	12.06
320.403	9.91
320.615	9.9
320.827	10.1
321.039	11.09
321.252	10.92
321.464	10.29
321.676	10.9
321.888	12.65
322.1	12.12
322.312	11.32
322.524	10.41
322.736	10.64
322.948	10.26
323.16	9.97
323.372	8.5
323.584	8.45
323.796	9.55
324.007	10.08
324.219	9.82
324.431	11.01
324.643	11.7
324.855	12.23
325.067	11.76
325.279	12.71
325.491	13.11
325.702	13.74
325.914	13.38
326.126	12.97
326.338	11.69
326.55	9.27
326.761	8.27
326.973	9.15
327.185	9.84
327.396	11.36
327.608	11.36
327.82	10.68
328.032	10.94
328.243	11.35
328.455	12.42
328.666	13.67
328.878	16.23
329.09	16.04
329.301	16.45
329.513	15.75
329.725	14.92
329.936	13.38
330.148	13.29
330.359	13.86
330.571	14.12
330.782	12.47
330.994	11.9
331.205	9.44
331.417	10.15
331.628	9.58
331.84	9.76
332.051	8.66
332.262	10.37
332.474	10.81
332.685	7.84
332.897	8.92
333.108	9.25
333.319	7.16
333.531	7.9
333.742	7.55
333.953	7.64
334.165	6.95
334.376	8.64
334.587	8.24
334.799	7.18
335.01	9.1
335.221	6.81
335.432	5.78
335.644	8.16
335.855	9.86
336.066	11.04
336.277	9.84
336.488	10.4
336.7	9.38
336.911	9.33
337.122	10.94
337.333	10.54
337.544	11.33
337.755	11.71
337.966	10.91
338.177	10.27
338.388	9.3
338.599	9.37
338.811	7.66
339.022	7.95
339.233	8.05
339.444	7.03
339.655	6.72
339.866	7.23
340.076	7.33
340.287	8.57
340.498	8.98
340.709	9.16
340.92	10.1
341.131	11.78
341.342	12.67
341.553	11.73
341.764	11.5
341.975	10.67
342.185	10.12
342.396	9.75
342.607	10.25
342.818	9.09
343.029	8.84
343.239	7.5
343.45	7.36
343.661	7.07
343.872	7.86
344.082	8.35
344.293	8.97
344.504	9.05
344.714	8.6
344.925	7.98
345.136	7.78
345.346	7.73
345.557	8.52
345.768	8.13
345.978	8.87
346.189	9.21
346.399	8.79
346.61	9.03
346.821	9.46
347.031	11.55
347.242	10.05
347.452	9.93
347.663	10.75
347.873	9.94
348.084	9.58
348.294	8.21
348.504	8.05
348.715	7.74
348.925	8.21
349.136	7.57
349.346	6.71
349.557	8.12
349.767	9.87
349.977	8.62
350.188	8.57
350.398	8.08
350.608	7.77
350.819	7.45
351.029	6.9
351.239	5.97
351.449	7.22
351.66	6.96
351.87	6.97
352.08	5.69
352.29	5.72
352.501	6.44
352.711	7.82
352.921	6.43
353.131	6.09
353.341	7.91
353.552	9.38
353.762	9.58
353.972	9.56
354.182	9.05
354.392	8.95
354.602	9.49
354.812	10.35
355.022	10.4
355.232	11.93
355.442	13.02
355.652	12.63
355.862	11.88
356.072	11.91
356.282	12.37
356.492	11.94
356.702	11.94
356.912	11.38
357.122	10.25
357.332	10.21
357.542	10.72
357.752	10.04
357.962	10.24
358.171	10.51
358.381	10.1
358.591	9.73
358.801	10.27
359.011	9.46
359.221	9.55
359.43	10.59
359.64	10.8
359.85	10.16
360.06	10.09
360.269	9.62
360.479	9.53
360.689	9.24
360.899	9.91
361.108	9.93
361.318	10.14
361.528	10.18
361.737	9.76
361.947	9.18
362.156	9.99
362.366	9.76
362.576	9.38
362.785	9.49
362.995	9.79
363.204	9.46
363.414	9.29
363.623	9.7
363.833	10.21
364.042	10.15
364.252	10.05
364.461	8.98
364.671	9.71
364.88	10.43
365.09	10.14
365.299	9.95
365.509	10.18
365.718	10.7
365.927	10.63
366.137	9.89
366.346	10.27
366.555	10.42
366.765	10.62
366.974	10.32
367.183	10.05
367.393	9.88
367.602	9.64
367.811	9.01
368.021	8.53
368.23	8.11
368.439	8.77
368.648	8.1
368.857	8.24
369.067	7.73
369.276	7.42
369.485	8.03
369.694	7.86
369.903	8.03
370.112	8.06
370.321	7.81
370.531	8.13
370.74	7.19
370.949	6.62
371.158	6.29
371.367	6.91
371.576	7.43
371.785	7.13
371.994	7.48
372.203	6.76
372.412	7.21
372.621	6.76
372.83	6.7
373.039	7.4
373.248	8.34
373.457	8.67
373.666	8.44
373.874	8.62
374.083	8.63
374.292	9.16
374.501	9.82
374.71	9.16
374.919	10.04
375.128	9.4
375.336	9.46
375.545	9.65
375.754	9.67
375.963	10.43
376.171	9.89
376.38	9.93
376.589	9.63
376.798	9.41
377.006	8.91
377.215	8.78
377.424	9.52
377.632	9.75
377.841	9.48
378.05	9.33
378.258	9.12
378.467	9.39
378.675	8.99
378.884	8.74
379.093	8.23
379.301	8.93
379.51	8.55
379.718	7.92
379.927	7.33
380.135	6.98
380.344	6.62
380.552	6.05
380.761	5.16
380.969	5.08
381.177	5.43
381.386	5.73
381.594	6.08
381.803	5.86
382.011	6.28
382.219	5.9
382.428	6.21
382.636	6.32
382.845	6.56
383.053	7.05
383.261	7.08
383.469	6.53
383.678	6.62
383.886	6.01
384.094	6.01
384.302	6.05
384.511	6.45
384.719	6.27
384.927	6.69
385.135	6.37
385.343	6.82
385.552	7.68
385.76	7.73
385.968	8.1
386.176	8.38
386.384	8.45
386.592	8.21
386.8	8.22
387.008	8.39
387.216	8.37
387.424	8.05
387.633	7.68
387.841	6.86
388.049	6.6
388.257	6.17
388.465	6.03
388.672	5.94
388.88	6.04
389.088	5.88
389.296	5.77
389.504	5.71
389.712	6.11
389.92	5.76
390.128	5.68
390.336	5.86
390.544	5.77
390.751	5.92
390.959	5.67
391.167	5.34
391.375	5
391.583	4.6
391.79	4.02
391.998	3.98
392.206	4.26
392.414	4.08
392.621	4.25
392.829	4.32
393.037	4.06
393.244	4.19
393.452	4.37
393.66	4.45
393.867	4.74
394.075	5.05
394.283	4.83
394.49	4.47
394.698	4.54
394.905	4.42
395.113	4.42
395.32	4.66
395.528	5.04
395.735	5.03
395.943	5.07
396.15	5.2
396.358	5.4
396.565	6.2
396.773	6.46
396.98	6.86
397.188	6.67
397.395	6.78
397.602	6.75
397.81	6.6
398.017	6.73
398.225	6.76
398.432	6.05
398.639	5.94
398.847	5.65
399.054	5.43
399.261	4.99
399.468	5.12
399.676	4.71
399.883	4.2
400.09	4.16
400.297	3.98
400.505	4.15
400.712	4.7
400.919	4.64
401.126	4.31
401.333	4.59
401.54	4.58
401.748	4.85
401.955	4.96
402.162	4.86
402.369	5.12
402.576	4.94
402.783	4.74
402.99	4.49
403.197	4.36
403.404	4.28
403.611	4.13
403.818	4.4
404.025	4.37
404.232	4.52
404.439	4.95
404.646	4.62
404.853	4.78
405.06	4.85
405.267	4.81
405.474	4.82
405.681	5
405.887	4.91
406.094	4.88
406.301	4.79
406.508	4.52
406.715	4.53
406.922	4.75
407.128	4.86
407.335	4.96
407.542	5.26
407.749	5.15
407.955	4.93
408.162	4.9
408.369	4.92
408.575	4.48
408.782	5.04
408.989	4.92
409.195	5.01
409.402	4.99
409.609	4.78
409.815	4.89
410.022	4.78
410.228	4.84
410.435	5.1
410.642	5.1
410.848	5.4
411.055	5.06
411.261	5.05
411.468	5.02
411.674	5
411.881	5.09
412.087	5.04
412.294	5.29
412.5	5.33
412.706	5.38
412.913	5.36
413.119	5.62
413.326	5.55
413.532	5.42
413.738	5.18
413.945	5.05
414.151	5.16
414.357	5.13
414.564	4.89
414.77	4.89
414.976	4.59
415.182	4.22
415.389	3.86
415.595	3.96
415.801	4.15
416.007	4.31
416.214	4.45
416.42	4.44
416.626	4.53
416.832	4.71
417.038	4.74
417.244	4.84
417.45	5.09
417.657	5.23
417.863	4.93
418.069	4.76
418.275	4.61
418.481	4.54
418.687	4.45
418.893	4.32
419.099	4.36
419.305	4.3
419.511	4.13
419.717	4.41
419.923	4.4
420.129	4.59
420.335	4.55
420.541	4.5
420.746	4.63
420.952	4.7
421.158	4.63
421.364	4.52
421.57	4.43
421.776	4.54
421.982	4.3
422.187	4.19
422.393	4.2
422.599	4.31
422.805	4.37
423.01	4.31
423.216	4.1
423.422	4.1
423.628	4.13
423.833	4.28
424.039	4.11
424.245	4.01
424.45	4.1
424.656	4.16
424.862	4.25
425.067	4.32
425.273	4.26
425.478	4.33
425.684	4.32
425.889	4.4
426.095	4.33
426.301	4.47
426.506	4.58
426.712	4.52
426.917	4.51
427.123	4.29
427.328	4.22
427.533	4.05
427.739	4.15
427.944	4.39
428.15	4.3
428.355	4.1
428.561	4.17
428.766	4.3
428.971	4.35
429.177	4.24
429.382	4.31
429.587	4.25
429.793	4.63
429.998	4.46
430.203	4.29
430.408	4.29
430.614	4.43
430.819	4.36
431.024	4.41
431.229	4.21
431.434	4.34
431.64	4.18
431.845	4.06
432.05	3.47
432.255	3.68
432.46	3.57
432.665	3.61
432.87	3.81
433.076	4.02
433.281	3.86
433.486	4.03
433.691	3.75
433.896	3.93
434.101	4.18
434.306	4.55
434.511	4.66
434.716	4.74
434.921	4.64
435.126	4.57
435.331	4.42
435.535	4.24
435.74	3.97
435.945	4.01
436.15	3.92
436.355	3.84
436.56	3.9
436.765	3.7
436.97	3.67
437.174	3.94
437.379	3.96
437.584	4.05
437.789	4.27
437.993	4.64
438.198	4.65
438.403	4.8
438.608	4.7
438.812	4.53
439.017	4.46
439.222	4.38
439.426	4.22
439.631	4.23
439.836	4.25
440.04	4.22
440.245	4.12
440.45	4.17
440.654	4
440.859	4
441.063	4.17
441.268	4.1
441.472	4.06
441.677	4.1
441.881	3.97
442.086	3.9
442.29	3.76
442.495	3.71
442.699	3.58
442.904	3.6
443.108	3.68
443.312	3.46
443.517	3.5
443.721	3.68
443.925	3.83
444.13	3.88
444.334	3.8
444.538	3.9
444.743	3.97
444.947	4.1
445.151	4.12
445.356	4.05
445.56	4.08
445.764	4.11
445.968	4.07
446.173	3.94
446.377	3.88
446.581	3.95
446.785	3.98
446.989	3.98
447.193	3.88
447.398	3.79
447.602	3.78
447.806	3.75
448.01	3.77
448.214	3.89
448.418	3.79
448.622	3.85
448.826	3.83
449.03	3.67
449.234	3.56
449.438	3.63
449.642	3.55
449.846	3.58
450.05	3.79
450.254	3.86
450.458	3.74
450.662	3.92
450.866	3.84
451.069	3.86
451.273	4.1
451.477	4.2
451.681	4.2
451.885	4.43
452.089	4.63
452.292	4.36
452.496	4.44
452.7	4.33
452.904	4.26
453.107	4.31
453.311	4.36
453.515	4.28
453.719	4.18
453.922	4.27
454.126	4.23
454.33	4
454.533	3.98
454.737	3.81
454.94	3.92
455.144	3.89
455.348	3.92
455.551	4.01
455.755	4.03
455.958	4.34
456.162	4.36
456.365	4.3
456.569	4.14
456.772	4.13
456.976	4.08
457.179	3.96
457.383	3.99
457.586	3.9
457.79	3.71
457.993	3.75
458.196	3.51
458.4	3.46
458.603	3.44
458.807	3.4
459.01	3.66
459.213	3.68
459.417	3.83
459.62	3.8
459.823	3.95
460.026	3.97
460.23	3.94
460.433	3.94
460.636	3.96
460.839	4.13
461.042	4.42
461.246	4.31
461.449	4.32
461.652	4.24
461.855	4.28
462.058	4.14
462.261	4.11
462.464	4.17
462.668	4.26
462.871	4.2
463.074	4.21
463.277	4.17
463.48	3.86
463.683	3.96
463.886	3.87
464.089	3.78
464.292	3.77
464.495	3.65
464.698	3.62
464.901	3.54
465.104	3.64
465.306	3.51
465.509	3.33
465.712	3.76
465.915	3.55
466.118	3.61
466.321	3.83
466.524	3.93
466.726	4.01
466.929	3.91
467.132	3.96
467.335	3.88
467.538	3.81
467.74	3.76
467.943	3.71
468.146	3.92
468.348	3.82
468.551	3.67
468.754	3.59
468.956	3.52
469.159	3.47
469.362	3.24
469.564	3.17
469.767	3.12
469.969	3.41
470.172	3.52
470.375	3.32
470.577	3.44
470.78	3.37
470.982	3.37
471.185	3.48
471.387	3.51
471.59	3.63
471.792	3.77
471.995	3.82
472.197	3.43
472.399	3.34
472.602	3.5
472.804	3.54
473.007	3.52
473.209	3.8
473.411	3.83
473.614	3.91
473.816	3.96
474.018	3.62
474.22	3.68
474.423	3.77
474.625	3.8
474.827	3.68
475.03	3.93
475.232	4.07
475.434	3.78
475.636	3.71
475.838	3.71
476.04	3.87
476.243	4.37
476.445	4.43
476.647	4.47
476.849	4.23
477.051	4.35
477.253	3.99
477.455	3.99
477.657	4.01
477.859	3.87
478.061	3.97
478.263	3.72
478.465	3.57
478.667	3.36
478.869	3.4
479.071	3.57
479.273	3.62
479.475	3.73
479.677	3.72
479.879	3.8
480.081	4.02
480.283	3.76
480.485	3.85
480.686	3.76
480.888	3.94
481.09	3.87
481.292	3.93
481.494	3.84
481.695	3.81
481.897	3.9
482.099	3.87
482.301	3.95
482.502	3.99
482.704	3.99
482.906	4.05
483.107	4
483.309	4.01
483.511	3.96
483.712	3.97
483.914	3.97
484.115	3.9
484.317	3.85
484.519	3.82
484.72	3.89
484.922	3.84
485.123	3.78
485.325	3.77
485.526	3.72
485.728	3.74
485.929	3.74
486.131	3.75
486.332	3.77
486.534	3.8
486.735	3.81
486.936	3.72
487.138	3.86
487.339	3.92
487.541	3.89
487.742	3.91
487.943	3.92
488.144	3.86
488.346	3.86
488.547	3.79
488.748	3.78
488.95	3.74
489.151	3.81
489.352	3.78
489.553	3.74
489.755	3.68
489.956	3.78
490.157	3.82
490.358	3.81
490.559	3.8
490.76	4.01
490.961	3.99
491.163	3.9
491.364	3.84
491.565	3.7
491.766	3.74
491.967	3.78
492.168	3.78
492.369	3.71
492.57	3.71
492.771	3.66
492.972	3.53
493.173	3.56
493.374	3.62
493.575	3.6
493.776	3.68
493.976	3.58
494.177	3.6
494.378	3.59
494.579	3.5
494.78	3.61
494.981	3.69
495.182	3.7
495.382	3.6
495.583	3.59
495.784	3.49
495.985	3.47
496.185	3.52
496.386	3.63
496.587	3.61
496.788	3.69
496.988	3.62
497.189	3.55
497.39	3.58
497.59	3.76
497.791	3.77
497.992	3.79
498.192	3.84
498.393	3.88
498.593	3.75
498.794	3.83
498.994	3.91
499.195	4.03
499.395	4.13
499.596	4.08
499.796	3.98
499.997	4.13
500.197	4.22
500.398	4.17
500.598	4.15
500.799	4.28
500.999	4.09
501.199	4.05
501.4	3.93
501.6	3.98
501.801	4.05
502.001	4.02
502.201	4.08
502.402	4.04
502.602	4.15
502.802	4.08
503.002	4.01
503.203	4.08
503.403	4.03
503.603	3.92
503.803	3.68
504.003	3.72
504.204	3.78
504.404	3.64
504.604	3.8
504.804	3.85
505.004	4.04
505.204	4.12
505.404	4.15
505.604	4.25
505.804	4.43
506.005	4.73
506.205	4.72
506.405	4.78
506.605	4.71
506.805	4.57
507.005	4.42
507.204	4.35
507.404	4.27
507.604	4.31
507.804	4.26
508.004	4.15
508.204	3.96
508.404	4.03
508.604	4.05
508.804	4.06
509.003	4.06
509.203	4.2
509.403	4.27
509.603	4.35
509.803	4.35
510.002	4.38
510.202	4.56
510.402	4.67
510.602	4.73
510.801	4.64
511.001	4.67
511.201	4.8
511.4	4.85
511.6	4.81
511.8	4.7
511.999	4.71
512.199	4.72
512.398	4.63
512.598	4.55
512.797	4.46
512.997	4.49
513.197	4.49
513.396	4.5
513.596	4.33
513.795	4.31
513.994	4.3
514.194	4.24
514.393	4.1
514.593	4.12
514.792	4.15
514.992	3.98
515.191	4.13
515.39	4.29
515.59	4.44
515.789	4.49
515.988	4.43
516.188	4.55
516.387	4.58
516.586	4.7
516.786	4.9
516.985	4.85
517.184	5
517.383	5
517.582	4.93
517.782	4.8
517.981	4.89
518.18	4.96
518.379	5.02
518.578	5.1
518.777	5.16
518.976	5.04
519.176	5.07
519.375	5.04
519.574	5.07
519.773	5.15
519.972	5.1
520.171	5.13
520.37	5.12
520.569	5.11
520.768	5.03
520.967	4.9
521.166	4.76
521.365	4.85
521.564	4.85
521.762	4.66
521.961	4.54
522.16	4.46
522.359	4.36
522.558	4.5
522.757	4.53
522.956	4.68
523.154	4.75
523.353	4.8
523.552	4.79
523.751	4.93
523.949	5.2
524.148	5.42
524.347	5.56
524.546	5.56
524.744	5.48
524.943	5.38
525.142	5.31
525.34	5.33
525.539	5.35
525.737	5.41
525.936	5.38
526.135	5.27
526.333	5.18
526.532	5.22
526.73	5.23
526.929	5.25
527.127	5.38
527.326	5.39
527.524	5.41
527.723	5.46
527.921	5.47
528.12	5.5
528.318	5.54
528.516	5.61
528.715	5.57
528.913	5.61
529.112	5.67
529.31	5.67
529.508	5.67
529.707	5.68
529.905	5.72
530.103	5.67
530.301	5.61
530.5	5.62
530.698	5.53
530.896	5.6
531.094	5.63
531.293	5.62
531.491	5.63
531.689	5.69
531.887	5.75
532.085	5.83
532.283	5.89
532.481	5.98
532.68	5.98
532.878	6
533.076	6.03
533.274	6.09
533.472	6.05
533.67	6.04
533.868	6.09
534.066	6.07
534.264	5.97
534.462	5.99
534.66	5.98
534.858	5.96
535.056	5.97
535.253	5.96
535.451	5.93
535.649	5.92
535.847	6.06
536.045	6.09
536.243	6.21
536.441	6.43
536.638	6.44
536.836	6.62
537.034	6.69
537.232	6.8
537.43	6.79
537.627	6.84
537.825	6.95
538.023	6.93
538.22	6.99
538.418	7.04
538.616	6.93
538.813	7
539.011	6.95
539.209	7.19
539.406	7.24
539.604	7.37
539.801	7.45
539.999	7.49
540.196	7.39
540.394	7.36
540.591	7.23
540.789	7.3
540.986	7.32
541.184	7.25
541.381	7.15
541.579	7.05
541.776	6.97
541.974	7
542.171	6.95
542.368	6.99
542.566	7.05
542.763	7.18
542.96	7.15
543.158	7.19
543.355	7.32
543.552	7.28
543.75	7.48
543.947	7.79
544.144	7.82
544.341	7.94
544.539	8.1
544.736	8.12
544.933	8.14
545.13	8.27
545.327	8.23
545.524	8.24
545.722	8.37
545.919	8.37
546.116	8.27
546.313	8.31
546.51	8.37
546.707	8.4
546.904	8.28
547.101	8.38
547.298	8.4
547.495	8.54
547.692	8.64
547.889	8.78
548.086	8.86
548.283	8.81
548.48	8.88
548.677	8.87
548.874	8.96
549.07	9.19
549.267	9.13
549.464	9.21
549.661	9.34
549.858	9.36
550.055	9.36
550.251	9.45
550.448	9.51
550.645	9.38
550.842	9.54
551.038	9.51
551.235	9.62
551.432	9.74
551.628	9.73
551.825	9.9
552.022	9.97
552.218	10
552.415	9.94
552.612	10.05
552.808	10.24
553.005	10.27
553.201	10.36
553.398	10.42
553.594	10.42
553.791	10.36
553.987	10.32
554.184	10.41
554.38	10.41
554.577	10.64
554.773	10.72
554.97	10.68
555.166	10.77
555.362	11.02
555.559	11.09
555.755	11.26
555.952	11.51
556.148	11.51
556.344	11.6
556.541	11.92
556.737	12.08
556.933	12.32
557.129	12.42
557.326	12.54
557.522	12.52
557.718	12.53
557.914	12.52
558.11	12.78
558.307	12.87
558.503	13.1
558.699	13.17
558.895	13.03
559.091	12.97
559.287	13.19
559.483	13.18
559.679	13.04
559.876	13.26
560.072	13.53
560.268	13.44
560.464	13.63
560.66	13.61
560.856	13.67
561.052	13.78
561.247	13.93
561.443	13.93
561.639	14.08
561.835	14.37
562.031	14.37
562.227	14.39
562.423	14.67
562.619	14.9
562.815	15
563.01	15.03
563.206	15.12
563.402	15.21
563.598	15.41
563.793	15.59
563.989	15.48
564.185	15.58
564.381	15.63
564.576	15.56
564.772	15.35
564.968	15.59
565.163	15.77
565.359	15.86
565.555	15.92
565.75	16.07
565.946	16.06
566.141	16.25
566.337	16.38
566.532	16.38
566.728	16.4
566.923	16.54
567.119	16.45
567.314	16.41
567.51	16.37
567.705	16.39
567.901	16.33
568.096	16.51
568.292	16.51
568.487	16.7
568.682	16.89
568.878	17.21
569.073	17.39
569.268	17.52
569.464	17.73
569.659	17.86
569.854	17.87
570.05	17.9
570.245	17.87
570.44	17.89
570.635	17.72
570.831	17.72
571.026	17.79
571.221	17.71
571.416	17.86
571.611	17.93
571.806	17.93
572.002	18.14
572.197	18.26
572.392	18.31
572.587	18.48
572.782	18.87
572.977	18.99
573.172	18.87
573.367	19.2
573.562	19.14
573.757	19.07
573.952	19.33
574.147	19.34
574.342	19.54
574.537	19.58
574.732	19.59
574.927	19.34
575.121	19.42
575.316	19.6
575.511	19.45
575.706	19.6
575.901	19.83
576.096	19.51
576.29	19.52
576.485	19.41
576.68	19.49
576.875	19.68
577.069	19.88
577.264	19.73
577.459	19.63
577.654	19.55
577.848	19.26
578.043	19.12
578.238	19.6
578.432	19.85
578.627	20.14
578.821	20.05
579.016	19.84
579.21	19.88
579.405	20.09
579.6	20.16
579.794	20.61
579.989	20.93
580.183	20.81
580.378	20.74
580.572	20.76
580.766	20.7
580.961	21.02
581.155	21.04
581.35	20.87
581.544	20.8
581.738	21.26
581.933	21.3
582.127	21.2
582.321	21.4
582.516	21.33
582.71	21.4
582.904	21.63
583.099	21.76
583.293	22.18
583.487	22.39
583.681	22.55
583.875	22.08
584.07	21.83
584.264	22.14
584.458	22.4
584.652	22.78
584.846	22.85
585.04	22.6
585.234	22.53
585.428	22.4
585.623	22.43
585.817	22.58
586.011	22.89
586.205	22.78
586.399	22.82
586.593	22.58
586.787	22.51
586.981	22.44
587.174	22.28
587.368	22.28
587.562	22.48
587.756	22.45
587.95	22.7
588.144	22.51
588.338	22.73
588.532	22.74
588.725	22.81
588.919	22.74
589.113	22.77
589.307	23.2
589.501	23.14
589.694	22.85
589.888	22.92
590.082	22.93
590.275	23.31
590.469	23.2
590.663	23.24
590.856	23.59
591.05	23.55
591.244	23.35
591.437	23.22
591.631	23.27
591.824	23.58
592.018	23.63
592.212	23.43
592.405	23.55
592.599	23.76
592.792	23.73
592.986	23.68
593.179	23.93
593.372	24.11
593.566	24.13
593.759	24.46
593.953	24.28
594.146	24.47
594.339	24.71
594.533	24.42
594.726	24.64
594.92	24.61
595.113	24.56
595.306	24.67
595.499	24.94
595.693	24.88
595.886	24.74
596.079	25.02
596.272	25.1
596.466	25.15
596.659	25.26
596.852	24.99
597.045	25.15
597.238	25.34
597.431	25.35
597.624	25.3
597.818	25.4
598.011	25.31
598.204	25.36
598.397	25.13
598.59	24.89
598.783	24.85
598.976	24.94
599.169	24.86
599.362	24.69
599.555	24.8
599.748	24.74
599.941	24.86
600.134	25.12
600.326	24.97
600.519	25.17
600.712	25.23
600.905	25.16
601.098	25.51
601.291	25.34
601.483	25.3
601.676	25.21
601.869	25.3
602.062	25.34
602.255	25.27
602.447	25.11
602.64	25.02
602.833	25.07
603.025	25.17
603.218	25.01
603.411	25.23
603.603	25.56
603.796	25.61
603.989	25.62
604.181	25.58
604.374	25.61
604.566	25.59
604.759	25.69
604.951	25.67
605.144	25.7
605.336	25.87
605.529	26.01
605.721	25.92
605.914	26.14
606.106	26.24
606.299	26.37
606.491	26.5
606.683	26.98
606.876	26.9
607.068	27.09
607.26	27.23
607.453	27.22
607.645	26.99
607.837	26.92
608.03	26.32
608.222	26.35
608.414	26.22
608.606	26.28
608.799	26.22
608.991	26.32
609.183	26.14
609.375	26.25
609.567	26.1
609.759	26.17
609.952	26.11
610.144	26.25
610.336	26.09
610.528	25.93
610.72	25.9
610.912	25.78
611.104	25.91
611.296	25.97
611.488	25.88
611.68	25.92
611.872	26.11
612.064	26.08
612.256	25.99
612.448	25.99
612.64	26.15
612.832	26.11
613.023	26.19
613.215	26.28
613.407	26.61
613.599	26.38
613.791	26.29
613.983	26.12
614.174	26.28
614.366	26.61
614.558	26.9
614.75	26.89
614.941	26.91
615.133	26.77
615.325	26.44
615.516	26.3
615.708	26.56
615.9	27.05
616.091	27.1
616.283	27.3
616.475	27.28
616.666	27.31
616.858	27.53
617.049	27.35
617.241	27.56
617.432	27.75
617.624	27.88
617.815	27.66
618.007	27.15
618.198	26.97
618.39	26.83
618.581	26.85
618.773	26.8
618.964	26.98
619.155	26.9
619.347	26.63
619.538	26.8
619.729	26.65
619.921	26.75
620.112	27.11
620.303	27.36
620.494	27.32
620.686	27.32
620.877	27.21
621.068	26.84
621.259	27.28
621.451	27.38
621.642	26.86
621.833	26.83
622.024	26.8
622.215	26.84
622.406	26.77
622.597	26.43
622.788	26.57
622.98	26.71
623.171	26.86
623.362	26.88
623.553	26.66
623.744	26.85
623.935	26.94
624.126	27.41
624.317	27.6
624.508	27.48
624.698	27.87
624.889	28.11
625.08	28.11
625.271	28.16
625.462	27.9
625.653	28.15
625.844	28.28
626.034	28.27
626.225	28.11
626.416	27.96
626.607	27.99
626.798	27.86
626.988	27.67
627.179	27.66
627.37	27.64
627.56	27.69
627.751	27.75
627.942	27.67
628.132	27.67
628.323	27.78
628.514	27.69
628.704	27.84
628.895	27.92
629.085	27.88
629.276	27.91
629.466	27.88
629.657	27.89
629.847	28
630.038	28.24
630.228	28.08
630.419	27.76
630.609	27.77
630.8	27.76
630.99	27.69
631.181	27.71
631.371	27.61
631.561	27.79
631.752	28.01
631.942	28.05
632.132	27.96
632.323	28.45
632.513	28.86
632.703	28.94
632.893	29
633.084	29.13
633.274	29.28
633.464	29.28
633.654	29.32
633.844	29.04
634.034	28.95
634.225	29.1
634.415	28.69
634.605	28.37
634.795	28.33
634.985	28.37
635.175	28.4
635.365	28.12
635.555	28.38
635.745	28.54
635.935	28.63
636.125	28.63
636.315	28.31
636.505	28.3
636.695	28.48
636.885	28.79
637.075	28.74
637.265	29.36
637.455	29.32
637.644	28.99
637.834	28.57
638.024	28.76
638.214	28.89
638.404	28.84
638.593	29.37
638.783	29.13
638.973	28.86
639.163	28.59
639.352	27.9
639.542	28.33
639.732	28.51
639.921	28.83
640.111	28.92
640.301	29.12
640.49	29.29
640.68	29.12
640.87	29.49
641.059	29.52
641.249	30.04
641.438	30.39
641.628	30.52
641.817	30.49
642.007	30.51
642.196	30.07
642.386	29.59
642.575	30.24
642.764	30.37
642.954	30.33
643.143	30.69
643.333	30.58
643.522	30.31
643.711	29.91
643.901	29.96
644.09	29.76
644.279	29.9
644.469	29.93
644.658	29.5
644.847	29.44
645.036	29.77
645.226	29.49
645.415	29.67
645.604	29.18
645.793	29.17
645.982	29.23
646.171	29.26
646.361	29.7
646.55	29.78
646.739	29.8
646.928	29.53
647.117	29.26
647.306	29.28
647.495	28.89
647.684	29.44
647.873	29.6
648.062	29.58
648.251	29.62
648.44	29.26
648.629	28.99
648.818	29.28
649.007	29.43
649.196	29.27
649.384	28.92
649.573	28.94
649.762	28.41
649.951	28.23
650.14	28.23
650.328	28.08
650.517	27.94
650.706	28.34
650.895	27.89
651.083	28.21
651.272	28.32
651.461	28.27
651.65	28.23
651.838	28.51
652.027	28.75
652.216	28.62
652.404	28.8
652.593	28.91
652.781	28.98
652.97	29.02
653.158	28.66
653.347	28.79
653.535	29.02
653.724	29.6
653.912	29.82
654.101	29.89
654.289	30.16
654.478	30.19
654.666	30.26
654.855	30.27
655.043	29.85
655.231	30.16
655.42	29.78
655.608	30.14
655.796	29.84
655.985	29.86
656.173	30.15
656.361	30.09
656.55	29.93
656.738	30.13
656.926	30.18
657.114	30.9
657.302	30.69
657.491	31.05
657.679	31.11
657.867	31.23
658.055	31.1
658.243	30.72
658.431	31.03
658.619	31.32
658.807	31.26
658.996	31.18
659.184	31.41
659.372	31.44
659.56	31.12
659.748	30.97
659.936	30.79
660.124	30.86
660.311	30.87
660.499	30.31
660.687	30.27
660.875	30.8
661.063	30.64
661.251	30.4
661.439	30.42
661.627	30.81
661.814	30.7
662.002	30.36
662.19	30.19
662.378	30.19
662.565	30.6
662.753	30.92
662.941	30.34
663.129	30.38
663.316	30.22
663.504	30.08
663.692	29.93
663.879	29.99
664.067	30.14
664.254	30.07
664.442	30.2
664.63	29.39
664.817	28.7
665.005	28.54
665.192	28.7
665.38	28.82
665.567	29.37
665.755	29.23
665.942	29.37
666.13	29.82
666.317	30.18
666.504	29.92
666.692	30.68
666.879	30.85
667.067	30.7
667.254	30.59
667.441	30.5
667.629	29.72
667.816	29.75
668.003	29.97
668.19	30.22
668.378	30.24
668.565	30.42
668.752	30.32
668.939	30.38
669.127	30.39
669.314	30.53
669.501	30.57
669.688	30.76
669.875	30.84
670.062	30.45
670.249	30.06
670.436	29.87
670.623	29.83
670.81	29.78
670.997	29.72
671.184	30.19
671.371	30.13
671.558	29.99
671.745	30.5
671.932	30.38
672.119	31.11
672.306	31.04
672.493	30.83
672.68	30.56
672.867	30.83
673.054	31.07
673.24	31.05
673.427	30.88
673.614	30.85
673.801	30.29
673.988	30.87
674.174	30.45
674.361	30.1
674.548	30.97
674.734	31.59
674.921	31.47
675.108	31.12
675.294	30.95
675.481	31.13
675.668	31.25
675.854	31.53
676.041	31.03
676.227	30.97
676.414	31.76
676.601	31.39
676.787	31.01
676.974	31
677.16	31.36
677.347	30.82
677.533	30.84
677.719	30.59
677.906	30.7
678.092	30.88
678.279	30.58
678.465	30.08
678.651	29.8
678.838	29.87
679.024	29.63
679.21	29.28
679.397	30.06
679.583	30.33
679.769	30.32
679.955	30.42
680.142	30.29
680.328	30.54
680.514	30.67
680.7	30.39
680.886	30.57
681.073	30.77
681.259	31.49
681.445	31.28
681.631	31.24
681.817	31.54
682.003	30.99
682.189	31.11
682.375	31.08
682.561	31.2
682.747	31.48
682.933	31.5
683.119	31.31
683.305	30.79
683.491	30.56
683.677	30.53
683.863	30.26
684.049	30.41
684.235	30.45
684.42	30.14
684.606	30.35
684.792	30.42
684.978	30.02
685.164	30.02
685.349	29.84
685.535	29.65
685.721	29.42
685.907	29.43
686.092	30.04
686.278	29.47
686.464	29.94
686.649	29.96
686.835	30.14
687.021	29.84
687.206	30.13
687.392	30.41
687.577	30.7
687.763	31.42
687.948	31.91
688.134	31.47
688.319	31.97
688.505	31.56
688.69	31.41
688.876	31.31
689.061	32.04
689.247	32.26
689.432	32.45
689.618	32.97
689.803	32.58
689.988	32.66
690.174	32.83
690.359	32.63
690.544	33.05
690.73	33.22
690.915	33.49
691.1	32.89
691.285	32.6
691.471	31.96
691.656	31.65
691.841	31.62
692.026	31.16
692.211	31.26
692.396	32
692.582	31.6
692.767	31.57
692.952	31.84
693.137	32.56
693.322	32.72
693.507	32.96
693.692	32.85
693.877	32.75
694.062	32.73
694.247	32.91
694.432	32.33
694.617	32.58
694.802	32.76
694.987	32.17
695.172	32.24
695.357	31.96
695.541	31.76
695.726	32.09
695.911	31.99
696.096	32.47
696.281	32.26
696.466	32.25
696.65	31.9
696.835	31.28
697.02	31.57
697.204	31.63
697.389	31.51
697.574	32.18
697.759	31.95
697.943	31.93
698.128	31.64
698.312	31.42
698.497	31.27
698.682	31.45
698.866	31.86
699.051	31.67
699.235	31.23
699.42	31.39
699.604	31.23
699.789	31.43
699.973	31.24
700.158	31.22
700.342	31.59
700.527	31.77
700.711	31.97
700.895	31.51
701.08	31.73
701.264	31.59
701.448	31.28
701.633	31.03
701.817	30.83
702.001	31.3
702.186	31.38
702.37	31.49
702.554	31.91
702.738	31.97
702.923	32.54
703.107	32.19
703.291	32.64
703.475	33.06
703.659	33.51
703.843	33.4
704.027	33.26
704.212	32.79
704.396	32.71
704.58	32.75
704.764	33.08
704.948	33.06
705.132	34.02
705.316	34.27
705.5	34.25
705.684	33.71
705.868	34.16
706.052	34.17
706.235	34.63
706.419	34.23
706.603	32.84
706.787	32.33
706.971	31.5
707.155	30.28
707.339	29.96
707.522	30.12
707.706	29.68
707.89	28.51
708.074	28.52
708.257	28.88
708.441	28.53
708.625	29.72
708.808	29.91
708.992	30.37
709.176	30.84
709.359	31.56
709.543	31.72
709.727	32.34
709.91	33.62
710.094	33.63
710.277	33.77
710.461	33.97
710.644	34.54
710.828	34.46
711.011	34.34
711.195	34.4
711.378	33.96
711.562	33.61
711.745	33.82
711.928	33.36
712.112	32.77
712.295	31.78
712.478	31.86
712.662	31.14
712.845	31.3
713.028	31.91
713.212	31.95
713.395	32.71
713.578	32.52
713.761	32.48
713.945	32.51
714.128	33.09
714.311	33.65
714.494	33.83
714.677	33.99
714.86	33.07
715.043	33.22
715.227	32.81
715.41	32.32
715.593	32.5
715.776	31.72
715.959	31.35
716.142	31.05
716.325	30.88
716.508	30.54
716.691	30.09
716.874	31.36
717.057	30.82
717.239	31.86
717.422	31.39
717.605	31.88
717.788	32.12
717.971	32.71
718.154	32.99
718.337	32.51
718.519	32.41
718.702	32.69
718.885	31.51
719.068	30.9
719.25	30.05
719.433	30.94
719.616	30.55
719.798	31.11
719.981	30.21
720.164	29.03
720.346	30.35
720.529	31.25
720.712	31.03
720.894	32.35
721.077	32.84
721.259	33.49
721.442	32.6
721.624	33.09
721.807	32.62
721.989	32.57
722.172	33.61
722.354	33.6
722.537	33.94
722.719	34.2
722.901	34.47
723.084	34.61
723.266	33.5
723.448	33.58
723.631	33.35
723.813	33.1
723.995	34.44
724.178	35.12
724.36	34.34
724.542	32.92
724.724	32.91
724.907	31.53
725.089	32.44
725.271	32.56
725.453	33.17
725.635	33.2
725.817	33.18
725.999	32.55
726.181	32.02
726.364	32.7
726.546	33.41
726.728	33.27
726.91	33.97
727.092	32.83
727.274	33.67
727.456	34.27
727.638	33.84
727.819	34.48
728.001	34.32
728.183	34.58
728.365	34.75
728.547	35.56
728.729	35.97
728.911	35.18
729.093	34.84
729.274	34.74
729.456	34.19
729.638	34.24
729.82	34.82
730.001	34.39
730.183	34.4
730.365	33.87
730.546	33.31
730.728	33.1
730.91	33.97
731.091	34.39
731.273	34.03
731.455	32.82
731.636	33.15
731.818	32.26
731.999	33.29
732.181	33.7
732.362	33.45
732.544	32.32
732.725	32.24
732.907	31.76
733.088	32.04
733.27	32.16
733.451	32.66
733.633	32.67
733.814	32.66
733.995	32.58
734.177	31.99
734.358	32.62
734.539	33.11
734.721	33.73
734.902	33.67
735.083	32.92
735.264	33.64
735.446	34.92
735.627	35.26
735.808	35.95
735.989	34.29
736.17	34.3
736.351	34.2
736.533	35.08
736.714	34.41
736.895	34.98
737.076	35.56
737.257	34.82
737.438	33.52
737.619	33.37
737.8	32.9
737.981	33.59
738.162	33.86
738.343	32.56
738.524	33.61
738.705	33.43
738.886	32.32
739.067	32.31
739.247	32.8
739.428	32.76
739.609	33.39
739.79	33.46
739.971	34.43
740.151	34.06
740.332	34.86
740.513	32.82
740.694	33.18
740.874	33.75
741.055	33.58
741.236	33.94
741.417	35.13
741.597	34.26
741.778	33.47
741.958	33.34
742.139	33.78
742.32	33.98
742.5	34.76
742.681	34.41
742.861	33.99
743.042	34.27
743.222	31.92
743.403	30.23
743.583	29.41
743.764	31.17
743.944	30.38
744.124	31.12
744.305	31.69
744.485	32.5
744.666	31.82
744.846	31.65
745.026	30.97
745.207	32.4
745.387	33.53
745.567	33.71
745.747	34.25
745.928	34.68
746.108	33.21
746.288	33.28
746.468	31.8
746.648	33.41
746.829	35.06
747.009	35.81
747.189	35.56
747.369	35.36
747.549	35.62
747.729	32.95
747.909	31.55
748.089	32.87
748.269	31.36
748.449	31.93
748.629	30.86
748.809	30.73
748.989	29.91
749.169	30.63
749.349	29.69
749.529	29.05
749.709	30.12
749.889	30.7
750.068	29.88
750.248	31.05
750.428	31.12
750.608	31.38
750.788	30.96
750.967	32.13
751.147	31.99
751.327	33.23
751.507	33.2
751.686	33.64
751.866	35.54
752.046	34.72
752.225	33.86
752.405	34.11
752.585	33.95
752.764	33.62
752.944	32.86
753.123	32.27
753.303	32.02
753.482	32.64
753.662	32.44
753.841	32.48
754.021	33.27
754.2	34.49
754.38	34.07
754.559	33.75
754.739	33.01
754.918	34.49
755.097	34.46
755.277	33.71
755.456	34.23
755.635	34.06
755.815	33.6
755.994	33.16
756.173	32.09
756.352	32.67
756.532	33.68
756.711	34.48
756.89	32.93
757.069	32.7
757.248	33.24
757.427	33.49
757.607	33.9
757.786	33.07
757.965	33.79
758.144	33.84
758.323	33.08
758.502	31.92
758.681	32.65
758.86	32.86
759.039	33.68
759.218	32.85
759.397	32.89
759.576	31.83
759.755	31.52
759.934	31.9
760.113	33.06
760.291	33.32
760.47	33.78
760.649	33.93
760.828	33.89
761.007	32.77
761.186	34.02
761.364	33.64
761.543	34.02
761.722	34.43
761.901	33.04
762.079	33.14
762.258	33.15
762.437	32.96
762.615	32.07
762.794	32.18
762.972	32.96
763.151	33.32
763.33	33.68
763.508	33.96
763.687	33.56
763.865	33.52
764.044	33.37
764.222	33.66
764.401	34.28
764.579	34.49
764.758	35.48
764.936	34.77
765.114	34.36
765.293	34.13
765.471	34.02
765.65	34.6
765.828	34.9
766.006	34.03
766.184	32.95
766.363	31.86
766.541	32.04
766.719	30.12
766.898	30.75
767.076	30.52
767.254	29.91
767.432	29.19
767.61	30.32
767.788	30.64
767.967	30.63
768.145	29.99
768.323	31.01
768.501	29.88
768.679	30.43
768.857	29.7
769.035	29.05
769.213	29.02
769.391	29.41
769.569	28.01
769.747	28.52
769.925	29.33
770.103	30.86
770.281	31.14
770.459	31.42
770.636	33
770.814	34.02
770.992	34.56
771.17	34.14
771.348	35.41
771.525	35.23
771.703	34.17
771.881	33.72
772.059	34.3
772.236	32.98
772.414	32.34
772.592	31.08
772.769	31.53
772.947	33.9
773.125	35.95
773.302	33.96
773.48	34.47
773.657	36.47
773.835	35.86
774.013	33.86
774.19	34.49
774.368	33.77
774.545	31.62
774.723	31.41
774.9	28.72
775.077	26.61
775.255	28.84
775.432	29.77
775.61	28.02
775.787	29.15
775.964	31.47
776.142	33.71
776.319	35.06
776.496	35.43
776.674	35.07
776.851	35.54
777.028	35.2
777.205	34.82
777.382	34.71
777.56	34.3
777.737	33.61
777.914	32.61
778.091	29.27
778.268	30.62
778.445	33.29
778.622	34.66
778.8	33.96
778.977	34.43
779.154	33.84
779.331	30.5
779.508	30.65
779.685	27.21
779.862	27.21
780.038	29.46
780.215	26.63
780.392	26.27
780.569	24.55
780.746	24.32
780.923	26.2
781.1	25
781.277	28.58
781.453	28.99
781.63	31.82
781.807	31.4
781.984	29.18
782.16	31.89
782.337	31.9
782.514	31.36
782.691	32.54
782.867	30.6
783.044	32.51
783.221	33
783.397	33.57
783.574	35.77
783.75	37.34
783.927	39.02
784.103	39.04
784.28	36.74
784.456	37.71
784.633	37.14
784.809	38.17
784.986	36.66
785.162	32.71
785.339	32.01
785.515	29.24
785.692	29.24
785.868	27.46
786.044	28.31
786.221	30.77
786.397	29.31
786.573	29.76
786.749	29.54
786.926	29.18
787.102	29.19
787.278	29.88
787.454	30.56
787.631	30.78
787.807	31.82
787.983	31.94
788.159	32.5
788.335	32.76
788.511	35.3
788.687	34.42
788.863	35.04
789.039	37
789.216	36.22
789.392	36.16
789.568	35.09
789.744	34.92
789.919	33.51
790.095	29.38
790.271	31.01
790.447	29.21
790.623	29.2
790.799	30.06
790.975	29.25
791.151	30.84
791.327	29.46
791.502	29.51
791.678	26.31
791.854	24.67
792.03	27.04
792.205	29.72
792.381	28.13
792.557	25.92
792.733	25.17
792.908	26.22
793.084	25.67
793.259	28.32
793.435	29
793.611	32.71
793.786	34.54
793.962	38.14
794.137	36.99
794.313	38.04
794.488	40.81
794.664	42.59
794.839	41.36
795.015	41.54
795.19	40.46
795.366	39.18
795.541	34.6
795.716	35.35
795.892	32.13
796.067	29.71
796.242	28.07
796.418	26.76
796.593	24.82
796.768	26.39
796.944	26.5
797.119	25.21
797.294	25.46
797.469	30.24
797.644	28.81
797.82	34.03
797.995	34.44
798.17	34.26
798.345	34.35
798.52	37.27
798.695	33.4
798.87	31.72
799.045	31.65
799.22	31.99
799.395	28.44
799.57	31.03
799.745	27.89
799.92	27.22
800.095	30.61
800.27	33.42
800.445	34.13
800.62	36.35
800.795	37.24
800.97	39.42
801.145	40.74
801.319	42.25
801.494	38.42
801.669	38.06
801.844	40.37
802.018	38.88
802.193	40.55
802.368	38.41
802.543	38.37
802.717	37.6
802.892	37
803.067	34.81
803.241	35.09
803.416	36.74
803.59	36
803.765	32.25
803.94	36.87
804.114	36.75
804.289	35.09
804.463	36.45
804.638	35.56
804.812	33.98
804.986	33.26
805.161	32.45
805.335	32.11
805.51	32.33
805.684	34.39
805.858	32.16
806.033	29.96
806.207	29.82
806.381	31.87
806.556	33.93
806.73	37.77
806.904	37.13
807.078	36.3
807.253	36.76
807.427	35.68
807.601	33.58
807.775	28.92
807.949	30.16
808.123	25.75
808.298	19.11
808.472	17.74
808.646	17.22
808.82	20.38
808.994	24.6
809.168	25.62
809.342	30.45
809.516	33.2
809.69	33.12
809.864	33.44
810.038	35.71
810.212	40.68
810.385	40.28
810.559	40.32
810.733	41
810.907	33.26
811.081	31.72
811.255	30.07
811.428	27.93
811.602	28.99
811.776	29.32
811.95	34.26
812.123	34.37
812.297	32.86
812.471	33.2
812.644	33.01
812.818	37.48
812.992	40.96
813.165	38.33
813.339	42.04
813.512	45.01
813.686	39.99
813.86	40.61
814.033	40.63
814.207	40.84
814.38	40.49
814.554	38.88
814.727	37.57
814.9	34.78
815.074	35.36
815.247	30.88
815.421	31.11
815.594	32.43
815.767	28.04
815.941	25.28
816.114	28.41
816.287	25.64
816.46	26.31
816.634	23.97
816.807	21.14
816.98	21.7
817.153	21.92
817.327	21.99
817.5	17.01
817.673	16.01
817.846	20.5
818.019	20.34
818.192	23.22
818.365	25.69
818.538	25.37
818.711	28.89
818.884	30.26
819.057	32.13
819.23	33.2
819.403	37.63
819.576	40.21
819.749	37.68
819.922	40.48
820.095	40.8
820.268	39.1
820.441	39.82
820.614	38.03
820.786	37.41
820.959	38.73
821.132	37.52
821.305	38.26
821.477	37.58
821.65	36.25
821.823	34.29
821.996	33.73
822.168	33.55
822.341	33.62
822.514	34.21
822.686	34.15
822.859	33.61
823.031	34.12
823.204	34
823.376	33.99
823.549	33.97
823.722	34.58
823.894	34.76
824.067	34.81
824.239	35.6
824.411	35.55
824.584	35.19
824.756	35.16
824.929	35.55
825.101	34.84
825.273	34.44
825.446	34.98
825.618	34.62
825.79	34.7
825.963	34.67
826.135	33.62
826.307	33.65
826.479	33.96
826.652	33.69
826.824	32.17
826.996	31.73
827.168	31.95
827.34	31.5
827.512	31.9
827.684	31.28
827.856	32.51
828.029	32.2
828.201	31
828.373	32.14
828.545	31.33
828.717	30.97
828.889	34.02
829.061	34.73
829.232	36.55
829.404	36
829.576	36.93
829.748	35.07
829.92	37.63
830.092	41.45
830.264	40.84
830.436	41.32
830.607	41.9
830.779	38.07
830.951	36.13
831.123	35.66
831.294	34.27
831.466	36.94
831.638	39.14
831.809	37.2
831.981	33.37
832.153	32.11
832.324	32.83
832.496	34.88
832.667	37.84
832.839	39.46
833.011	39.68
833.182	40.63
833.354	39.26
833.525	37.59
833.697	41.98
833.868	44.17
834.039	43.39
834.211	44.88
834.382	46.15
834.554	44.49
834.725	42.36
834.896	43.13
835.068	43.09
835.239	41.06
835.41	42.18
835.581	36.77
835.753	34.21
835.924	36.89
836.095	37.91
836.266	36.51
836.438	35.73
836.609	35.31
836.78	32.85
836.951	35.64
837.122	34.82
837.293	34.21
837.464	35.37
837.635	38.75
837.806	34.35
837.977	33.01
838.148	26.47
838.319	28.1
838.49	32.08
838.661	33.73
838.832	33.66
839.003	39.55
839.174	37.9
839.345	40.01
839.516	35.46
839.687	35.25
839.857	35.75
840.028	39.74
840.199	40.28
840.37	33.58
840.54	33.89
840.711	32.04
840.882	26.74
841.053	28.73
841.223	24.73
841.394	23.18
841.564	20.19
841.735	17.07
841.906	19.14
842.076	17.17
842.247	21.56
842.417	15.92
842.588	13.83
842.758	12.22
842.929	-2.14
843.099	-3.1
843.27	0.21
843.44	7.67
843.611	6.62
843.781	14.66
843.951	9.56
844.122	4.53
844.292	11.43
844.462	4.44
844.633	13.42
844.803	32.24
844.973	45.72
845.144	49.9
845.314	51.83
845.484	60.96
845.654	49.34
845.824	52.82
845.995	55.98
846.165	53.73
846.335	64.24
846.505	58.33
846.675	50.8
846.845	47.35
847.015	37.27
847.185	31.76
847.355	26.67
847.525	27.14
847.695	26.49
847.865	26.93
848.035	26.96
848.205	21.44
848.375	19.74
848.545	23.6
848.715	18.49
848.884	27.61
849.054	28.57
849.224	32.87
849.394	26.71
849.564	28.97
849.733	30.75
849.903	49.31
850.073	46.57
850.243	57.06
850.412	43.75
850.582	39
850.752	37.72
850.921	23.18
851.091	21.86
851.26	31.5
851.43	30.06
851.599	29.76
851.769	19.42
851.939	22.46
852.108	27.25
852.278	35.76
852.447	43.75
852.616	41.3
852.786	47.34
852.955	51.98
853.125	52.46
853.294	43.6
853.463	55.49
853.633	52.83
853.802	55.44
853.971	55.93
854.141	57.76
854.31	50.89
854.479	56.48
854.648	58.43
854.818	42.56
854.987	41.06
855.156	45.66
855.325	22.11
855.494	2.15
855.663	4.8
855.832	-12.56
856.001	-20.01
856.171	-30.72
856.34	-50.95
856.509	-67.41
856.678	-30.81
856.847	-9.35
857.016	-11.57
857.185	7.7
857.353	13.92
857.522	32.87
857.691	57.38
857.86	68.15
858.029	82.66
858.198	93.23
858.367	89.98
858.535	86.35
858.704	84.77
858.873	107.89
859.042	129.64
859.21	123.01
859.379	105.36
859.548	89.47
859.717	68.24
859.885	43.03
860.054	43.3
860.222	28.29
860.391	24.52
860.56	18.18
860.728	7.97
860.897	14.04
861.065	5.54
861.234	13.21
861.402	10.64
861.571	17.18
861.739	36.3
861.908	41.25
862.076	53.02
862.244	52.73
862.413	51.19
862.581	61.63
862.749	52.46
862.918	92.58
863.086	59.63
863.254	80.04
863.423	92.59
863.591	74.84
863.759	74.59
863.927	34.98
864.096	57.85
864.264	55.71
864.432	33.78
864.6	31.09
864.768	9.59
864.936	18.42
865.104	8.02
865.272	2.51
865.44	-18.84
865.608	-33.72
865.776	-34.55
865.944	-53.66
866.112	-35.58
866.28	-15.26
866.448	-30.54
866.616	-28.7
866.784	-6.02
866.952	-15.03
867.12	-11.93
867.288	-0.78
867.455	-6.38
867.623	10.72
867.791	11.29
867.959	-0.46
868.127	11.1
868.294	26.54
868.462	28.59
868.63	28.48
868.797	56.92
868.965	51.53
869.133	42.69
869.3	44.21
869.468	44.49
869.636	47.23
869.803	53.88
869.971	41.68
870.138	54.13
870.306	54.34
870.473	34.27
870.641	23.47
870.808	29.64
870.975	42.77
871.143	39.26
871.31	15.61
871.478	-1.97
871.645	18.2
871.812	41.36
871.98	29.01
872.147	14.99
872.314	24.31
872.482	16.69
872.649	17.45
872.816	7.76
872.983	14.44
873.15	13.6
873.318	19.44
873.485	-2.11
873.652	-19.61
873.819	-21.78
873.986	-25.5
874.153	-23.06
874.32	-26.98
874.487	-36.22
874.654	-31.87
874.821	-43.38
874.988	-35.54
875.155	-59.08
875.322	-21.42
875.489	-3.02
875.656	11.46
875.823	28.85
875.99	41.13
876.157	61.78
876.324	69.29
876.49	73.02
876.657	83.59
876.824	84.71
876.991	74.94
877.157	80.01
877.324	72.79
877.491	61.75
877.658	60.81
877.824	64.25
877.991	51.87
878.157	46.68
878.324	46.01
878.491	26.59
878.657	19.47
878.824	33.29
878.99	23.11
879.157	17.85
879.323	21.92
879.49	13.19
879.656	-4.54
879.823	-6.17
879.989	3.1
880.156	0.3
880.322	20.46
880.488	24.2
880.655	16.22
880.821	25.38
880.987	26.38
881.154	51.73
881.32	59.29
881.486	61.12
881.652	49.82
881.819	47.27
881.985	44.69
882.151	41.55
882.317	44.27
882.483	43.94
882.649	37.44
882.816	35.72
882.982	26.88
883.148	27.91
883.314	27.18
883.48	27.82
883.646	30.53
883.812	30.05
883.978	30.49
884.144	29.85
884.31	28.64
884.476	29.11
884.642	30.18
884.807	30.81
884.973	28.82
885.139	30.07
885.305	28.95
885.471	26.86
885.637	24.01
885.802	28.01
885.968	26.92
886.134	25.48
886.3	30.29
886.465	30.7
886.631	31.75
886.797	35.36
886.962	34.06
887.128	37.74
887.293	42.94
887.459	44.43
887.625	39.16
887.79	47
887.956	47.77
888.121	46.14
888.287	46.2
888.452	52
888.618	47.6
888.783	50.6
