Data from 2937866_Reflection_2.txt Node
Date: Wed Jul 15 15:10:40 EDT 2015
User: robert
Spectrometer: USB4E03001
Autoset integration time: false
Trigger mode: 4
Integration Time (sec): 1.000000E-1
Scans to average: 10
Electric dark correction enabled: true
Nonlinearity correction enabled: false
Boxcar width: 5
Stray light correction enabled: false
XAxis mode: Wavelengths
Stop averaging: false
Number of Pixels in Spectrum: 3648
>>>>>Begin Spectral Data<<<<<
177.566	58.14
177.785	7.92
178.005	-636.76
178.225	93.99
178.445	-3.5
178.665	177.49
178.885	131.61
179.105	382.73
179.324	-14.14
179.544	-24.93
179.764	-31.6
179.984	5.67
180.204	12.94
180.423	-3.35
180.643	-1.88
180.863	-43.83
181.083	-73.59
181.302	-146.45
181.522	-45.34
181.742	-116.13
181.961	-535.31
182.181	141.19
182.401	66.86
182.621	32.67
182.84	-10.22
183.06	30.48
183.279	-15.61
183.499	-1.86
183.719	-8.84
183.938	-17.3
184.158	-24.06
184.377	-22.23
184.597	10.06
184.816	8.41
185.036	-77.25
185.256	-94.32
185.475	-5.69
185.695	30.69
185.914	45.62
186.134	12.24
186.353	-26.67
186.572	-49.38
186.792	-34.91
187.011	16.21
187.231	59.04
187.45	28.92
187.67	-14
187.889	28.45
188.108	104.7
188.328	-13.36
188.547	-7.26
188.766	-147.88
188.986	-167.27
189.205	-13.77
189.424	53.11
189.644	71.67
189.863	288.88
190.082	228.51
190.302	-20500
190.521	-992.88
190.74	-95.13
190.959	-139.17
191.178	-60.22
191.398	-115.68
191.617	-11.72
191.836	-24.96
192.055	-63.51
192.274	-50.07
192.494	-35.06
192.713	-17.89
192.932	23.82
193.151	54.16
193.37	41.62
193.589	58.52
193.808	517.42
194.027	-31.79
194.246	-15.99
194.465	-25
194.685	-47.42
194.904	-54.6
195.123	-37.11
195.342	14.82
195.561	4.34
195.78	13.74
195.999	19.59
196.218	29.14
196.436	50.27
196.655	61.4
196.874	30.58
197.093	23.04
197.312	57.94
197.531	52.14
197.75	25.94
197.969	21.85
198.188	20.89
198.407	27.38
198.625	-19.79
198.844	-132.56
199.063	-125.34
199.282	-598.18
199.501	-221.93
199.719	-126.44
199.938	-258.74
200.157	-765.64
200.376	-197.06
200.594	-55.78
200.813	-215.07
201.032	-270.92
201.251	385.33
201.469	-168.59
201.688	160.66
201.907	227.7
202.125	207.43
202.344	283.24
202.563	197.71
202.781	222.66
203	220.55
203.218	358.04
203.437	308.44
203.656	1687.1
203.874	-1255.01
204.093	-390.03
204.311	-183.77
204.53	-146.29
204.748	-113.84
204.967	-135.81
205.185	-101.75
205.404	-77.21
205.622	-95.32
205.841	-110.15
206.059	-449.26
206.278	8770.31
206.496	1306.34
206.715	725.68
206.933	5121.36
207.151	1220.47
207.37	15.88
207.588	-166.07
207.806	8.69
208.025	-6.19
208.243	673.21
208.461	393.09
208.68	121.14
208.898	346.87
209.116	333.3
209.335	-166.92
209.553	-79.2
209.771	-246.78
209.989	134.89
210.208	166.22
210.426	242.22
210.644	121.12
210.862	414.1
211.081	103.56
211.299	865.88
211.517	-71.99
211.735	44.15
211.953	82.12
212.171	120.79
212.39	169.68
212.608	399.95
212.826	391.68
213.044	2304.17
213.262	-921.71
213.48	2769.38
213.698	-478.62
213.916	-135.8
214.134	-124.44
214.352	-163.58
214.57	10.69
214.788	37.55
215.006	93.52
215.224	24.55
215.442	20.55
215.66	175.57
215.878	85.43
216.096	112.74
216.314	124.12
216.532	143.5
216.75	92.57
216.968	108.64
217.185	93.84
217.403	105.13
217.621	439.92
217.839	355.36
218.057	294.38
218.275	-68.73
218.492	-484.16
218.71	-120.97
218.928	-81.53
219.146	11.26
219.363	41.05
219.581	57.12
219.799	95.06
220.017	94.62
220.234	91.96
220.452	122.8
220.67	99.72
220.887	94.09
221.105	71.88
221.323	220.81
221.54	-51.51
221.758	61.91
221.976	96.6
222.193	139.65
222.411	106.89
222.629	103.93
222.846	132.9
223.064	111
223.281	75.28
223.499	102.46
223.716	144.73
223.934	131.59
224.151	186.06
224.369	149.42
224.586	181.08
224.804	183.67
225.021	422.82
225.239	102.01
225.456	57.37
225.674	86.51
225.891	15.04
226.108	-63.32
226.326	-92.66
226.543	-425.73
226.76	-532.57
226.978	-309.01
227.195	-137.08
227.413	-52.78
227.63	-26.06
227.847	-45.73
228.064	-13.37
228.282	-6.21
228.499	4.5
228.716	8.8
228.934	15.91
229.151	20.87
229.368	23.59
229.585	28.91
229.802	23.39
230.02	23.14
230.237	22.69
230.454	16.87
230.671	18.47
230.888	18.49
231.105	21.53
231.323	17.72
231.54	8.68
231.757	7.68
231.974	-2.95
232.191	1.13
232.408	-2.94
232.625	-2.76
232.842	3.05
233.059	11.2
233.276	4.38
233.493	-3.59
233.71	-2.26
233.927	6.75
234.144	20.04
234.361	31.27
234.578	34.85
234.795	39.35
235.012	41.78
235.229	48.7
235.446	43.14
235.663	45.94
235.879	51.04
236.096	50.49
236.313	52.22
236.53	54.58
236.747	48.75
236.964	38.79
237.181	37.87
237.397	34.88
237.614	30.01
237.831	25.87
238.048	20.4
238.264	8.09
238.481	5.73
238.698	15.66
238.915	5.9
239.131	11.03
239.348	25.27
239.565	28.13
239.781	27.81
239.998	21.79
240.215	22.15
240.431	19.47
240.648	23.56
240.865	25.35
241.081	19.84
241.298	18.45
241.514	15.68
241.731	13.59
241.947	13.47
242.164	14.9
242.38	15.69
242.597	17.43
242.814	18.41
243.03	20.18
243.246	18.46
243.463	18.31
243.679	19.65
243.896	19.6
244.112	19.94
244.329	19.67
244.545	16.34
244.762	17.8
244.978	16.23
245.194	16.4
245.411	13.13
245.627	14.39
245.843	15.3
246.06	13.81
246.276	15.83
246.492	16.09
246.709	16.04
246.925	17.93
247.141	19.04
247.357	19.51
247.574	20.17
247.79	20.4
248.006	20.35
248.222	19.37
248.439	18.43
248.655	17.02
248.871	17.09
249.087	17.56
249.303	13.83
249.519	10.69
249.736	10.52
249.952	8.5
250.168	4.91
250.384	2.59
250.6	2.7
250.816	5.8
251.032	8.86
251.248	7.93
251.464	7
251.68	11.41
251.896	9.17
252.112	7.59
252.328	6.61
252.544	9.84
252.76	11.57
252.976	11.1
253.192	11.45
253.408	10.62
253.624	13.72
253.84	16.64
254.056	16
254.272	18.42
254.487	18.06
254.703	20.94
254.919	19.66
255.135	16.49
255.351	22.49
255.567	21.47
255.782	17.72
255.998	13.13
256.214	8
256.43	7.29
256.646	11.5
256.861	10.79
257.077	4.78
257.293	6.03
257.508	9.16
257.724	2.04
257.94	5.23
258.155	5.01
258.371	4.66
258.587	8.31
258.802	12.31
259.018	12.76
259.234	14.38
259.449	16.75
259.665	15.37
259.88	15.27
260.096	15.93
260.312	16.15
260.527	16.87
260.743	17.63
260.958	16.29
261.174	14.76
261.389	14.66
261.605	14.27
261.82	12.72
262.036	13.57
262.251	14.34
262.466	14.57
262.682	12.06
262.897	11.75
263.113	11.67
263.328	13.21
263.543	15.79
263.759	12.66
263.974	12.01
264.189	10.78
264.405	9.2
264.62	7.7
264.835	6.62
265.051	7.83
265.266	8.29
265.481	7.73
265.696	7.72
265.912	6.98
266.127	8.26
266.342	8.73
266.557	9.42
266.773	9.84
266.988	10.2
267.203	11.64
267.418	10.37
267.633	11.99
267.848	12.42
268.064	11.04
268.279	10.44
268.494	10.28
268.709	8.75
268.924	10.57
269.139	10.46
269.354	9.56
269.569	9.62
269.784	11.05
269.999	9.21
270.214	8.99
270.429	11.58
270.644	10.66
270.859	9.97
271.074	12.99
271.289	13.06
271.504	13.5
271.719	12.43
271.934	11.74
272.149	11.17
272.363	12.33
272.578	12.7
272.793	11.43
273.008	11.62
273.223	12.07
273.438	11.03
273.653	9.86
273.867	9.47
274.082	9.13
274.297	9.47
274.512	10.66
274.726	8.46
274.941	7.99
275.156	9.57
275.371	8.05
275.585	9.62
275.8	9.05
276.015	8.09
276.229	7.06
276.444	8.81
276.659	6.78
276.873	6.72
277.088	7.27
277.302	5.49
277.517	5.45
277.732	8.66
277.946	6.29
278.161	7.75
278.375	6.85
278.59	10.58
278.804	9.99
279.019	11.71
279.233	10.95
279.448	9.82
279.662	11.31
279.877	10.65
280.091	10.5
280.306	12.3
280.52	10.55
280.735	11.95
280.949	10.95
281.163	11.59
281.378	11.91
281.592	10.79
281.806	14.24
282.021	13.57
282.235	13.62
282.449	14.78
282.664	14.9
282.878	14.96
283.092	15.83
283.307	16.7
283.521	16.39
283.735	16.16
283.949	18.92
284.164	16.39
284.378	17
284.592	16.16
284.806	13.31
285.02	13.09
285.234	14.18
285.449	13.33
285.663	11.66
285.877	11.42
286.091	11.76
286.305	10.99
286.519	10
286.733	10.62
286.947	9.81
287.161	11.02
287.375	9.52
287.589	8.64
287.803	8.73
288.017	8.76
288.231	7.74
288.445	7.05
288.659	7.63
288.873	9.48
289.087	8.01
289.301	10.13
289.515	11.35
289.729	11.64
289.943	12.81
290.157	14.04
290.371	15.54
290.584	17.18
290.798	16.91
291.012	16.07
291.226	16.67
291.44	16.57
291.654	15.38
291.867	14.06
292.081	15.53
292.295	14.27
292.509	12.86
292.722	13.54
292.936	13.4
293.15	13.27
293.364	14.47
293.577	12.85
293.791	13.4
294.005	16.49
294.218	16.11
294.432	16.03
294.645	17.27
294.859	17.83
295.073	15.06
295.286	14.91
295.5	15.83
295.713	14.87
295.927	16.87
296.14	17.14
296.354	15.6
296.568	16.35
296.781	16.88
296.994	17.32
297.208	17.08
297.421	17.86
297.635	17.38
297.848	17.25
298.062	17.19
298.275	17.72
298.489	17.47
298.702	18.69
298.915	18.7
299.129	17
299.342	15.15
299.555	14.51
299.769	12.94
299.982	14.25
300.195	14.16
300.409	13.78
300.622	12.68
300.835	11.05
301.048	8.05
301.262	6.85
301.475	8.73
301.688	10.28
301.901	13.61
302.115	13.76
302.328	13.36
302.541	13.52
302.754	12.82
302.967	13.53
303.18	16.66
303.393	17.52
303.607	19.01
303.82	19.09
304.033	19.67
304.246	16.98
304.459	18.9
304.672	19.37
304.885	19.02
305.098	19.42
305.311	17.19
305.524	15.48
305.737	14.39
305.95	14.62
306.163	14.38
306.376	13
306.589	12.55
306.802	10.27
307.015	10.51
307.228	10.01
307.44	10.38
307.653	12.99
307.866	13.98
308.079	13.67
308.292	12.79
308.505	11.89
308.718	12.46
308.93	15.11
309.143	17.57
309.356	16.28
309.569	15.23
309.781	17.14
309.994	17.93
310.207	18.12
310.42	18.78
310.632	19.39
310.845	19.94
311.058	19.48
311.27	17.68
311.483	15.05
311.696	15.71
311.908	16.92
312.121	15.82
312.333	13.8
312.546	13.83
312.759	13.26
312.971	11.99
313.184	9.77
313.396	7.77
313.609	9.17
313.821	11.34
314.034	10.87
314.246	10.28
314.459	10.81
314.671	9.17
314.884	8.34
315.096	9.88
315.309	9.72
315.521	11.45
315.733	12.95
315.946	14.67
316.158	15.59
316.371	16.59
316.583	15.99
316.795	11.73
317.008	14.73
317.22	15.42
317.432	15.47
317.644	16.14
317.857	16.24
318.069	15.6
318.281	13.97
318.494	14.96
318.706	15.35
318.918	16.8
319.13	18.31
319.342	17.31
319.555	15.49
319.767	15.27
319.979	13.63
320.191	13.43
320.403	14.36
320.615	13.55
320.827	15.14
321.039	13.01
321.252	12.03
321.464	13.26
321.676	13.79
321.888	14.01
322.1	14.5
322.312	17.3
322.524	18.43
322.736	17.26
322.948	17.77
323.16	13.05
323.372	13.96
323.584	12.69
323.796	11.35
324.007	10.94
324.219	12.11
324.431	13.73
324.643	12.51
324.855	12.42
325.067	13.67
325.279	13.05
325.491	15.13
325.702	15.28
325.914	18.57
326.126	19.45
326.338	19.92
326.55	20.65
326.761	20.04
326.973	20.52
327.185	20.51
327.396	18.82
327.608	20.09
327.82	19.01
328.032	20.04
328.243	19.31
328.455	20.65
328.666	21.07
328.878	20.78
329.09	19.78
329.301	20.93
329.513	21.13
329.725	22.51
329.936	20.72
330.148	21.28
330.359	19.88
330.571	17.99
330.782	16.54
330.994	15.42
331.205	15.5
331.417	15.15
331.628	13.14
331.84	14.38
332.051	16.02
332.262	17.37
332.474	16.12
332.685	16.14
332.897	18.08
333.108	19.43
333.319	17.84
333.531	18.09
333.742	20.45
333.953	20.09
334.165	20.11
334.376	19.2
334.587	19.26
334.799	19.96
335.01	20.68
335.221	21.43
335.432	21.01
335.644	22.82
335.855	22.73
336.066	21.01
336.277	21.84
336.488	20.64
336.7	20.68
336.911	20.6
337.122	20.83
337.333	20.34
337.544	19.85
337.755	20.59
337.966	20.46
338.177	21.61
338.388	21.91
338.599	22.82
338.811	22.22
339.022	21.71
339.233	21.52
339.444	21.34
339.655	22.33
339.866	22.02
340.076	20.95
340.287	22.34
340.498	20.13
340.709	19.53
340.92	18.71
341.131	19.13
341.342	19.48
341.553	20.56
341.764	21.14
341.975	20.12
342.185	19.54
342.396	20.53
342.607	20.06
342.818	20.8
343.029	21
343.239	20.89
343.45	20.07
343.661	19.45
343.872	17.62
344.082	17.89
344.293	18.31
344.504	19.11
344.714	18.79
344.925	17.58
345.136	17.67
345.346	16.79
345.557	17.57
345.768	18.26
345.978	18.86
346.189	19.81
346.399	20.71
346.61	21.73
346.821	20.72
347.031	20.42
347.242	22
347.452	20.11
347.663	20.75
347.873	19.72
348.084	20.75
348.294	22.08
348.504	20.48
348.715	17.64
348.925	15.65
349.136	16.56
349.346	16.08
349.557	14.81
349.767	16.91
349.977	18.1
350.188	18.35
350.398	16.6
350.608	15.32
350.819	15.04
351.029	16.04
351.239	17.25
351.449	16.47
351.66	16.5
351.87	15.48
352.08	14.81
352.29	14.4
352.501	14.45
352.711	15.18
352.921	16.73
353.131	17.08
353.341	16.06
353.552	15.8
353.762	16.32
353.972	16.63
354.182	18.89
354.392	19.34
354.602	19.63
354.812	20.02
355.022	20.25
355.232	20.11
355.442	20.99
355.652	22.59
355.862	22.47
356.072	22.81
356.282	22.94
356.492	21.45
356.702	20.83
356.912	19.64
357.122	19.37
357.332	20.37
357.542	19.25
357.752	18.54
357.962	18.39
358.171	19.1
358.381	18.32
358.591	18.03
358.801	17.99
359.011	19.26
359.221	19.86
359.43	19.99
359.64	19.67
359.85	19.42
360.06	19.07
360.269	19.34
360.479	18.31
360.689	18.55
360.899	18.36
361.108	18.95
361.318	18.69
361.528	18.4
361.737	18.7
361.947	17.93
362.156	17.48
362.366	17.76
362.576	17.43
362.785	18.03
362.995	18.3
363.204	17.31
363.414	16.46
363.623	17.02
363.833	17.39
364.042	16.76
364.252	16.47
364.461	16.73
364.671	16.64
364.88	16.88
365.09	16.8
365.299	16.08
365.509	15.87
365.718	16.71
365.927	15.38
366.137	14.62
366.346	13.82
366.555	13.93
366.765	15.34
366.974	15.7
367.183	14.68
367.393	13.53
367.602	13.66
367.811	14.94
368.021	14.72
368.23	16.05
368.439	16
368.648	16.73
368.857	17.46
369.067	16.75
369.276	17.38
369.485	18.41
369.694	18.63
369.903	19.13
370.112	18.9
370.321	17.96
370.531	17.4
370.74	18.11
370.949	17.95
371.158	16.97
371.367	16.91
371.576	16.78
371.785	15.9
371.994	16.64
372.203	15.91
372.412	15.99
372.621	16.74
372.83	15.82
373.039	15.74
373.248	14.73
373.457	15.32
373.666	15.25
373.874	14.63
374.083	14.69
374.292	14.22
374.501	14.47
374.71	13.74
374.919	12.73
375.128	13.06
375.336	12.45
375.545	13.01
375.754	13.14
375.963	12.6
376.171	13.6
376.38	14.2
376.589	13.21
376.798	13.04
377.006	13.92
377.215	14.2
377.424	13.62
377.632	14.04
377.841	14.29
378.05	14.11
378.258	14.6
378.467	13.97
378.675	12.5
378.884	13.89
379.093	13.87
379.301	13.37
379.51	13.26
379.718	13.6
379.927	13.4
380.135	13.66
380.344	13.33
380.552	12.83
380.761	12.81
380.969	13.78
381.177	13.17
381.386	12.94
381.594	12.87
381.803	13.14
382.011	12.63
382.219	11.98
382.428	11.88
382.636	12.1
382.845	11.8
383.053	11.27
383.261	10.6
383.469	10.54
383.678	10.47
383.886	10.77
384.094	10.97
384.302	11.33
384.511	11.96
384.719	12.08
384.927	11.82
385.135	12.06
385.343	12.56
385.552	12.8
385.76	13.15
385.968	13.02
386.176	12.7
386.384	12.09
386.592	11.86
386.8	11.91
387.008	11.28
387.216	11.47
387.424	11.81
387.633	11.45
387.841	11.23
388.049	10.47
388.257	10.48
388.465	10.9
388.672	11.29
388.88	11.53
389.088	11.42
389.296	11.25
389.504	10.99
389.712	10.71
389.92	10.87
390.128	11.01
390.336	11.32
390.544	11.51
390.751	11.58
390.959	11.08
391.167	10.91
391.375	10.51
391.583	10.52
391.79	10.65
391.998	10.45
392.206	10.03
392.414	9.83
392.621	9.43
392.829	9.16
393.037	9.26
393.244	9.62
393.452	9.68
393.66	9.7
393.867	9.91
394.075	9.78
394.283	9.7
394.49	10.02
394.698	9.95
394.905	9.96
395.113	10.51
395.32	9.83
395.528	9.37
395.735	9.09
395.943	9.3
396.15	9.32
396.358	9.22
396.565	9.06
396.773	8.85
396.98	9.06
397.188	9.33
397.395	8.84
397.602	9.33
397.81	9.64
398.017	9.79
398.225	9.91
398.432	9.74
398.639	9.83
398.847	10.13
399.054	9.95
399.261	9.59
399.468	9.69
399.676	9.95
399.883	9.98
400.09	10.13
400.297	10.08
400.505	9.53
400.712	9.68
400.919	9.45
401.126	9.23
401.333	9.57
401.54	9.51
401.748	9.4
401.955	8.94
402.162	8.47
402.369	8.08
402.576	8.06
402.783	8.53
402.99	7.93
403.197	7.82
403.404	8.08
403.611	8.02
403.818	8.36
404.025	8.02
404.232	8.52
404.439	8.65
404.646	8.83
404.853	9.16
405.06	8.88
405.267	9.39
405.474	9.83
405.681	10.02
405.887	9.91
406.094	9.77
406.301	10.15
406.508	9.81
406.715	9.78
406.922	9.85
407.128	9.4
407.335	9.7
407.542	9.67
407.749	9.46
407.955	9.25
408.162	8.85
408.369	8.82
408.575	8.97
408.782	8.85
408.989	8.87
409.195	8.75
409.402	8.75
409.609	8.81
409.815	8.56
410.022	8.5
410.228	8.66
410.435	9.16
410.642	9.22
410.848	8.84
411.055	8.99
411.261	8.69
411.468	8.72
411.674	9.08
411.881	8.83
412.087	9.07
412.294	9.32
412.5	8.98
412.706	8.92
412.913	8.76
413.119	9.21
413.326	8.94
413.532	8.95
413.738	8.78
413.945	8.6
414.151	8.61
414.357	8.6
414.564	8.67
414.77	8.79
414.976	8.83
415.182	9.21
415.389	8.96
415.595	9.05
415.801	9.19
416.007	9.49
416.214	9.17
416.42	9.23
416.626	9.25
416.832	9.19
417.038	9.19
417.244	9.25
417.45	8.98
417.657	8.89
417.863	9.15
418.069	9.3
418.275	9.04
418.481	9.19
418.687	9.1
418.893	9.23
419.099	9.13
419.305	9.01
419.511	8.84
419.717	8.94
419.923	9.2
420.129	9.13
420.335	9.15
420.541	9.2
420.746	9.2
420.952	9.07
421.158	8.9
421.364	9
421.57	8.96
421.776	9.14
421.982	9.06
422.187	8.78
422.393	8.83
422.599	8.73
422.805	8.94
423.01	9
423.216	9.28
423.422	9.38
423.628	9.34
423.833	9.49
424.039	9.44
424.245	9.53
424.45	9.61
424.656	9.45
424.862	9.32
425.067	9.18
425.273	9.12
425.478	8.97
425.684	8.99
425.889	8.8
426.095	8.75
426.301	8.61
426.506	8.62
426.712	8.43
426.917	8.79
427.123	9.07
427.328	9.06
427.533	9.04
427.739	9.12
427.944	8.91
428.15	9.21
428.355	8.95
428.561	9.26
428.766	9.15
428.971	9.47
429.177	9.08
429.382	9.06
429.587	9.05
429.793	9.32
429.998	9.28
430.203	9.15
430.408	8.95
430.614	9.25
430.819	9.17
431.024	9.4
431.229	9.1
431.434	9.33
431.64	9.13
431.845	9.32
432.05	9.29
432.255	9.13
432.46	9.2
432.665	9.2
432.87	9.09
433.076	8.93
433.281	8.71
433.486	8.93
433.691	8.97
433.896	9.06
434.101	8.61
434.306	8.52
434.511	8.67
434.716	8.85
434.921	8.82
435.126	8.9
435.331	9.1
435.535	9.26
435.74	9.11
435.945	8.92
436.15	8.76
436.355	9.04
436.56	9.18
436.765	9.27
436.97	9.25
437.174	9.34
437.379	9.48
437.584	9.25
437.789	9
437.993	8.91
438.198	9
438.403	9.26
438.608	9.29
438.812	9.31
439.017	9.14
439.222	9.12
439.426	9.05
439.631	8.9
439.836	8.94
440.04	8.94
440.245	9.13
440.45	9.14
440.654	8.99
440.859	8.94
441.063	8.84
441.268	8.71
441.472	8.65
441.677	8.54
441.881	8.47
442.086	8.41
442.29	8.77
442.495	8.67
442.699	8.72
442.904	9
443.108	8.91
443.312	8.62
443.517	8.72
443.721	8.66
443.925	8.8
444.13	9.03
444.334	9.06
444.538	8.74
444.743	8.76
444.947	8.6
445.151	8.21
445.356	8.29
445.56	8.39
445.764	8.58
445.968	8.61
446.173	8.54
446.377	8.52
446.581	8.58
446.785	8.75
446.989	8.71
447.193	8.73
447.398	8.81
447.602	8.87
447.806	8.86
448.01	8.7
448.214	8.52
448.418	8.6
448.622	8.59
448.826	8.59
449.03	8.36
449.234	8.51
449.438	8.34
449.642	8.2
449.846	8.04
450.05	8.07
450.254	8.03
450.458	8.24
450.662	8.24
450.866	8.06
451.069	7.98
451.273	8.39
451.477	8.37
451.681	8.7
451.885	8.9
452.089	8.97
452.292	8.84
452.496	8.84
452.7	8.67
452.904	8.56
453.107	8.53
453.311	8.44
453.515	8.19
453.719	7.93
453.922	7.7
454.126	7.66
454.33	7.93
454.533	8.11
454.737	8.15
454.94	8.4
455.144	8.5
455.348	8.42
455.551	8.29
455.755	8.16
455.958	8.54
456.162	8.84
456.365	8.8
456.569	8.41
456.772	8.6
456.976	8.56
457.179	8.48
457.383	8.48
457.586	8.63
457.79	8.82
457.993	8.78
458.196	8.45
458.4	8.48
458.603	8.54
458.807	8.56
459.01	8.4
459.213	8.44
459.417	8.51
459.62	8.28
459.823	8.21
460.026	8.25
460.23	8.25
460.433	8.39
460.636	8.18
460.839	8.17
461.042	8.16
461.246	8.19
461.449	8.19
461.652	8.14
461.855	8.3
462.058	8.51
462.261	8.47
462.464	8.41
462.668	8.17
462.871	8.25
463.074	8.17
463.277	8.21
463.48	8.07
463.683	7.97
463.886	7.96
464.089	7.96
464.292	7.7
464.495	7.67
464.698	7.95
464.901	8.21
465.104	8.05
465.306	8.09
465.509	8.09
465.712	8.21
465.915	8.37
466.118	8.26
466.321	8.12
466.524	8.18
466.726	8.1
466.929	8.02
467.132	7.82
467.335	8.02
467.538	8.04
467.74	8.15
467.943	8.2
468.146	7.94
468.348	7.91
468.551	8.11
468.754	8.07
468.956	8.01
469.159	7.98
469.362	8.16
469.564	8.12
469.767	8.13
469.969	7.9
470.172	7.69
470.375	7.73
470.577	7.88
470.78	7.81
470.982	7.98
471.185	8.17
471.387	8.16
471.59	8.13
471.792	8.33
471.995	8.36
472.197	8.27
472.399	8.12
472.602	8.1
472.804	8.16
473.007	8.09
473.209	8.17
473.411	8.21
473.614	8.16
473.816	8.12
474.018	7.85
474.22	7.75
474.423	8.02
474.625	8.27
474.827	8.3
475.03	8.15
475.232	8.16
475.434	8.17
475.636	8.09
475.838	8.14
476.04	8.3
476.243	8.42
476.445	8.53
476.647	8.5
476.849	8.72
477.051	8.62
477.253	8.54
477.455	8.8
477.657	8.53
477.859	8.58
478.061	8.65
478.263	8.52
478.465	8.45
478.667	8.27
478.869	8.27
479.071	8.13
479.273	8.33
479.475	8.32
479.677	8.24
479.879	8.45
480.081	8.37
480.283	8.36
480.485	8.26
480.686	8.43
480.888	8.65
481.09	8.76
481.292	8.71
481.494	8.69
481.695	8.79
481.897	8.57
482.099	8.54
482.301	8.64
482.502	8.58
482.704	8.64
482.906	8.57
483.107	8.61
483.309	8.49
483.511	8.45
483.712	8.47
483.914	8.44
484.115	8.52
484.317	8.49
484.519	8.46
484.72	8.45
484.922	8.42
485.123	8.45
485.325	8.45
485.526	8.51
485.728	8.61
485.929	8.65
486.131	8.68
486.332	8.74
486.534	8.75
486.735	8.79
486.936	8.77
487.138	8.78
487.339	8.73
487.541	8.69
487.742	8.75
487.943	8.7
488.144	8.68
488.346	8.66
488.547	8.62
488.748	8.71
488.95	8.65
489.151	8.67
489.352	8.7
489.553	8.65
489.755	8.63
489.956	8.62
490.157	8.58
490.358	8.52
490.559	8.59
490.76	8.51
490.961	8.43
491.163	8.46
491.364	8.48
491.565	8.44
491.766	8.59
491.967	8.59
492.168	8.41
492.369	8.49
492.57	8.5
492.771	8.48
492.972	8.51
493.173	8.48
493.374	8.45
493.575	8.43
493.776	8.47
493.976	8.35
494.177	8.33
494.378	8.41
494.579	8.34
494.78	8.44
494.981	8.32
495.182	8.21
495.382	8.22
495.583	8.23
495.784	8.14
495.985	8.27
496.185	8.37
496.386	8.52
496.587	8.57
496.788	8.64
496.988	8.5
497.189	8.53
497.39	8.67
497.59	8.69
497.791	8.76
497.992	8.82
498.192	8.61
498.393	8.57
498.593	8.53
498.794	8.5
498.994	8.5
499.195	8.69
499.395	8.7
499.596	8.66
499.796	8.61
499.997	8.84
500.197	8.92
500.398	8.98
500.598	8.81
500.799	8.81
500.999	8.88
501.199	8.76
501.4	8.83
501.6	8.88
501.801	8.86
502.001	9.1
502.201	8.95
502.402	8.87
502.602	9.16
502.802	9.23
503.002	9.18
503.203	9.2
503.403	9.05
503.603	8.84
503.803	8.73
504.003	8.96
504.204	8.89
504.404	8.93
504.604	8.99
504.804	8.82
505.004	8.89
505.204	8.83
505.404	8.81
505.604	8.98
505.804	8.98
506.005	9.13
506.205	8.99
506.405	8.95
506.605	8.69
506.805	8.72
507.005	8.68
507.204	8.73
507.404	8.72
507.604	8.7
507.804	8.81
508.004	8.9
508.204	8.78
508.404	8.91
508.604	8.74
508.804	8.85
509.003	8.76
509.203	8.77
509.403	8.67
509.603	8.69
509.803	8.79
510.002	8.55
510.202	8.46
510.402	8.58
510.602	8.38
510.801	8.76
511.001	8.75
511.201	8.82
511.4	8.89
511.6	8.91
511.8	8.88
511.999	8.77
512.199	8.98
512.398	9.05
512.598	9
512.797	9.05
512.997	8.96
513.197	8.92
513.396	8.88
513.596	8.98
513.795	9.18
513.994	9.27
514.194	9.37
514.393	9.23
514.593	9.4
514.792	9.49
514.992	9.4
515.191	9.23
515.39	9.25
515.59	9.44
515.789	9.39
515.988	9.56
516.188	9.57
516.387	9.72
516.586	9.69
516.786	9.64
516.985	9.72
517.184	9.84
517.383	9.87
517.582	9.8
517.782	9.75
517.981	9.72
518.18	9.6
518.379	9.48
518.578	9.35
518.777	9.48
518.976	9.41
519.176	9.34
519.375	9.37
519.574	9.4
519.773	9.5
519.972	9.69
520.171	9.68
520.37	9.54
520.569	9.58
520.768	9.67
520.967	9.64
521.166	9.55
521.365	9.56
521.564	9.63
521.762	9.63
521.961	9.61
522.16	9.46
522.359	9.49
522.558	9.61
522.757	9.95
522.956	9.99
523.154	10.03
523.353	10.21
523.552	9.93
523.751	10.05
523.949	10.16
524.148	10.31
524.347	10.3
524.546	10.21
524.744	10.33
524.943	10.2
525.142	10.15
525.34	10.25
525.539	10.31
525.737	10.49
525.936	10.35
526.135	10.34
526.333	10.23
526.532	10.26
526.73	10.3
526.929	10.26
527.127	10.22
527.326	10.26
527.524	10.26
527.723	10.21
527.921	10.33
528.12	10.4
528.318	10.42
528.516	10.51
528.715	10.48
528.913	10.54
529.112	10.56
529.31	10.56
529.508	10.58
529.707	10.56
529.905	10.63
530.103	10.59
530.301	10.57
530.5	10.53
530.698	10.54
530.896	10.52
531.094	10.53
531.293	10.52
531.491	10.62
531.689	10.65
531.887	10.76
532.085	10.7
532.283	10.84
532.481	10.81
532.68	10.83
532.878	10.83
533.076	10.98
533.274	11.04
533.472	11.14
533.67	11.17
533.868	11.19
534.066	11.15
534.264	11.26
534.462	11.13
534.66	11.24
534.858	11.34
535.056	11.28
535.253	11.24
535.451	11.23
535.649	11.21
535.847	11.23
536.045	11.29
536.243	11.3
536.441	11.33
536.638	11.51
536.836	11.41
537.034	11.45
537.232	11.54
537.43	11.61
537.627	11.66
537.825	11.67
538.023	11.67
538.22	11.72
538.418	11.83
538.616	11.66
538.813	11.7
539.011	11.89
539.209	11.92
539.406	12.17
539.604	12.13
539.801	12.29
539.999	12.27
540.196	12.39
540.394	12.42
540.591	12.41
540.789	12.61
540.986	12.61
541.184	12.7
541.381	12.68
541.579	12.74
541.776	12.8
541.974	12.7
542.171	12.82
542.368	12.8
542.566	12.81
542.763	12.85
542.96	12.88
543.158	12.99
543.355	12.94
543.552	13
543.75	12.95
543.947	13.04
544.144	13.06
544.341	13.02
544.539	12.99
544.736	13.12
544.933	13.21
545.13	13.29
545.327	13.29
545.524	13.36
545.722	13.49
545.919	13.53
546.116	13.48
546.313	13.72
546.51	13.8
546.707	13.88
546.904	13.8
547.101	13.92
547.298	13.75
547.495	13.75
547.692	13.66
547.889	13.72
548.086	13.83
548.283	13.95
548.48	13.99
548.677	14.13
548.874	14.14
549.07	14.25
549.267	14.31
549.464	14.65
549.661	14.93
549.858	15.2
550.055	15.32
550.251	15.3
550.448	15.52
550.645	15.45
550.842	15.36
551.038	15.62
551.235	15.72
551.432	15.68
551.628	15.68
551.825	15.5
552.022	15.57
552.218	15.73
552.415	15.84
552.612	15.6
552.808	15.67
553.005	15.84
553.201	15.91
553.398	15.96
553.594	16.05
553.791	16.07
553.987	16.1
554.184	16.04
554.38	16.03
554.577	16.3
554.773	16.6
554.97	16.64
555.166	16.58
555.362	16.74
555.559	16.96
555.755	17
555.952	17.09
556.148	17.13
556.344	17.54
556.541	17.52
556.737	17.34
556.933	17.51
557.129	17.69
557.326	17.83
557.522	17.85
557.718	17.83
557.914	17.93
558.11	17.84
558.307	18.04
558.503	17.8
558.699	17.85
558.895	17.77
559.091	17.68
559.287	17.82
559.483	17.92
559.679	17.86
559.876	17.91
560.072	17.91
560.268	17.88
560.464	18.06
560.66	18.27
560.856	18.36
561.052	18.43
561.247	18.48
561.443	18.55
561.639	18.58
561.835	18.94
562.031	18.88
562.227	19.2
562.423	19.34
562.619	19.36
562.815	19.49
563.01	19.51
563.206	19.83
563.402	19.86
563.598	19.87
563.793	19.9
563.989	19.87
564.185	19.89
564.381	20.05
564.576	20.41
564.772	20.31
564.968	20.21
565.163	20.3
565.359	20.22
565.555	20.33
565.75	20.49
565.946	20.65
566.141	20.87
566.337	21.19
566.532	20.93
566.728	20.82
566.923	20.96
567.119	21.18
567.314	21.3
567.51	21.33
567.705	21.39
567.901	21.45
568.096	21.32
568.292	21.19
568.487	21.22
568.682	21.1
568.878	21.25
569.073	21.17
569.268	21.2
569.464	21.31
569.659	21.31
569.854	21.55
570.05	21.39
570.245	21.81
570.44	21.94
570.635	21.96
570.831	22.43
571.026	22.6
571.221	22.96
571.416	22.97
571.611	22.81
571.806	23.06
572.002	23.04
572.197	23.25
572.392	23.08
572.587	23.06
572.782	22.89
572.977	22.95
573.172	22.8
573.367	22.64
573.562	22.86
573.757	23.16
573.952	23.09
574.147	23
574.342	22.96
574.537	22.99
574.732	22.93
574.927	23.19
575.121	23.29
575.316	23.33
575.511	23.53
575.706	23.44
575.901	23.24
576.096	23.41
576.29	23.73
576.485	23.85
576.68	24.15
576.875	24.27
577.069	24.36
577.264	24.17
577.459	24.2
577.654	24.19
577.848	24.15
578.043	24.32
578.238	24.33
578.432	24.05
578.627	24.01
578.821	23.78
579.016	23.8
579.21	23.42
579.405	23.6
579.6	23.71
579.794	23.69
579.989	23.63
580.183	23.62
580.378	23.63
580.572	23.65
580.766	23.5
580.961	23.58
581.155	23.65
581.35	23.78
581.544	23.69
581.738	23.81
581.933	23.82
582.127	23.82
582.321	23.7
582.516	23.69
582.71	23.86
582.904	24.07
583.099	24.18
583.293	24.21
583.487	24.54
583.681	24.5
583.875	24.6
584.07	24.57
584.264	24.69
584.458	24.93
584.652	24.99
584.846	25.21
585.04	25.19
585.234	25.1
585.428	25.16
585.623	24.94
585.817	24.8
586.011	24.62
586.205	24.89
586.399	25.15
586.593	25.1
586.787	24.9
586.981	24.57
587.174	24.68
587.368	24.79
587.562	24.93
587.756	24.95
587.95	25.07
588.144	25.01
588.338	24.58
588.532	24.48
588.725	24.69
588.919	25.05
589.113	25.15
589.307	25.2
589.501	25.4
589.694	25.18
589.888	25.2
590.082	25.46
590.275	25.55
590.469	25.81
590.663	25.92
590.856	25.98
591.05	25.78
591.244	26.1
591.437	26.19
591.631	26.08
591.824	26.12
592.018	26.27
592.212	26.53
592.405	26.61
592.599	26.73
592.792	26.72
592.986	26.56
593.179	26.73
593.372	26.62
593.566	26.4
593.759	26.29
593.953	26.33
594.146	26.52
594.339	26.32
594.533	26.27
594.726	26.29
594.92	26.23
595.113	26.31
595.306	26.13
595.499	26.03
595.693	26.31
595.886	26.26
596.079	26.34
596.272	26.34
596.466	26.27
596.659	26.46
596.852	26.31
597.045	26.22
597.238	26.17
597.431	26.26
597.624	26.22
597.818	25.95
598.011	26.23
598.204	26.24
598.397	26.32
598.59	26.51
598.783	26.46
598.976	26.59
599.169	26.94
599.362	26.91
599.555	26.95
599.748	27.11
599.941	27.34
600.134	27.15
600.326	27.24
600.519	27.18
600.712	27.05
600.905	26.9
601.098	27.13
601.291	27.05
601.483	27.34
601.676	27.23
601.869	27.21
602.062	27.28
602.255	27.11
602.447	27.06
602.64	26.89
602.833	26.86
603.025	27.2
603.218	27.04
603.411	27.3
603.603	27.18
603.796	27.57
603.989	27.34
604.181	27.46
604.374	27.58
604.566	27.48
604.759	27.48
604.951	27.42
605.144	27.14
605.336	27.09
605.529	26.83
605.721	27.06
605.914	26.65
606.106	26.87
606.299	26.67
606.491	26.59
606.683	26.68
606.876	26.95
607.068	26.76
607.26	26.78
607.453	26.89
607.645	27.04
607.837	26.84
608.03	26.97
608.222	26.87
608.414	26.86
608.606	27
608.799	27.09
608.991	27.05
609.183	27.39
609.375	27.44
609.567	27.14
609.759	26.85
609.952	26.61
610.144	26.93
610.336	26.76
610.528	26.73
610.72	26.67
610.912	26.39
611.104	26.29
611.296	26.13
611.488	26.07
611.68	26.41
611.872	26.46
612.064	26.58
612.256	26.17
612.448	26.33
612.64	26.44
612.832	26.15
613.023	25.96
613.215	26.01
613.407	26.27
613.599	26.28
613.791	25.85
613.983	25.53
614.174	25.52
614.366	25.34
614.558	25.24
614.75	25.14
614.941	25.3
615.133	25.95
615.325	25.55
615.516	25.33
615.708	25.55
615.9	25.94
616.091	26.42
616.283	26.69
616.475	27.07
616.666	27.44
616.858	27.31
617.049	27.34
617.241	27.12
617.432	27.34
617.624	27.56
617.815	27.61
618.007	27.74
618.198	27.72
618.39	27.85
618.581	27.67
618.773	28.08
618.964	28.18
619.155	28.26
619.347	28.18
619.538	28.25
619.729	28.17
619.921	28.24
620.112	28.16
620.303	27.71
620.494	27.51
620.686	27.68
620.877	27.42
621.068	27.56
621.259	28.22
621.451	28.26
621.642	28.54
621.833	28.27
622.024	28.27
622.215	28.33
622.406	28.5
622.597	28.3
622.788	28.25
622.98	27.88
623.171	27.72
623.362	27.12
623.553	27.21
623.744	26.63
623.935	26.69
624.126	26.59
624.317	26.58
624.508	26.73
624.698	26.44
624.889	26.56
625.08	26.8
625.271	27.09
625.462	26.96
625.653	27.16
625.844	27.62
626.034	27.78
626.225	27.63
626.416	27.6
626.607	28.12
626.798	28.44
626.988	28.52
627.179	28.13
627.37	27.94
627.56	28.03
627.751	28
627.942	28.3
628.132	28.45
628.323	28.72
628.514	28.42
628.704	28.08
628.895	27.91
629.085	27.58
629.276	27.66
629.466	27.85
629.657	27.88
629.847	27.8
630.038	27.08
630.228	26.87
630.419	26.82
630.609	27.17
630.8	27.11
630.99	27.14
631.181	27.08
631.371	27.17
631.561	26.75
631.752	27.01
631.942	26.95
632.132	27.36
632.323	27.35
632.513	27.34
632.703	27.69
632.893	27.6
633.084	27.61
633.274	28.09
633.464	28.46
633.654	28.42
633.844	28.22
634.034	28.52
634.225	28.52
634.415	28.47
634.605	28.15
634.795	27.99
634.985	27.96
635.175	28.08
635.365	28.03
635.555	27.73
635.745	27.85
635.935	28.15
636.125	27.98
636.315	27.8
636.505	28.17
636.695	28.67
636.885	28.49
637.075	28.56
637.265	28.75
637.455	28.23
637.644	28.3
637.834	28.7
638.024	28.41
638.214	28.52
638.404	28.38
638.593	27.99
638.783	27.53
638.973	27.42
639.163	27.22
639.352	26.63
639.542	26.75
639.732	26.5
639.921	26.22
640.111	26
640.301	25.63
640.49	26.14
640.68	25.91
640.87	26.1
641.059	26.23
641.249	26.78
641.438	26.7
641.628	26.9
641.817	26.91
642.007	26.76
642.196	26.89
642.386	26.95
642.575	26.63
642.764	27.19
642.954	27.18
643.143	27.55
643.333	27.03
643.522	27.61
643.711	27.1
643.901	27.28
644.09	27.67
644.279	27.91
644.469	28.04
644.658	28.07
644.847	27.86
645.036	27.74
645.226	27.62
645.415	28.01
645.604	28.04
645.793	28.48
645.982	28.25
646.171	28.29
646.361	27.89
646.55	27.94
646.739	28.2
646.928	27.84
647.117	27.33
647.306	27.08
647.495	26.72
647.684	26.78
647.873	26.8
648.062	26.87
648.251	26.16
648.44	26.51
648.629	26.16
648.818	25.39
649.007	25.69
649.196	25.91
649.384	26.19
649.573	26.3
649.762	26.07
649.951	26.55
650.14	26.74
650.328	26.95
650.517	27.17
650.706	27.92
650.895	28.34
651.083	28.54
651.272	28.78
651.461	28.34
651.65	28.99
651.838	29.39
652.027	28.86
652.216	28.85
652.404	28.68
652.593	27.93
652.781	27.72
652.97	27.37
653.158	27.49
653.347	27.57
653.535	27.66
653.724	27.03
653.912	27.37
654.101	27.87
654.289	28.2
654.478	28.32
654.666	28.35
654.855	27.84
655.043	28.38
655.231	28.51
655.42	28.69
655.608	28.45
655.796	28.45
655.985	28.04
656.173	28.04
656.361	27.58
656.55	27.99
656.738	28.51
656.926	28.56
657.114	28.71
657.302	28.12
657.491	28.1
657.679	28.24
657.867	28.19
658.055	28.37
658.243	28.13
658.431	28.18
658.619	28.04
658.807	27.91
658.996	28.08
659.184	28.02
659.372	28.4
659.56	28.44
659.748	28.84
659.936	28.87
660.124	28.29
660.311	27.88
660.499	28.51
660.687	28.34
660.875	28.42
661.063	28.43
661.251	28.47
661.439	28.39
661.627	28.03
661.814	27.61
662.002	27.59
662.19	28.19
662.378	28.29
662.565	27.49
662.753	27.41
662.941	27.17
663.129	27.11
663.316	26.28
663.504	25.67
663.692	26.16
663.879	26.03
664.067	26.01
664.254	25.61
664.442	26.19
664.63	26.38
664.817	26.52
665.005	26.46
665.192	26.58
665.38	27.07
665.567	27.28
665.755	27.32
665.942	27.23
666.13	27.56
666.317	28.27
666.504	27.97
666.692	27.73
666.879	28.3
667.067	27.93
667.254	27.37
667.441	27.45
667.629	27.74
667.816	27.71
668.003	28.07
668.19	27.74
668.378	27.49
668.565	28.01
668.752	28.46
668.939	28.15
669.127	28.24
669.314	28.8
669.501	28.86
669.688	28.42
669.875	28.58
670.062	28.68
670.249	28.99
670.436	28.64
670.623	28.34
670.81	27.99
670.997	28.02
671.184	28.94
671.371	28.82
671.558	28.64
671.745	29.04
671.932	28.41
672.119	28.22
672.306	28.31
672.493	27.95
672.68	27.44
672.867	27.71
673.054	27.14
673.24	26.78
673.427	26.12
673.614	26.12
673.801	25.53
673.988	25.68
674.174	25.81
674.361	25.11
674.548	26.23
674.734	26.52
674.921	26.6
675.108	27.84
675.294	27.57
675.481	28.38
675.668	28.32
675.854	29.11
676.041	29.14
676.227	28.93
676.414	29.11
676.601	28.23
676.787	27.72
676.974	27.32
677.16	26.6
677.347	26.8
677.533	26.27
677.719	25.89
677.906	25.65
678.092	25.54
678.279	25.62
678.465	25.92
678.651	26.24
678.838	26.87
679.024	27.02
679.21	27.16
679.397	27.31
679.583	27.59
679.769	27.89
679.955	28.11
680.142	28.3
680.328	28.65
680.514	28.99
680.7	29.03
680.886	29.39
681.073	29.56
681.259	29.46
681.445	29.78
681.631	29.64
681.817	29.83
682.003	29.53
682.189	29.31
682.375	29.14
682.561	28.93
682.747	28.92
682.933	28.33
683.119	28.2
683.305	28.4
683.491	27.76
683.677	27.98
683.863	28.5
684.049	28.72
684.235	28.93
684.42	28.91
684.606	28.59
684.792	28.72
684.978	28.88
685.164	28.94
685.349	28.92
685.535	29
685.721	28.7
685.907	28.17
686.092	28.92
686.278	29.25
686.464	28.93
686.649	28.89
686.835	28.62
687.021	28.43
687.206	28.8
687.392	28.38
687.577	28.52
687.763	28.61
687.948	28.45
688.134	27.8
688.319	27.55
688.505	28.05
688.69	28.14
688.876	28.23
689.061	28.3
689.247	27.99
689.432	27.82
689.618	27.17
689.803	27.57
689.988	27.26
690.174	27.25
690.359	26.94
690.544	26.31
690.73	26.36
690.915	26.37
691.1	26.93
691.285	26.96
691.471	27.23
691.656	27.73
691.841	27.19
692.026	28.27
692.211	28.32
692.396	28.4
692.582	28.66
692.767	28.73
692.952	28.57
693.137	27.93
693.322	28.05
693.507	27.87
693.692	28.46
693.877	28.1
694.062	27.86
694.247	27.84
694.432	27.32
694.617	27.28
694.802	27.3
694.987	27.85
695.172	27.44
695.357	27.01
695.541	27.99
695.726	27.33
695.911	28.14
696.096	27.64
696.281	27.93
696.466	29.02
696.65	29.2
696.835	29.54
697.02	28.57
697.204	28.98
697.389	28.86
697.574	27.45
697.759	27.67
697.943	27.68
698.128	28.07
698.312	28.23
698.497	28.37
698.682	28.63
698.866	28.29
699.051	28.57
699.235	28.98
699.42	29.3
699.604	30.06
699.789	29.79
699.973	29.35
700.158	29.28
700.342	28.97
700.527	28.42
700.711	27.77
700.895	28.39
701.08	28.74
701.264	27.87
701.448	27.4
701.633	27.46
701.817	27.58
702.001	27.94
702.186	27.65
702.37	27.49
702.554	28.54
702.738	29.03
702.923	28.26
703.107	28.07
703.291	29.06
703.475	28.98
703.659	29.03
703.843	29.55
704.027	29.46
704.212	29.39
704.396	29.92
704.58	29.06
704.764	28.74
704.948	28.74
705.132	28.06
705.316	27.72
705.5	28.39
705.684	28.33
705.868	27.96
706.052	28.55
706.235	28.95
706.419	27.68
706.603	29.16
706.787	29.08
706.971	28.9
707.155	28.75
707.339	28.62
707.522	28.08
707.706	28.27
707.89	28.59
708.074	27.83
708.257	27.56
708.441	28.36
708.625	27.1
708.808	27.13
708.992	27.11
709.176	27.7
709.359	27.29
709.543	26.92
709.727	27.23
709.91	26.86
710.094	27
710.277	27.42
710.461	27.5
710.644	27.7
710.828	27.58
711.011	27.75
711.195	27.98
711.378	28.25
711.562	28.82
711.745	27.7
711.928	28.19
712.112	28.04
712.295	27.9
712.478	28.78
712.662	28.62
712.845	28.65
713.028	28.49
713.212	28.4
713.395	28.33
713.578	27.56
713.761	28.4
713.945	27.49
714.128	28.05
714.311	27.24
714.494	25.55
714.677	25.04
714.86	25.19
715.043	26.06
715.227	25.67
715.41	26.08
715.593	27.3
715.776	27.79
715.959	28.17
716.142	28.28
716.325	29.01
716.508	30.6
716.691	31.48
716.874	31.07
717.057	29.89
717.239	30.89
717.422	30.6
717.605	29.8
717.788	28.54
717.971	28.66
718.154	27.55
718.337	27.08
718.519	26.78
718.702	25.38
718.885	26.23
719.068	26.42
719.25	25.33
719.433	25.29
719.616	26.16
719.798	26.04
719.981	26.03
720.164	26.7
720.346	27.67
720.529	26.85
720.712	27.78
720.894	27.89
721.077	27.59
721.259	26.54
721.442	27.16
721.624	26.26
721.807	27.24
721.989	28.72
722.172	29.32
722.354	28.41
722.537	28.83
722.719	28.6
722.901	27.32
723.084	27.52
723.266	28.36
723.448	27.22
723.631	27.54
723.813	26.96
723.995	25.22
724.178	24.85
724.36	24.94
724.542	24.19
724.724	24.48
724.907	25.69
725.089	26.79
725.271	27.92
725.453	28.22
725.635	28.18
725.817	28.07
725.999	28.79
726.181	27.94
726.364	28.44
726.546	28.84
726.728	28.41
726.91	29.16
727.092	28.93
727.274	28.27
727.456	27.62
727.638	27.09
727.819	28.02
728.001	27.23
728.183	27.17
728.365	26.97
728.547	26.17
728.729	26
728.911	24.6
729.093	24.6
729.274	24.75
729.456	25.56
729.638	25.61
729.82	25
730.001	25.76
730.183	27.8
730.365	27.92
730.546	28.48
730.728	29.19
730.91	29.87
731.091	29.54
731.273	29.38
731.455	30.15
731.636	30.5
731.818	30.89
731.999	30.33
732.181	29.32
732.362	27.99
732.544	27.2
732.725	26.82
732.907	27.35
733.088	27.59
733.27	27.5
733.451	26.91
733.633	27.09
733.814	26.22
733.995	27.28
734.177	26.97
734.358	28.05
734.539	29.05
734.721	28.34
734.902	27.04
735.083	26.61
735.264	27.57
735.446	26.81
735.627	25.84
735.808	27.03
735.989	26.04
736.17	26.73
736.351	25.34
736.533	26.03
736.714	27.92
736.895	28.6
737.076	27.47
737.257	26.17
737.438	25.94
737.619	27.73
737.8	26.95
737.981	26.93
738.162	25.35
738.343	26.5
738.524	26.48
738.705	25.62
738.886	25.83
739.067	27.13
739.247	28.65
739.428	29.39
739.609	29.2
739.79	29.32
739.971	29.46
740.151	30.16
740.332	31.09
740.513	29.79
740.694	29.54
740.874	30.39
741.055	29.49
741.236	29.14
741.417	28.7
741.597	28.14
741.778	27.86
741.958	27.42
742.139	28.59
742.32	26.71
742.5	26.28
742.681	26.72
742.861	25.18
743.042	24.03
743.222	22.48
743.403	23.66
743.583	22.68
743.764	22.97
743.944	22.23
744.124	21.64
744.305	23.23
744.485	23.33
744.666	22.65
744.846	21.7
745.026	23.48
745.207	24.11
745.387	23.14
745.567	25.12
745.747	25.44
745.928	24.9
746.108	23.87
746.288	24.44
746.468	27.02
746.648	24.71
746.829	25.34
747.009	26.14
747.189	26.05
747.369	26.05
747.549	25.11
747.729	23.86
747.909	25.3
748.089	26.12
748.269	25.01
748.449	25.09
748.629	26.62
748.809	26.4
748.989	26.08
749.169	25.62
749.349	26.49
749.529	25.41
749.709	27.39
749.889	25.84
750.068	25.37
750.248	24.79
750.428	22.56
750.608	23.19
750.788	24.67
750.967	25.36
751.147	24.52
751.327	24.44
751.507	25.75
751.686	25.53
751.866	28.05
752.046	27.78
752.225	29.56
752.405	31.25
752.585	32.19
752.764	31.67
752.944	30.27
753.123	31.88
753.303	32.08
753.482	30.62
753.662	30.47
753.841	29.38
754.021	31.25
754.2	29.26
754.38	28.38
754.559	27.78
754.739	28.14
754.918	27.73
755.097	27.37
755.277	26.92
755.456	27.53
755.635	26.74
755.815	27.6
755.994	26.48
756.173	26.02
756.352	24.95
756.532	24.43
756.711	25.33
756.89	26.29
757.069	25.54
757.248	24.98
757.427	25.75
757.607	26.69
757.786	24.92
757.965	24.71
758.144	25.52
758.323	24.97
758.502	25.91
758.681	23.42
758.86	22.75
759.039	24.66
759.218	23.63
759.397	24.44
759.576	23.65
759.755	24.04
759.934	23.3
760.113	24.72
760.291	24.43
760.47	24.78
760.649	25.96
760.828	25
761.007	24.25
761.186	26.01
761.364	26.12
761.543	26.25
761.722	26.25
761.901	25.87
762.079	25.67
762.258	27.46
762.437	27.21
762.615	27.33
762.794	28.7
762.972	27.47
763.151	27.02
763.33	25.91
763.508	26.14
763.687	26.16
763.865	26.96
764.044	26.24
764.222	25.52
764.401	25.68
764.579	25.78
764.758	26.09
764.936	26.07
765.114	26.18
765.293	26.48
765.471	24.94
765.65	25.03
765.828	24.45
766.006	25.89
766.184	26.33
766.363	25.97
766.541	25.82
766.719	24.35
766.898	25.96
767.076	26.03
767.254	26.89
767.432	29.23
767.61	30.49
767.788	30.55
767.967	29.33
768.145	29.17
768.323	28.54
768.501	27.42
768.679	28.79
768.857	28.15
769.035	27.72
769.213	26.44
769.391	24.63
769.569	23.59
769.747	25.71
769.925	25
770.103	24.43
770.281	26.1
770.459	27.25
770.636	26.43
770.814	27.35
770.992	27.58
771.17	28.42
771.348	29.3
771.525	30.19
771.703	27.95
771.881	29.02
772.059	29.32
772.236	27.18
772.414	24.31
772.592	22.84
772.769	23.7
772.947	23.88
773.125	22.25
773.302	22.71
773.48	23.64
773.657	23.13
773.835	24.06
774.013	23.44
774.19	22.13
774.368	25.31
774.545	26.81
774.723	25.3
774.9	23.78
775.077	26.47
775.255	26.19
775.432	26.57
775.61	27.32
775.787	26.06
775.964	26.63
776.142	28.46
776.319	25.58
776.496	26.5
776.674	26.8
776.851	28.07
777.028	28.38
777.205	30.27
777.382	29.59
777.56	27.65
777.737	28.89
777.914	27.28
778.091	27.73
778.268	31.6
778.445	32.55
778.622	32.78
778.8	31.7
778.977	28.83
779.154	27.69
779.331	24.56
779.508	25.86
779.685	22.02
779.862	21.2
780.038	21.45
780.215	23.81
780.392	18.33
780.569	17.3
780.746	17.01
780.923	17.97
781.1	18.68
781.277	21.21
781.453	21.48
781.63	24.71
781.807	25.98
781.984	25.56
782.16	22.58
782.337	26.5
782.514	26.44
782.691	28.9
782.867	27.68
783.044	27.47
783.221	26.37
783.397	25.82
783.574	23.64
783.75	24.8
783.927	24.02
784.103	20.51
784.28	16.29
784.456	15.23
784.633	11.26
784.809	11.4
784.986	10.54
785.162	10.13
785.339	8.85
785.515	9.94
785.692	10.72
785.868	10.44
786.044	12.42
786.221	16
786.397	15.9
786.573	19.26
786.749	17.54
786.926	18.79
787.102	19.25
787.278	22.32
787.454	23.5
787.631	21.43
787.807	22.06
787.983	23.92
788.159	24.97
788.335	28.16
788.511	25.7
788.687	26.34
788.863	25.28
789.039	23.86
789.216	22.83
789.392	21.35
789.568	26.92
789.744	27.29
789.919	29.12
790.095	27.56
790.271	25.24
790.447	25.72
790.623	29.27
790.799	28.85
790.975	31.9
791.151	33.33
791.327	34.44
791.502	31.13
791.678	29.34
791.854	26.62
792.03	30.55
792.205	27.52
792.381	29.28
792.557	28.84
792.733	28.64
792.908	27.72
793.084	25.04
793.259	27.22
793.435	28.11
793.611	33.06
793.786	31.44
793.962	27.32
794.137	31.98
794.313	27.21
794.488	28.91
794.664	27.66
794.839	26.43
795.015	28.48
795.19	27.62
795.366	26.43
795.541	22.16
795.716	22.58
795.892	23.86
796.067	19.19
796.242	23.91
796.418	21.87
796.593	23.27
796.768	25.92
796.944	25.51
797.119	24.32
797.294	24.19
797.469	23.51
797.644	23.85
797.82	22.93
797.995	25.35
798.17	26.58
798.345	24.44
798.52	23.2
798.695	21.56
798.87	21.77
799.045	22.95
799.22	22.88
799.395	25.03
799.57	24.4
799.745	27.63
799.92	27.93
800.095	23.83
800.27	22.87
800.445	24.58
800.62	24.62
800.795	24.71
800.97	26.6
801.145	27.24
801.319	22.05
801.494	26.14
801.669	27.49
801.844	30.13
802.018	32.81
802.193	34.02
802.368	31.41
802.543	30.1
802.717	32.12
802.892	26.77
803.067	22.78
803.241	27.68
803.416	24.94
803.59	19.26
803.765	17.17
803.94	20.73
804.114	22.81
804.289	18.75
804.463	18.76
804.638	16.58
804.812	23.05
804.986	25.6
805.161	24.84
805.335	22.88
805.51	24.36
805.684	20.57
805.858	18.49
806.033	12.83
806.207	16.07
806.381	21.28
806.556	22.98
806.73	17.21
806.904	18.1
807.078	19.02
807.253	22.11
807.427	18.95
807.601	25.47
807.775	21.68
807.949	27.11
808.123	28.82
808.298	29.04
808.472	24.02
808.646	26.03
808.82	24.25
808.994	22.3
809.168	18.37
809.342	17.21
809.516	16.69
809.69	21.36
809.864	19.35
810.038	21.68
810.212	20.91
810.385	27.44
810.559	28.19
810.733	27.46
810.907	30.24
811.081	31.16
811.255	37.13
811.428	36.7
811.602	35.5
811.776	37.94
811.95	35.47
812.123	32.21
812.297	23.84
812.471	21.74
812.644	26.07
812.818	26.88
812.992	26.28
813.165	26.5
813.339	25.71
813.512	25.01
813.686	22.63
813.86	25.95
814.033	24.97
814.207	26.97
814.38	28.72
814.554	28.07
814.727	23.93
814.9	23.89
815.074	24.61
815.247	20.37
815.421	20.43
815.594	24.67
815.767	21.6
815.941	27.69
816.114	29.47
816.287	27.5
816.46	25
816.634	29.56
816.807	34.31
816.98	35.07
817.153	45.71
817.327	46.77
817.5	43.18
817.673	44.13
817.846	36.93
818.019	36.22
818.192	35.7
818.365	35.78
818.538	32.57
818.711	27.17
818.884	32.61
819.057	27.14
819.23	21.3
819.403	19.25
819.576	20.76
819.749	29.79
819.922	31.12
820.095	37.1
820.268	34.22
820.441	35.15
820.614	36.04
820.786	29.85
820.959	29.94
821.132	30.41
821.305	30.58
821.477	30.09
821.65	28.69
821.823	28.07
821.996	25.77
822.168	27.13
822.341	27.35
822.514	26.94
822.686	27.54
822.859	26.89
823.031	27.09
823.204	27.53
823.376	27.86
823.549	26.93
823.722	27.01
823.894	27.01
824.067	27.21
824.239	26.97
824.411	26.88
824.584	26.25
824.756	26.19
824.929	26.21
825.101	26.09
825.273	25.18
825.446	26.9
825.618	27.51
825.79	28.56
825.963	27.28
826.135	26.51
826.307	28.2
826.479	28.59
826.652	27.89
826.824	28.06
826.996	27.72
827.168	27.38
827.34	26.31
827.512	23.66
827.684	22.83
827.856	23.52
828.029	24.08
828.201	21.66
828.373	21.45
828.545	22.7
828.717	20.57
828.889	18.99
829.061	19.07
829.232	16.19
829.404	16.94
829.576	15.33
829.748	12.63
829.92	11.2
830.092	13.54
830.264	13.27
830.436	11.65
830.607	12.77
830.779	14.64
830.951	15.9
831.123	18.04
831.294	19.89
831.466	20.35
831.638	20.81
831.809	23.23
831.981	17.23
832.153	18.64
832.324	15.52
832.496	21.77
832.667	18.54
832.839	19.25
833.011	23.33
833.182	26.61
833.354	26.12
833.525	32.01
833.697	29.11
833.868	31.34
834.039	28.19
834.211	32.21
834.382	30.25
834.554	31.55
834.725	29.33
834.896	28.33
835.068	26.86
835.239	28.53
835.41	26.18
835.581	26.73
835.753	27.16
835.924	28.15
836.095	26.47
836.266	26.87
836.438	25.77
836.609	26.5
836.78	30.04
836.951	24.87
837.122	22.72
837.293	18.54
837.464	17.04
837.635	12.27
837.806	15.43
837.977	11.36
838.148	6.4
838.319	12.35
838.49	10.86
838.661	7.77
838.832	13.2
839.003	12.95
839.174	14.61
839.345	22.6
839.516	23.52
839.687	16.07
839.857	14.13
840.028	18.13
840.199	13.14
840.37	12.52
840.54	4.78
840.711	4.91
840.882	8.23
841.053	9.04
841.223	-0.66
841.394	-14.69
841.564	-5.13
841.735	9.57
841.906	10.95
842.076	13.31
842.247	10.13
842.417	10.89
842.588	18.85
842.758	16.81
842.929	14.21
843.099	15.68
843.27	20.25
843.44	21.11
843.611	5.73
843.781	-5.64
843.951	-11.97
844.122	-0.86
844.292	-1.12
844.462	-12.39
844.633	-11.29
844.803	-19.77
844.973	-24.43
845.144	-12.08
845.314	-26.25
845.484	-8.92
845.654	-5.57
845.824	3.49
845.995	-3.34
846.165	-7.17
846.335	-2.42
846.505	-9.84
846.675	-2.87
846.845	-0.49
847.015	3.39
847.185	20.97
847.355	15.18
847.525	17.39
847.695	6.52
847.865	1.23
848.035	14.75
848.205	18.27
848.375	54.22
848.545	28.46
848.715	29.17
848.884	10.61
849.054	20.11
849.224	10.59
849.394	20.79
849.564	24.1
849.733	18.34
849.903	3.67
850.073	1.37
850.243	-19.39
850.412	-26.8
850.582	-15.49
850.752	7.72
850.921	-9.18
851.091	2.14
851.26	-0.03
851.43	3.9
851.599	10.27
851.769	8.88
851.939	-3.47
852.108	6.64
852.278	25.96
852.447	12.49
852.616	16.36
852.786	15.56
852.955	14.68
853.125	14.77
853.294	18.99
853.463	35.51
853.633	46.33
853.802	83.51
853.971	86.17
854.141	87.38
854.31	77.2
854.479	62.57
854.648	71.69
854.818	96.99
854.987	115.52
855.156	113.15
855.325	64.13
855.494	71.2
855.663	39.83
855.832	27.95
856.001	32.83
856.171	54.52
856.34	71.57
856.509	49.53
856.678	37.97
856.847	-3.91
857.016	-22.77
857.185	18.72
857.353	37.09
857.522	46.49
857.691	37.51
857.86	46.87
858.029	31.76
858.198	28.4
858.367	46.63
858.535	6.12
858.704	12.02
858.873	13.74
859.042	-43.41
859.21	-62.9
859.379	-98.21
859.548	-81.93
859.717	-83.23
859.885	-120.69
860.054	-108.9
860.222	-155.66
860.391	-152.77
860.56	-189.81
860.728	-224.25
860.897	-40.53
861.065	-85.49
861.234	-73.05
861.402	-40.41
861.571	-13.62
861.739	-43.62
861.908	-45.83
862.076	-2.72
862.244	-16.68
862.413	-26.56
862.581	-9.22
862.749	0.86
862.918	-20.21
863.086	-14.3
863.254	-7.09
863.423	-23.72
863.591	22.18
863.759	41.23
863.927	40.75
864.096	63.81
864.264	67.48
864.432	68
864.6	64.73
864.768	84.65
864.936	76.66
865.104	57.95
865.272	51.04
865.44	31.4
865.608	6.4
865.776	-7.58
865.944	-13.47
866.112	-31.19
866.28	-24.79
866.448	-13.52
866.616	-49
866.784	-16.72
866.952	-5.5
867.12	14.84
867.288	32.68
867.455	21.36
867.623	26.16
867.791	14.8
867.959	31.27
868.127	22.85
868.294	-21.61
868.462	15.95
868.63	-14.22
868.797	-5.76
868.965	-16.4
869.133	-27.63
869.3	17.2
869.468	36.28
869.636	38.45
869.803	27.38
869.971	52.99
870.138	73.07
870.306	62.55
870.473	41.57
870.641	25.01
870.808	18.96
870.975	10.14
871.143	-41.83
871.31	-58.28
871.478	-82.34
871.645	-82.56
871.812	-98.8
871.98	-112.22
872.147	-92.93
872.314	-8.77
872.482	-7.66
872.649	-4.48
872.816	6.61
872.983	39.8
873.15	78.86
873.318	91.39
873.485	63.45
873.652	70.29
873.819	42.47
873.986	51.42
874.153	23.56
874.32	37.04
874.487	34.68
874.654	15.9
874.821	9.99
874.988	-87.89
875.155	-59.23
875.322	28.59
875.489	20.91
875.656	63.87
875.823	69.77
875.99	68.4
876.157	52.53
876.324	68.1
876.49	79.38
876.657	80.27
876.824	71.31
876.991	62.49
877.157	73.57
877.324	86.53
877.491	95.58
877.658	77.72
877.824	85.06
877.991	66.93
878.157	10.14
878.324	7.83
878.491	-36.22
878.657	-35.49
878.824	-35.76
878.99	-64.55
879.157	-24.96
879.323	-56.39
879.49	-98.37
879.656	-60.2
879.823	-41.78
879.989	-34.56
880.156	-42.51
880.322	-34.77
880.488	49.25
880.655	65.98
880.821	57.87
880.987	27.37
881.154	36.09
881.32	49.61
881.486	35.75
881.652	27.75
881.819	25.68
881.985	33.62
882.151	39.96
882.317	34.56
882.483	33.93
882.649	39.74
882.816	38.11
882.982	36.86
883.148	34.89
883.314	32.48
883.48	33.94
883.646	32.19
883.812	25.91
883.978	24.59
884.144	27.26
884.31	26.01
884.476	24.27
884.642	23.29
884.807	24.73
884.973	25.91
885.139	28.11
885.305	26.67
885.471	24.6
885.637	25.52
885.802	24.82
885.968	19.6
886.134	22.13
886.3	14.92
886.465	13.26
886.631	14.08
886.797	13.06
886.962	4.93
887.128	1.45
887.293	-1.32
887.459	1.87
887.625	-2.43
887.79	4.81
887.956	0.48
888.121	8.48
888.287	10.47
888.452	-3.01
888.618	-5.27
888.783	-4.6
