Data from 2937889_Reflection_3.txt Node
Date: Wed Jul 15 14:17:56 EDT 2015
User: robert
Spectrometer: USB4E03001
Autoset integration time: false
Trigger mode: 4
Integration Time (sec): 1.000000E-1
Scans to average: 10
Electric dark correction enabled: true
Nonlinearity correction enabled: false
Boxcar width: 5
Stray light correction enabled: false
XAxis mode: Wavelengths
Stop averaging: false
Number of Pixels in Spectrum: 3648
>>>>>Begin Spectral Data<<<<<
177.566	69.01
177.785	28.79
178.005	56.98
178.225	60.23
178.445	67.3
178.665	41.7
178.885	390.4
179.105	91.2
179.324	85.49
179.544	69.71
179.764	73.11
179.984	72.15
180.204	85.86
180.423	85.02
180.643	80.67
180.863	75.4
181.083	63.45
181.302	65.15
181.522	51.31
181.742	65.22
181.961	39.52
182.181	153.19
182.401	136.32
182.621	277.73
182.84	957.4
183.06	1246.29
183.279	-63.5
183.499	173.61
183.719	-23.7
183.938	-32.42
184.158	-80.18
184.377	36.93
184.597	4.2
184.816	0.29
185.036	30.52
185.256	26.4
185.475	112.91
185.695	335.06
185.914	119.14
186.134	-1195
186.353	-107.22
186.572	799.61
186.792	-1003.74
187.011	320.16
187.231	336.48
187.45	1720.68
187.67	662.35
187.889	240.2
188.108	235
188.328	194.59
188.547	19.45
188.766	40.36
188.986	-1.79
189.205	-259.92
189.424	-165.69
189.644	-91.75
189.863	-84.82
190.082	-70.46
190.302	-29.15
190.521	2.52
190.74	7.47
190.959	10.11
191.178	29.91
191.398	53.02
191.617	143.23
191.836	-227.96
192.055	-17.03
192.274	-86.69
192.494	-30.71
192.713	38.57
192.932	55.49
193.151	-60.91
193.37	31.79
193.589	21.97
193.808	68.38
194.027	34.14
194.246	22.87
194.465	-0.17
194.685	-48.54
194.904	-46.12
195.123	-30.71
195.342	-1.5
195.561	-58
195.78	-66.96
195.999	-23.01
196.218	-108.96
196.436	-438.81
196.655	-965.65
196.874	-547.83
197.093	-569.48
197.312	267.18
197.531	-302.01
197.75	-5558.02
197.969	279.8
198.188	1536.89
198.407	379.99
198.625	1448.54
198.844	-159.73
199.063	-84
199.282	-60.23
199.501	-307.89
199.719	-1534.88
199.938	374.04
200.157	353.23
200.376	816.71
200.594	-1906.49
200.813	-1764.4
201.032	-509.39
201.251	3103.92
201.469	-4835.8
201.688	-216.64
201.907	-23.14
202.125	15.45
202.344	25.86
202.563	21.66
202.781	0.31
203	-31.18
203.218	-0.83
203.437	1.29
203.656	22.89
203.874	16.59
204.093	14.82
204.311	11.25
204.53	-65.28
204.748	-131.07
204.967	-53.01
205.185	-36.58
205.404	7.69
205.622	13.85
205.841	25.14
206.059	32.8
206.278	32.59
206.496	48.74
206.715	93.91
206.933	113.4
207.151	155.41
207.37	216.73
207.588	194.51
207.806	227.95
208.025	248.38
208.243	234.91
208.461	297.47
208.68	652.3
208.898	423.6
209.116	313.89
209.335	246.11
209.553	221.86
209.771	328.01
209.989	350.79
210.208	305.09
210.426	-342.13
210.644	8.33
210.862	-86.72
211.081	146.82
211.299	77.75
211.517	166.82
211.735	184.6
211.953	157.66
212.171	128.59
212.39	127.54
212.608	147.64
212.826	135.72
213.044	103.74
213.262	114.13
213.48	114.54
213.698	126.72
213.916	82.51
214.134	59.05
214.352	-585.34
214.57	222.03
214.788	-254.91
215.006	-64.77
215.224	-48.36
215.442	1.01
215.66	-121.85
215.878	171.44
216.096	44.71
216.314	44.26
216.532	47.63
216.75	14.79
216.968	30.26
217.185	37.19
217.403	29.15
217.621	25.6
217.839	31.9
218.057	30.21
218.275	54.93
218.492	99.64
218.71	100.1
218.928	125.6
219.146	62.4
219.363	49.07
219.581	29.23
219.799	23.83
220.017	19.58
220.234	12.19
220.452	-0.66
220.67	1.28
220.887	-71.63
221.105	-229.13
221.323	-501.55
221.54	-140.98
221.758	-226.26
221.976	-161.21
222.193	-67.45
222.411	-61.71
222.629	-89.37
222.846	-22.6
223.064	-140.3
223.281	90.04
223.499	57.14
223.716	42.02
223.934	134.14
224.151	204.22
224.369	243.08
224.586	454.99
224.804	691.22
225.021	-11877.55
225.239	-2192.66
225.456	402.74
225.674	150.16
225.891	128.04
226.108	97.87
226.326	79.23
226.543	52.76
226.76	13.15
226.978	9.01
227.195	6.17
227.413	8.46
227.63	3.27
227.847	5.27
228.064	5.67
228.282	13.37
228.499	13.98
228.716	16.22
228.934	15.73
229.151	18.72
229.368	16.27
229.585	15.47
229.802	18.38
230.02	19.54
230.237	17.08
230.454	15.75
230.671	12.3
230.888	14.88
231.105	11.49
231.323	10.9
231.54	11.59
231.757	4.64
231.974	1.26
232.191	-2.69
232.408	-1.78
232.625	3.14
232.842	4.01
233.059	5.15
233.276	-7.4
233.493	7.64
233.71	10.12
233.927	11.35
234.144	26.42
234.361	26.69
234.578	24.77
234.795	25.2
235.012	22.71
235.229	19.61
235.446	20.96
235.663	23.92
235.879	20.48
236.096	15.65
236.313	16.03
236.53	8.86
236.747	10.15
236.964	11.21
237.181	18.98
237.397	17.05
237.614	15.58
237.831	16.58
238.048	13.76
238.264	16.73
238.481	16.31
238.698	12.53
238.915	16.3
239.131	21.08
239.348	26.68
239.565	23.39
239.781	24.81
239.998	24.2
240.215	16.44
240.431	19.13
240.648	14.09
240.865	17.06
241.081	16.04
241.298	14.95
241.514	14.76
241.731	12.04
241.947	9.14
242.164	8.27
242.38	8.44
242.597	9.13
242.814	8.47
243.03	9.55
243.246	6.87
243.463	9.11
243.679	9.13
243.896	7.65
244.112	8.9
244.329	8.01
244.545	10.37
244.762	11.27
244.978	12.18
245.194	13.38
245.411	15.59
245.627	18.02
245.843	16.73
246.06	16.16
246.276	16.69
246.492	17.44
246.709	17.12
246.925	16.08
247.141	16.24
247.357	17.45
247.574	16.75
247.79	16.11
248.006	16.06
248.222	15.67
248.439	16
248.655	15.79
248.871	14.22
249.087	15.31
249.303	14.47
249.519	14.8
249.736	13.73
249.952	15.12
250.168	15.19
250.384	12.57
250.6	12.82
250.816	13.05
251.032	11.95
251.248	10.17
251.464	7.96
251.68	10.95
251.896	10.27
252.112	11.59
252.328	8.57
252.544	7.17
252.76	9.37
252.976	9.47
253.192	8.06
253.408	6.87
253.624	9.1
253.84	8.15
254.056	5.46
254.272	3.89
254.487	2.72
254.703	5.53
254.919	7.24
255.135	8.94
255.351	3.23
255.567	7.11
255.782	7.74
255.998	7.91
256.214	12.23
256.43	14.97
256.646	15.64
256.861	15.68
257.077	15.36
257.293	13.42
257.508	11.27
257.724	15.05
257.94	13.2
258.155	14.68
258.371	13.87
258.587	15.42
258.802	13.73
259.018	13.02
259.234	12.76
259.449	12.01
259.665	12.29
259.88	12.73
260.096	11.74
260.312	10.94
260.527	10.84
260.743	11.01
260.958	10.26
261.174	10.76
261.389	10.19
261.605	9.34
261.82	9.11
262.036	8.66
262.251	9.07
262.466	9.4
262.682	11.37
262.897	10.58
263.113	10.2
263.328	9.08
263.543	11.46
263.759	14.9
263.974	17.28
264.189	18.34
264.405	18.18
264.62	19.08
264.835	19.86
265.051	17.4
265.266	19.3
265.481	21.06
265.696	22.62
265.912	18.71
266.127	14.95
266.342	13.68
266.557	13.97
266.773	15.3
266.988	12.38
267.203	12.27
267.418	12.01
267.633	10.43
267.848	9.79
268.064	8.48
268.279	8.96
268.494	10.42
268.709	10.71
268.924	9.76
269.139	8.88
269.354	10.77
269.569	11.39
269.784	12.36
269.999	12.29
270.214	10.45
270.429	11.13
270.644	12.2
270.859	11.13
271.074	10.24
271.289	9.64
271.504	9.65
271.719	8.31
271.934	8.68
272.149	8.63
272.363	8.94
272.578	10.05
272.793	10.49
273.008	9.65
273.223	9.58
273.438	9.14
273.653	10.24
273.867	9.79
274.082	9.61
274.297	9.94
274.512	8.88
274.726	9.43
274.941	11.45
275.156	10.03
275.371	9.91
275.585	12.11
275.8	12.8
276.015	13.31
276.229	14.89
276.444	13.67
276.659	12.11
276.873	14.29
277.088	14.03
277.302	11.74
277.517	11.23
277.732	12.37
277.946	10.24
278.161	10.36
278.375	7.65
278.59	6.17
278.804	9.21
279.019	9.51
279.233	8.29
279.448	7.8
279.662	8.16
279.877	9.57
280.091	10.85
280.306	11.72
280.52	11.72
280.735	14.34
280.949	14.81
281.163	14.1
281.378	12.78
281.592	12.16
281.806	12.97
282.021	11.96
282.235	11.17
282.449	10.84
282.664	11.44
282.878	10.37
283.092	9.87
283.307	9.98
283.521	9.56
283.735	10.68
283.949	10.31
284.164	9.67
284.378	9.24
284.592	9.44
284.806	7.49
285.02	5.84
285.234	6.68
285.449	6.38
285.663	5.95
285.877	6.92
286.091	5.91
286.305	6.85
286.519	8.01
286.733	9.22
286.947	10.35
287.161	10.91
287.375	11.03
287.589	9.79
287.803	9.32
288.017	9.7
288.231	8.5
288.445	9.7
288.659	10.99
288.873	10.58
289.087	9.08
289.301	8.69
289.515	8.76
289.729	9.54
289.943	11.03
290.157	11.08
290.371	10.51
290.584	10.88
290.798	10.29
291.012	7.99
291.226	7.04
291.44	8.52
291.654	7.61
291.867	8.65
292.081	8.25
292.295	7.46
292.509	7.21
292.722	8.2
292.936	8.57
293.15	9.88
293.364	10.7
293.577	10.41
293.791	10.29
294.005	12.41
294.218	10.58
294.432	11.63
294.645	12.46
294.859	13.42
295.073	12.82
295.286	12.81
295.5	12.1
295.713	13.05
295.927	15.22
296.14	15.36
296.354	14.29
296.568	15.05
296.781	14.44
296.994	14.13
297.208	14.81
297.421	15.36
297.635	15.08
297.848	14.73
298.062	14.38
298.275	12.71
298.489	12.46
298.702	11.99
298.915	11.78
299.129	12.15
299.342	13.34
299.555	12.42
299.769	11.96
299.982	12.97
300.195	14.39
300.409	16.72
300.622	18.15
300.835	18.19
301.048	19.55
301.262	20
301.475	20.52
301.688	20.61
301.901	19.98
302.115	20.53
302.328	19.47
302.541	19.04
302.754	17.16
302.967	17.79
303.18	17.53
303.393	17.57
303.607	18.13
303.82	16.11
304.033	15.64
304.246	17.18
304.459	17.12
304.672	17.46
304.885	17.03
305.098	17.39
305.311	16.44
305.524	14.62
305.737	14.02
305.95	13.61
306.163	15.81
306.376	14.73
306.589	15.46
306.802	16.03
307.015	16.61
307.228	15.73
307.44	15.92
307.653	15.93
307.866	17.24
308.079	18.12
308.292	16.97
308.505	15.24
308.718	15.41
308.93	12.76
309.143	11.56
309.356	10.57
309.569	11.98
309.781	13.18
309.994	13.36
310.207	13.7
310.42	12.92
310.632	13.42
310.845	14.98
311.058	15.81
311.27	17.25
311.483	17.77
311.696	18.47
311.908	18.19
312.121	16.42
312.333	16.28
312.546	17.38
312.759	17.9
312.971	19.48
313.184	18.74
313.396	17.51
313.609	16.79
313.821	17.38
314.034	18.44
314.246	19.32
314.459	19.93
314.671	18.53
314.884	19.24
315.096	18.77
315.309	19.18
315.521	19
315.733	20.58
315.946	22.12
316.158	21.78
316.371	20.2
316.583	18.57
316.795	17.88
317.008	18.96
317.22	17.55
317.432	17.53
317.644	14.68
317.857	16.3
318.069	15.37
318.281	14.71
318.494	15.77
318.706	17.61
318.918	18.78
319.13	19.47
319.342	19.1
319.555	20.68
319.767	21.39
319.979	22.53
320.191	21.78
320.403	21.53
320.615	19.46
320.827	18.17
321.039	15.81
321.252	16.85
321.464	16.6
321.676	16.97
321.888	16.24
322.1	15.62
322.312	15.63
322.524	15.42
322.736	16.53
322.948	18.73
323.16	19.85
323.372	20.32
323.584	20.04
323.796	20.39
324.007	21.52
324.219	21.24
324.431	21.27
324.643	22.02
324.855	22.05
325.067	23.31
325.279	24.03
325.491	24.46
325.702	26.02
325.914	25.52
326.126	25.18
326.338	24.44
326.55	24.72
326.761	27.22
326.973	27.31
327.185	28.05
327.396	28.77
327.608	28.39
327.82	28.5
328.032	28.31
328.243	30.13
328.455	32.46
328.666	33.51
328.878	34.24
329.09	33.1
329.301	32.9
329.513	33.27
329.725	30.66
329.936	32.43
330.148	32.26
330.359	32.67
330.571	30.94
330.782	30.45
330.994	31.27
331.205	31.62
331.417	29.61
331.628	30.73
331.84	31.59
332.051	33.46
332.262	31.45
332.474	31.75
332.685	32.15
332.897	33.52
333.108	34.47
333.319	33.98
333.531	34.74
333.742	36.69
333.953	38.27
334.165	39.34
334.376	40.01
334.587	41.6
334.799	42.38
335.01	43.97
335.221	45.21
335.432	44.88
335.644	44.83
335.855	45.55
336.066	44.45
336.277	43.4
336.488	43.1
336.7	42.65
336.911	42.17
337.122	42.81
337.333	42.58
337.544	43.33
337.755	44.59
337.966	45.69
338.177	45.49
338.388	47.93
338.599	48.06
338.811	48.19
339.022	48.32
339.233	49.51
339.444	48.84
339.655	48.18
339.866	47
340.076	46.86
340.287	47.52
340.498	47.46
340.709	46.18
340.92	46.77
341.131	47.43
341.342	48.37
341.553	47.28
341.764	48.24
341.975	48.61
342.185	48.44
342.396	47.79
342.607	47.67
342.818	47.17
343.029	47
343.239	46.12
343.45	43.89
343.661	43.62
343.872	45.07
344.082	44.13
344.293	43.76
344.504	44.94
344.714	45.13
344.925	44.85
345.136	44.97
345.346	45.58
345.557	46.03
345.768	48.19
345.978	48.43
346.189	47.26
346.399	46.43
346.61	46.62
346.821	45.82
347.031	45.81
347.242	44.55
347.452	43.8
347.663	44.26
347.873	43.9
348.084	44.03
348.294	42.38
348.504	42.71
348.715	43.84
348.925	44.02
349.136	43.17
349.346	43.15
349.557	43.53
349.767	44.5
349.977	43.88
350.188	43.82
350.398	43.27
350.608	44.74
350.819	43.64
351.029	43.53
351.239	43.85
351.449	45.09
351.66	45.09
351.87	45.74
352.08	46.08
352.29	46.81
352.501	46.73
352.711	47.04
352.921	46.72
353.131	49.02
353.341	50.46
353.552	50.42
353.762	50.07
353.972	50.58
354.182	51.28
354.392	51.34
354.602	50.5
354.812	50.42
355.022	50.43
355.232	50.43
355.442	48.71
355.652	46.7
355.862	47.11
356.072	47.1
356.282	46.11
356.492	46.05
356.702	45.89
356.912	46.49
357.122	47.93
357.332	46.88
357.542	47.05
357.752	47.77
357.962	49.08
358.171	48.64
358.381	48.45
358.591	49.55
358.801	48.77
359.011	48.48
359.221	48.34
359.43	47.57
359.64	48
359.85	48.16
360.06	47.62
360.269	47.56
360.479	46.98
360.689	45.94
360.899	45.56
361.108	46.03
361.318	46.3
361.528	45.2
361.737	45.14
361.947	45.6
362.156	45.27
362.366	45.44
362.576	45.45
362.785	45.88
362.995	46.79
363.204	45.7
363.414	45.57
363.623	45.15
363.833	46.16
364.042	46.52
364.252	46.55
364.461	46.24
364.671	46.43
364.88	46.09
365.09	45.57
365.299	45.29
365.509	46.07
365.718	45.86
365.927	45.86
366.137	45.8
366.346	44.64
366.555	44.26
366.765	44.14
366.974	44.06
367.183	43.94
367.393	43.31
367.602	43.67
367.811	43.77
368.021	42.56
368.23	42.2
368.439	41.47
368.648	41.68
368.857	40.79
369.067	41.55
369.276	40.43
369.485	40.38
369.694	40.49
369.903	39.9
370.112	39.17
370.321	39.74
370.531	40.27
370.74	40.97
370.949	41.65
371.158	41.81
371.367	41.94
371.576	42.74
371.785	42.84
371.994	42.4
372.203	42.28
372.412	41.95
372.621	42.12
372.83	42.12
373.039	41.43
373.248	40.4
373.457	40.73
373.666	39.89
373.874	39.46
374.083	38.58
374.292	39.75
374.501	39.37
374.71	38.64
374.919	38.25
375.128	37.12
375.336	37.46
375.545	37.9
375.754	37.37
375.963	36.74
376.171	36.18
376.38	36.22
376.589	35.62
376.798	35.61
377.006	36.78
377.215	36.98
377.424	37.13
377.632	37.4
377.841	36.96
378.05	36.77
378.258	36.71
378.467	36.91
378.675	36.82
378.884	36.42
379.093	37
379.301	37.01
379.51	36.83
379.718	37.35
379.927	36.44
380.135	36.62
380.344	37.1
380.552	37.05
380.761	36.63
380.969	35.78
381.177	36.33
381.386	35.48
381.594	35.04
381.803	34.59
382.011	33.62
382.219	33.59
382.428	33.3
382.636	32.87
382.845	33.13
383.053	33.08
383.261	33.18
383.469	32.96
383.678	32.61
383.886	32.38
384.094	32.52
384.302	32.96
384.511	33.01
384.719	32.96
384.927	32.81
385.135	32.08
385.343	32.03
385.552	32.52
385.76	32.36
385.968	32.48
386.176	32.42
386.384	32.23
386.592	31.86
386.8	31.85
387.008	31.72
387.216	31.68
387.424	31.9
387.633	31.82
387.841	31.99
388.049	32.01
388.257	32.75
388.465	32.39
388.672	32.28
388.88	32.18
389.088	31.95
389.296	32.02
389.504	31.78
389.712	31.87
389.92	31.85
390.128	31.53
390.336	31.28
390.544	30.5
390.751	30.96
390.959	30.37
391.167	30.57
391.375	30.51
391.583	30.26
391.79	29.89
391.998	29.49
392.206	29.35
392.414	29.28
392.621	28.99
392.829	28.78
393.037	28.29
393.244	28.47
393.452	28.45
393.66	28.24
393.867	28.16
394.075	28.35
394.283	28.84
394.49	28.8
394.698	28.7
394.905	28.84
395.113	28.69
395.32	28.66
395.528	28.32
395.735	27.99
395.943	28.17
396.15	28.19
396.358	28.04
396.565	27.81
396.773	27.73
396.98	27.51
397.188	27.5
397.395	27.56
397.602	27.48
397.81	28.11
398.017	28.16
398.225	27.65
398.432	27.77
398.639	27.93
398.847	27.22
399.054	27.25
399.261	27.32
399.468	27.65
399.676	27.87
399.883	28.12
400.09	27.95
400.297	27.55
400.505	28.04
400.712	28.13
400.919	28.25
401.126	29.19
401.333	29.11
401.54	29.2
401.748	29.01
401.955	28.88
402.162	28.62
402.369	28.79
402.576	29.11
402.783	29.2
402.99	29
403.197	28.53
403.404	28
403.611	28.24
403.818	28.32
404.025	28.32
404.232	28.28
404.439	28.3
404.646	28.26
404.853	27.99
405.06	27.99
405.267	28.03
405.474	28.29
405.681	28.65
405.887	28.5
406.094	28.62
406.301	28.62
406.508	28.71
406.715	28.91
406.922	28.67
407.128	28.84
407.335	28.52
407.542	28.4
407.749	28.37
407.955	28.22
408.162	28.15
408.369	27.87
408.575	27.64
408.782	27.92
408.989	27.7
409.195	27.75
409.402	27.71
409.609	27.9
409.815	28.06
410.022	27.9
410.228	27.96
410.435	28.06
410.642	28.06
410.848	28.06
411.055	27.73
411.261	27.9
411.468	28.02
411.674	28.26
411.881	27.87
412.087	27.76
412.294	28.02
412.5	27.89
412.706	27.55
412.913	27.8
413.119	28.16
413.326	28.32
413.532	28.2
413.738	28.35
413.945	28.23
414.151	28.3
414.357	28.05
414.564	27.67
414.77	27.82
414.976	28.16
415.182	27.88
415.389	27.46
415.595	27.29
415.801	27.21
416.007	27.1
416.214	27.07
416.42	27.13
416.626	27.17
416.832	27.32
417.038	26.86
417.244	26.73
417.45	26.73
417.657	26.5
417.863	26.54
418.069	26.55
418.275	26.29
418.481	26.22
418.687	26.28
418.893	26.28
419.099	26.15
419.305	26.4
419.511	26.37
419.717	26.37
419.923	26.66
420.129	26.53
420.335	26.46
420.541	26.57
420.746	26.55
420.952	26.56
421.158	26.43
421.364	26.39
421.57	26.2
421.776	26.24
421.982	26.13
422.187	26.17
422.393	26.15
422.599	26.12
422.805	26.08
423.01	25.99
423.216	25.97
423.422	26.06
423.628	26.24
423.833	26.37
424.039	26.39
424.245	26.42
424.45	26.16
424.656	26.32
424.862	26.35
425.067	26.44
425.273	26.66
425.478	26.61
425.684	26.59
425.889	26.39
426.095	26.37
426.301	26.37
426.506	26.43
426.712	26.37
426.917	26.34
427.123	26.3
427.328	26.39
427.533	26.21
427.739	26.09
427.944	26.01
428.15	26.11
428.355	26.14
428.561	26.11
428.766	25.9
428.971	26.22
429.177	26.26
429.382	26.53
429.587	26.3
429.793	26.21
429.998	26.46
430.203	26.22
430.408	26.23
430.614	26.26
430.819	26.27
431.024	26.2
431.229	25.95
431.434	25.63
431.64	25.4
431.845	25.25
432.05	25.54
432.255	25.39
432.46	25.79
432.665	25.77
432.87	25.84
433.076	25.69
433.281	25.92
433.486	25.97
433.691	26.2
433.896	26.09
434.101	26.22
434.306	25.98
434.511	26.1
434.716	26.06
434.921	26.13
435.126	26.13
435.331	26.23
435.535	26.12
435.74	26.08
435.945	26.08
436.15	26.23
436.355	26.04
436.56	26.18
436.765	26.03
436.97	26.02
437.174	25.89
437.379	25.56
437.584	25.49
437.789	25.52
437.993	25.72
438.198	25.68
438.403	25.66
438.608	25.85
438.812	25.62
439.017	25.72
439.222	25.65
439.426	25.72
439.631	25.95
439.836	26.16
440.04	26.32
440.245	26.27
440.45	26.14
440.654	26.18
440.859	26.05
441.063	26.24
441.268	26.22
441.472	26.27
441.677	26.24
441.881	26.15
442.086	25.81
442.29	25.66
442.495	25.54
442.699	25.73
442.904	25.55
443.108	25.77
443.312	25.52
443.517	25.58
443.721	25.58
443.925	25.57
444.13	25.6
444.334	25.67
444.538	25.72
444.743	25.66
444.947	25.72
445.151	25.65
445.356	25.51
445.56	25.72
445.764	25.61
445.968	25.51
446.173	25.54
446.377	25.51
446.581	25.48
446.785	25.42
446.989	25.41
447.193	25.28
447.398	25.42
447.602	25.35
447.806	25.41
448.01	25.29
448.214	25.3
448.418	25.27
448.622	25.24
448.826	25.17
449.03	25.13
449.234	25.18
449.438	25.13
449.642	25.06
449.846	25.01
450.05	24.69
450.254	24.76
450.458	24.78
450.662	24.69
450.866	24.8
451.069	25.04
451.273	25.14
451.477	25.26
451.681	25.36
451.885	25.31
452.089	25.63
452.292	25.82
452.496	25.85
452.7	25.84
452.904	25.95
453.107	25.78
453.311	25.98
453.515	25.87
453.719	25.82
453.922	25.52
454.126	25.59
454.33	25.52
454.533	25.27
454.737	25.11
454.94	25.1
455.144	24.93
455.348	24.87
455.551	24.59
455.755	24.7
455.958	24.44
456.162	24.67
456.365	24.64
456.569	24.49
456.772	24.74
456.976	24.96
457.179	24.93
457.383	25.21
457.586	25.23
457.79	25.3
457.993	25.28
458.196	25.39
458.4	25.46
458.603	25.55
458.807	25.73
459.01	25.66
459.213	25.55
459.417	25.58
459.62	25.56
459.823	25.56
460.026	25.33
460.23	25.47
460.433	25.5
460.636	25.4
460.839	25.4
461.042	25.18
461.246	25.27
461.449	25.34
461.652	25.26
461.855	25.27
462.058	25.46
462.261	25.68
462.464	25.54
462.668	25.63
462.871	25.86
463.074	25.92
463.277	26.04
463.48	25.82
463.683	25.79
463.886	25.98
464.089	25.83
464.292	25.65
464.495	25.7
464.698	25.82
464.901	25.81
465.104	25.67
465.306	25.61
465.509	25.56
465.712	25.71
465.915	25.75
466.118	25.52
466.321	25.48
466.524	25.71
466.726	25.64
466.929	25.51
467.132	25.35
467.335	25.39
467.538	25.31
467.74	25.35
467.943	25.35
468.146	25.32
468.348	25.26
468.551	25.32
468.754	25.08
468.956	25.29
469.159	25.4
469.362	25.32
469.564	25.2
469.767	25.24
469.969	25.34
470.172	25.21
470.375	25.18
470.577	25.54
470.78	25.35
470.982	25.69
471.185	25.52
471.387	25.59
471.59	25.72
471.792	25.81
471.995	25.85
472.197	25.88
472.399	25.82
472.602	25.83
472.804	25.79
473.007	26.07
473.209	25.85
473.411	25.85
473.614	25.56
473.816	25.62
474.018	25.4
474.22	25.32
474.423	25.29
474.625	25.56
474.827	25.71
475.03	25.63
475.232	25.4
475.434	25.32
475.636	25.33
475.838	25.45
476.04	25.35
476.243	25.55
476.445	25.58
476.647	25.58
476.849	25.48
477.051	25.51
477.253	25.62
477.455	25.73
477.657	25.78
477.859	25.84
478.061	25.84
478.263	26
478.465	26
478.667	26.07
478.869	25.9
479.071	26.17
479.273	26.12
479.475	25.95
479.677	26
479.879	25.97
480.081	26.03
480.283	26.06
480.485	25.95
480.686	25.96
480.888	25.89
481.09	25.96
481.292	25.78
481.494	25.76
481.695	25.79
481.897	25.71
482.099	25.75
482.301	25.79
482.502	25.83
482.704	25.82
482.906	25.8
483.107	25.79
483.309	25.85
483.511	25.82
483.712	25.73
483.914	25.77
484.115	25.76
484.317	25.71
484.519	25.67
484.72	25.66
484.922	25.7
485.123	25.7
485.325	25.73
485.526	25.66
485.728	25.72
485.929	25.76
486.131	25.76
486.332	25.84
486.534	25.87
486.735	25.9
486.936	25.86
487.138	25.82
487.339	25.83
487.541	25.9
487.742	26.01
487.943	26.03
488.144	26.07
488.346	26
488.547	25.91
488.748	25.85
488.95	25.79
489.151	25.8
489.352	25.84
489.553	25.88
489.755	25.9
489.956	25.85
490.157	25.83
490.358	25.77
490.559	25.79
490.76	25.81
490.961	25.86
491.163	26.04
491.364	25.97
491.565	25.83
491.766	25.86
491.967	25.76
492.168	25.71
492.369	25.66
492.57	25.7
492.771	25.75
492.972	25.82
493.173	26.01
493.374	25.89
493.575	25.93
493.776	26.05
493.976	26.05
494.177	26.06
494.378	26.2
494.579	26.28
494.78	26.55
494.981	26.48
495.182	26.66
495.382	26.47
495.583	26.58
495.784	26.6
495.985	26.78
496.185	26.77
496.386	26.77
496.587	26.7
496.788	26.82
496.988	26.74
497.189	26.78
497.39	26.68
497.59	26.7
497.791	26.54
497.992	26.61
498.192	26.67
498.393	26.65
498.593	26.59
498.794	26.64
498.994	26.48
499.195	26.33
499.395	26.55
499.596	26.68
499.796	26.82
499.997	26.92
500.197	26.98
500.398	27
500.598	26.97
500.799	27
500.999	26.95
501.199	26.87
501.4	27.09
501.6	27.02
501.801	27.16
502.001	27.03
502.201	27.04
502.402	27.3
502.602	27.35
502.802	27.55
503.002	27.81
503.203	27.96
503.403	28.02
503.603	28.02
503.803	27.85
504.003	27.66
504.204	27.75
504.404	27.67
504.604	27.61
504.804	27.42
505.004	27.45
505.204	27.52
505.404	27.47
505.604	27.59
505.804	27.59
506.005	27.82
506.205	27.95
506.405	27.94
506.605	28.2
506.805	28.22
507.005	28.28
507.204	28.12
507.404	28.06
507.604	28.15
507.804	28.11
508.004	28.04
508.204	27.95
508.404	27.89
508.604	27.88
508.804	27.88
509.003	27.93
509.203	27.98
509.403	28.3
509.603	28.4
509.803	28.45
510.002	28.68
510.202	28.93
510.402	29.04
510.602	29.2
510.801	29.49
511.001	29.53
511.201	29.63
511.4	29.69
511.6	29.62
511.8	29.76
511.999	29.92
512.199	29.93
512.398	29.94
512.598	30.12
512.797	30.31
512.997	30.51
513.197	30.76
513.396	30.74
513.596	31.09
513.795	31.27
513.994	31.38
514.194	31.37
514.393	31.52
514.593	31.65
514.792	31.74
514.992	31.65
515.191	31.59
515.39	31.58
515.59	31.71
515.789	31.6
515.988	31.65
516.188	31.74
516.387	31.89
516.586	32.07
516.786	32.19
516.985	32.26
517.184	32.49
517.383	32.58
517.582	32.68
517.782	32.75
517.981	32.85
518.18	32.95
518.379	32.91
518.578	33.05
518.777	33.04
518.976	33.05
519.176	33.08
519.375	33.12
519.574	33.14
519.773	33.22
519.972	33.26
520.171	33.38
520.37	33.47
520.569	33.69
520.768	33.6
520.967	33.76
521.166	33.94
521.365	34.11
521.564	34.19
521.762	34.4
521.961	34.44
522.16	34.6
522.359	34.7
522.558	34.85
522.757	34.9
522.956	35.2
523.154	35.21
523.353	35.27
523.552	35.37
523.751	35.56
523.949	35.66
524.148	35.72
524.347	35.9
524.546	35.97
524.744	36.12
524.943	36.11
525.142	36.23
525.34	36.35
525.539	36.49
525.737	36.65
525.936	36.72
526.135	36.85
526.333	37.08
526.532	37.23
526.73	37.33
526.929	37.43
527.127	37.6
527.326	37.64
527.524	37.77
527.723	37.89
527.921	37.87
528.12	37.98
528.318	38.04
528.516	38.07
528.715	38.11
528.913	38.16
529.112	38.22
529.31	38.29
529.508	38.39
529.707	38.45
529.905	38.44
530.103	38.46
530.301	38.5
530.5	38.62
530.698	38.75
530.896	38.82
531.094	38.82
531.293	38.89
531.491	39.06
531.689	39.11
531.887	39.26
532.085	39.38
532.283	39.58
532.481	39.66
532.68	39.7
532.878	39.71
533.076	39.76
533.274	39.94
533.472	40.07
533.67	40.13
533.868	40.25
534.066	40.22
534.264	40.29
534.462	40.41
534.66	40.48
534.858	40.53
535.056	40.53
535.253	40.54
535.451	40.69
535.649	40.77
535.847	40.77
536.045	40.8
536.243	40.94
536.441	41.03
536.638	40.99
536.836	41.08
537.034	41.2
537.232	41.35
537.43	41.65
537.627	41.63
537.825	41.58
538.023	41.73
538.22	41.84
538.418	41.87
538.616	42
538.813	42.14
539.011	42.09
539.209	42.15
539.406	42.32
539.604	42.07
539.801	42.16
539.999	42.24
540.196	42.19
540.394	42.31
540.591	42.34
540.789	42.43
540.986	42.59
541.184	42.63
541.381	42.67
541.579	42.67
541.776	42.8
541.974	42.87
542.171	42.94
542.368	43.01
542.566	42.97
542.763	43.05
542.96	43.08
543.158	43.06
543.355	43.19
543.552	43.18
543.75	43.21
543.947	43.27
544.144	43.41
544.341	43.38
544.539	43.42
544.736	43.49
544.933	43.57
545.13	43.56
545.327	43.64
545.524	43.54
545.722	43.66
545.919	43.79
546.116	43.9
546.313	43.89
546.51	43.96
546.707	43.92
546.904	43.95
547.101	43.97
547.298	44.04
547.495	44.08
547.692	44.3
547.889	44.34
548.086	44.35
548.283	44.35
548.48	44.36
548.677	44.53
548.874	44.9
549.07	44.93
549.267	45.13
549.464	45.15
549.661	45.27
549.858	45.22
550.055	45.32
550.251	45.37
550.448	45.48
550.645	45.43
550.842	45.18
551.038	45.13
551.235	45.29
551.432	45.02
551.628	45.11
551.825	44.99
552.022	44.93
552.218	44.8
552.415	44.83
552.612	44.82
552.808	45.08
553.005	45.4
553.201	45.29
553.398	45.01
553.594	45.02
553.791	45.13
553.987	45.17
554.184	45.22
554.38	45.26
554.577	45.33
554.773	45.52
554.97	45.5
555.166	45.17
555.362	45.12
555.559	45.4
555.755	45.66
555.952	45.7
556.148	45.85
556.344	45.88
556.541	46.29
556.737	46.24
556.933	46.04
557.129	46.11
557.326	46.57
557.522	46.71
557.718	46.95
557.914	47.02
558.11	47.14
558.307	47.16
558.503	47.24
558.699	47.02
558.895	47.03
559.091	47.01
559.287	46.92
559.483	46.93
559.679	46.94
559.876	46.87
560.072	46.77
560.268	46.76
560.464	46.93
560.66	46.88
560.856	46.92
561.052	46.95
561.247	47.04
561.443	46.86
561.639	46.81
561.835	46.8
562.031	46.84
562.227	46.92
562.423	46.84
562.619	46.6
562.815	46.94
563.01	47
563.206	47.13
563.402	47.31
563.598	47.64
563.793	47.45
563.989	47.56
564.185	47.44
564.381	47.32
564.576	47.32
564.772	47.29
564.968	47.01
565.163	47.07
565.359	47.09
565.555	46.92
565.75	46.59
565.946	46.88
566.141	46.88
566.337	46.8
566.532	46.75
566.728	46.83
566.923	47.05
567.119	47.1
567.314	47.05
567.51	46.93
567.705	47.08
567.901	47.15
568.096	46.98
568.292	47
568.487	47.17
568.682	47.22
568.878	47.08
569.073	46.93
569.268	47.07
569.464	46.92
569.659	47.1
569.854	47.12
570.05	47.31
570.245	47.37
570.44	47.1
570.635	47.23
570.831	47.2
571.026	47.17
571.221	47.24
571.416	47.32
571.611	47.61
571.806	47.31
572.002	47.23
572.197	47.21
572.392	47.38
572.587	47.72
572.782	47.73
572.977	47.81
573.172	47.92
573.367	47.72
573.562	47.58
573.757	47.3
573.952	47.45
574.147	47.35
574.342	47.25
574.537	47.08
574.732	46.93
574.927	46.91
575.121	47.15
575.316	47.18
575.511	47.45
575.706	47.54
575.901	47.75
576.096	47.55
576.29	47.45
576.485	47.39
576.68	47.51
576.875	47.8
577.069	47.8
577.264	47.69
577.459	47.65
577.654	47.63
577.848	47.42
578.043	47.44
578.238	47.56
578.432	47.8
578.627	48.11
578.821	48.18
579.016	47.98
579.21	47.74
579.405	47.74
579.6	47.71
579.794	47.78
579.989	48.16
580.183	47.96
580.378	47.86
580.572	47.89
580.766	47.81
580.961	47.5
581.155	47.45
581.35	47.8
581.544	47.71
581.738	47.82
581.933	47.76
582.127	47.79
582.321	47.68
582.516	48.27
582.71	48.49
582.904	48.52
583.099	48.73
583.293	48.58
583.487	48.62
583.681	48.66
583.875	48.73
584.07	48.84
584.264	48.83
584.458	49.03
584.652	48.76
584.846	48.56
585.04	48.57
585.234	48.46
585.428	48.67
585.623	48.65
585.817	48.6
586.011	48.72
586.205	48.59
586.399	48.51
586.593	48.73
586.787	48.68
586.981	48.68
587.174	48.74
587.368	48.52
587.562	48.54
587.756	48.5
587.95	48.95
588.144	48.82
588.338	49.08
588.532	49.15
588.725	48.97
588.919	49.15
589.113	49.27
589.307	49.36
589.501	49.84
589.694	50.03
589.888	50.16
590.082	50
590.275	50.03
590.469	49.97
590.663	50.07
590.856	50.34
591.05	50.5
591.244	50.52
591.437	50.89
591.631	50.98
591.824	51.04
592.018	50.74
592.212	50.9
592.405	50.9
592.599	51.24
592.792	50.85
592.986	50.93
593.179	50.76
593.372	50.65
593.566	50.34
593.759	50.19
593.953	50.03
594.146	50.43
594.339	50.31
594.533	50.42
594.726	49.88
594.92	50.41
595.113	50.47
595.306	50.59
595.499	50.85
595.693	50.96
595.886	51.11
596.079	51.36
596.272	51.35
596.466	51.52
596.659	51.7
596.852	51.87
597.045	51.67
597.238	51.63
597.431	51.52
597.624	51.53
597.818	51.51
598.011	51.5
598.204	51.38
598.397	51.43
598.59	51.34
598.783	51.27
598.976	51.22
599.169	51.29
599.362	51.14
599.555	51.04
599.748	50.93
599.941	51.01
600.134	50.95
600.326	50.92
600.519	50.76
600.712	50.95
600.905	51.16
601.098	51.29
601.291	51.36
601.483	51.43
601.676	51.65
601.869	51.77
602.062	51.76
602.255	51.73
602.447	51.92
602.64	52
602.833	51.87
603.025	51.81
603.218	51.92
603.411	52.08
603.603	52.2
603.796	52.17
603.989	52.32
604.181	52.41
604.374	52.51
604.566	52.47
604.759	52.48
604.951	52.32
605.144	52.26
605.336	52.27
605.529	52.1
605.721	52.08
605.914	52.43
606.106	52.26
606.299	52.02
606.491	52.01
606.683	51.82
606.876	52.04
607.068	52.17
607.26	52.09
607.453	51.84
607.645	51.77
607.837	51.79
608.03	51.49
608.222	51.75
608.414	52.15
608.606	51.91
608.799	51.99
608.991	51.85
609.183	51.82
609.375	51.83
609.567	52.02
609.759	52.23
609.952	52.2
610.144	52.06
610.336	51.96
610.528	51.79
610.72	52.06
610.912	52.04
611.104	52.08
611.296	52.17
611.488	52.32
611.68	52.19
611.872	52.02
612.064	52.15
612.256	52.24
612.448	52.24
612.64	51.91
612.832	51.86
613.023	51.93
613.215	51.71
613.407	51.7
613.599	51.43
613.791	51.46
613.983	51.43
614.174	51.31
614.366	51.39
614.558	51.18
614.75	51.24
614.941	51.09
615.133	51.02
615.325	51.34
615.516	51.3
615.708	51.25
615.9	51.57
616.091	51.7
616.283	51.61
616.475	51.59
616.666	51.67
616.858	52.28
617.049	52.72
617.241	53.02
617.432	52.76
617.624	53.16
617.815	53.68
618.007	53.62
618.198	53.58
618.39	53.78
618.581	53.88
618.773	54.11
618.964	53.73
619.155	53.8
619.347	53.75
619.538	53.73
619.729	53.55
619.921	53.21
620.112	53.16
620.303	53.23
620.494	53.25
620.686	53.46
620.877	53.04
621.068	52.91
621.259	52.56
621.451	52.57
621.642	52.68
621.833	52.67
622.024	52.68
622.215	52.5
622.406	52.33
622.597	52.43
622.788	52.28
622.98	52.42
623.171	52.46
623.362	52.43
623.553	52.29
623.744	52.37
623.935	52.27
624.126	52.24
624.317	52.52
624.508	52.65
624.698	52.88
624.889	52.72
625.08	53.07
625.271	53.21
625.462	53.19
625.653	53.3
625.844	53.23
626.034	53.33
626.225	53.62
626.416	53.83
626.607	53.8
626.798	53.35
626.988	53.59
627.179	53.43
627.37	53.21
627.56	53.23
627.751	53.08
627.942	53.03
628.132	52.94
628.323	52.83
628.514	52.28
628.704	52.26
628.895	52.41
629.085	52.17
629.276	51.98
629.466	51.98
629.657	51.93
629.847	52.05
630.038	51.85
630.228	51.82
630.419	51.45
630.609	51.81
630.8	51.67
630.99	51.69
631.181	51.64
631.371	51.95
631.561	52.39
631.752	52.52
631.942	52.54
632.132	52.76
632.323	52.9
632.513	53.37
632.703	53.5
632.893	53.7
633.084	53.37
633.274	53.6
633.464	53.53
633.654	53.31
633.844	53.2
634.034	53.34
634.225	53.38
634.415	53.27
634.605	53.41
634.795	53.08
634.985	53.04
635.175	53.33
635.365	53
635.555	53.12
635.745	53.01
635.935	53.21
636.125	52.98
636.315	53.18
636.505	53.22
636.695	52.83
636.885	53.11
637.075	53.45
637.265	53.42
637.455	53.72
637.644	53.55
637.834	53.77
638.024	53.65
638.214	53.7
638.404	53.33
638.593	53.48
638.783	53.59
638.973	53.44
639.163	52.97
639.352	52.81
639.542	52.98
639.732	53.07
639.921	53.21
640.111	53.24
640.301	53.29
640.49	53.56
640.68	53.24
640.87	53.02
641.059	52.95
641.249	53.26
641.438	53.16
641.628	52.91
641.817	52.66
642.007	52.28
642.196	52.36
642.386	52.66
642.575	52.78
642.764	52.51
642.954	52.56
643.143	52.57
643.333	52.41
643.522	52.23
643.711	52.37
643.901	52.64
644.09	52.66
644.279	52.3
644.469	52.07
644.658	51.42
644.847	51.83
645.036	51.93
645.226	51.73
645.415	51.79
645.604	52.01
645.793	51.91
645.982	51.75
646.171	51.96
646.361	52.05
646.55	51.98
646.739	52.63
646.928	52.11
647.117	52.14
647.306	52.44
647.495	52.1
647.684	52.24
647.873	52.61
648.062	52.74
648.251	52.8
648.44	53.32
648.629	53.56
648.818	53.37
649.007	53.72
649.196	53.82
649.384	53.36
649.573	53.42
649.762	53.34
649.951	53.13
650.14	53.3
650.328	52.93
650.517	52.64
650.706	52.37
650.895	52.21
651.083	52.15
651.272	52.26
651.461	52.46
651.65	52.38
651.838	52.59
652.027	52.15
652.216	52
652.404	52.29
652.593	52.25
652.781	52.39
652.97	52.47
653.158	52.87
653.347	52.13
653.535	52.55
653.724	52.63
653.912	52.59
654.101	53.05
654.289	53.34
654.478	53.07
654.666	53.14
654.855	52.8
655.043	53.02
655.231	53.18
655.42	53.96
655.608	53.22
655.796	53.99
655.985	53.57
656.173	53.67
656.361	52.84
656.55	53.07
656.738	53.06
656.926	53.71
657.114	53.42
657.302	53.07
657.491	52.9
657.679	53.18
657.867	52.93
658.055	52.99
658.243	52.7
658.431	52.93
658.619	52.78
658.807	52.54
658.996	52.21
659.184	52.31
659.372	52.32
659.56	52.06
659.748	52.37
659.936	52.04
660.124	52.03
660.311	51.94
660.499	52.33
660.687	52.63
660.875	52.33
661.063	52.2
661.251	52.07
661.439	52.18
661.627	52.52
661.814	52.41
662.002	52.6
662.19	53.01
662.378	53.42
662.565	53.48
662.753	53.42
662.941	54.21
663.129	53.89
663.316	53.8
663.504	53.54
663.692	53.36
663.879	53.6
664.067	53.96
664.254	53.73
664.442	53.24
664.63	52.93
664.817	52.46
665.005	52.33
665.192	52.56
665.38	52.4
665.567	52.8
665.755	53.08
665.942	52.67
666.13	51.98
666.317	52.05
666.504	52.71
666.692	52.88
666.879	52.86
667.067	52.93
667.254	52.88
667.441	53.4
667.629	52.75
667.816	52.23
668.003	52.12
668.19	52.11
668.378	51.94
668.565	51.33
668.752	51.19
668.939	51.15
669.127	50.52
669.314	50.91
669.501	50.84
669.688	50.77
669.875	51.02
670.062	51.32
670.249	51.57
670.436	51.5
670.623	51.68
670.81	51.82
670.997	51.96
671.184	52.17
671.371	52.21
671.558	52.39
671.745	52.82
671.932	52.87
672.119	52.42
672.306	52.32
672.493	53.05
672.68	53.76
672.867	53.25
673.054	53.19
673.24	53.42
673.427	53.22
673.614	52.49
673.801	52.46
673.988	52.52
674.174	52.8
674.361	52.94
674.548	52.25
674.734	51.36
674.921	51.87
675.108	52.48
675.294	52.62
675.481	52.86
675.668	53.42
675.854	53.16
676.041	52.89
676.227	53.02
676.414	53
676.601	52.98
676.787	52.93
676.974	52.52
677.16	52.38
677.347	51.87
677.533	51.89
677.719	51.59
677.906	51.33
678.092	51.45
678.279	51.61
678.465	51.38
678.651	51.73
678.838	51.97
679.024	52.12
679.21	52.09
679.397	52.3
679.583	52.25
679.769	52.6
679.955	52.93
680.142	52.95
680.328	53.01
680.514	52.9
680.7	52.55
680.886	52.9
681.073	53.08
681.259	52.66
681.445	52.63
681.631	52.27
681.817	52.28
682.003	52.79
682.189	52.56
682.375	52.26
682.561	52.76
682.747	52.75
682.933	51.95
683.119	51.27
683.305	51.49
683.491	51.95
683.677	52.07
683.863	52.29
684.049	51.62
684.235	51.69
684.42	51.71
684.606	51.4
684.792	52.04
684.978	52.55
685.164	53.05
685.349	53.36
685.535	52.8
685.721	53.08
685.907	52.76
686.092	52.76
686.278	52.97
686.464	52.7
686.649	53.23
686.835	52.33
687.021	52.07
687.206	51.9
687.392	51.77
687.577	52.09
687.763	51.92
687.948	51.37
688.134	51.8
688.319	51.78
688.505	51.82
688.69	51.26
688.876	51.76
689.061	52.88
689.247	52.51
689.432	51.85
689.618	51.91
689.803	52.03
689.988	52.63
690.174	52.61
690.359	52.53
690.544	52.73
690.73	52.64
690.915	52.61
691.1	50.72
691.285	51.3
691.471	51.75
691.656	51.66
691.841	51.46
692.026	51.27
692.211	50.76
692.396	50.78
692.582	51.1
692.767	51.2
692.952	51.33
693.137	52.13
693.322	52.33
693.507	52.06
693.692	51.1
693.877	51.06
694.062	50.56
694.247	51.77
694.432	52.03
694.617	52.12
694.802	52.36
694.987	52.05
695.172	52.44
695.357	52.76
695.541	53.03
695.726	54.39
695.911	54.06
696.096	54
696.281	52.62
696.466	52.64
696.65	52.34
696.835	51.39
697.02	51.97
697.204	51.8
697.389	51.2
697.574	51.18
697.759	50.34
697.943	50.25
698.128	50.78
698.312	51.3
698.497	50.9
698.682	51.43
698.866	52.42
699.051	52.12
699.235	52.48
699.42	52.84
699.604	52.98
699.789	53.95
699.973	54.67
700.158	55.03
700.342	55.16
700.527	55.76
700.711	55.32
700.895	54.62
701.08	54.73
701.264	54.6
701.448	54.68
701.633	55.09
701.817	54.43
702.001	53.86
702.186	53.25
702.37	52.91
702.554	52.39
702.738	51.95
702.923	52.67
703.107	52.95
703.291	52.66
703.475	51.98
703.659	51.34
703.843	51.23
704.027	51.16
704.212	50.75
704.396	50.69
704.58	51.4
704.764	51.93
704.948	51.55
705.132	51.29
705.316	51.4
705.5	51.64
705.684	51.51
705.868	52.35
706.052	52.66
706.235	53.56
706.419	53.63
706.603	52.62
706.787	52.4
706.971	52.72
707.155	52.67
707.339	52.33
707.522	52.52
707.706	53.17
707.89	52.38
708.074	52.63
708.257	52.12
708.441	52.12
708.625	52.4
708.808	52.23
708.992	51.58
709.176	51.47
709.359	51.78
709.543	51.28
709.727	51.32
709.91	51.03
710.094	51.02
710.277	51.36
710.461	51.54
710.644	51.68
710.828	51.48
711.011	51.57
711.195	51.45
711.378	51.86
711.562	52.05
711.745	51.79
711.928	52.17
712.112	51.94
712.295	52.02
712.478	51.99
712.662	51.88
712.845	51.95
713.028	52.06
713.212	51.88
713.395	50.9
713.578	51.07
713.761	50.48
713.945	50.86
714.128	50.3
714.311	49.6
714.494	49.64
714.677	49.97
714.86	49.79
715.043	49.87
715.227	50.48
715.41	50.57
715.593	50.77
715.776	51.71
715.959	50.92
716.142	51.84
716.325	51.8
716.508	51.74
716.691	51.47
716.874	51.34
717.057	50.84
717.239	50.4
717.422	50.22
717.605	49.71
717.788	49.88
717.971	50.06
718.154	49.95
718.337	51.42
718.519	51.69
718.702	51.96
718.885	52.02
719.068	52.96
719.25	53.41
719.433	53.19
719.616	53.29
719.798	52.98
719.981	53.05
720.164	52.57
720.346	50.82
720.529	49.92
720.712	49.61
720.894	50.39
721.077	49.96
721.259	49.13
721.442	49.06
721.624	49.6
721.807	48.96
721.989	48.45
722.172	48.31
722.354	49.46
722.537	49.91
722.719	49.77
722.901	50.38
723.084	50.15
723.266	50.77
723.448	51.19
723.631	51.1
723.813	51.88
723.995	53.24
724.178	54.34
724.36	54.51
724.542	54.14
724.724	53.91
724.907	52.73
725.089	52.32
725.271	52.54
725.453	53.13
725.635	53.23
725.817	52.51
725.999	51.62
726.181	50.81
726.364	48.91
726.546	50.06
726.728	50.77
726.91	50.96
727.092	51.3
727.274	50.79
727.456	50.55
727.638	50.64
727.819	50.04
728.001	49.81
728.183	50.05
728.365	51.94
728.547	50.86
728.729	51.52
728.911	51.62
729.093	51.84
729.274	51.83
729.456	51.19
729.638	51.17
729.82	52.17
730.001	52.26
730.183	51.67
730.365	50.78
730.546	51.2
730.728	50.39
730.91	50.05
731.091	50.67
731.273	51.82
731.455	51.25
731.636	50.49
731.818	50.92
731.999	50.94
732.181	50.88
732.362	50.14
732.544	50.46
732.725	50.65
732.907	51.32
733.088	50.84
733.27	49.31
733.451	50.71
733.633	51.07
733.814	49.51
733.995	50.58
734.177	51.29
734.358	52.7
734.539	53.09
734.721	53.68
734.902	53.84
735.083	53.62
735.264	54.12
735.446	53.68
735.627	53.78
735.808	54.39
735.989	54.29
736.17	53.26
736.351	52.62
736.533	51.67
736.714	50.46
736.895	50.69
737.076	51.01
737.257	51.1
737.438	50.24
737.619	51.15
737.8	51.62
737.981	51.31
738.162	51.42
738.343	51.59
738.524	51.52
738.705	52.52
738.886	52.24
739.067	51.37
739.247	51.47
739.428	51.82
739.609	49.99
739.79	49.29
739.971	48.54
740.151	47.8
740.332	47.04
740.513	47.58
740.694	46.48
740.874	46.2
741.055	46.81
741.236	46.49
741.417	46.64
741.597	46.93
741.778	47.8
741.958	49.47
742.139	49.72
742.32	49.38
742.5	49.22
742.681	50.03
742.861	50.29
743.042	48.12
743.222	48.35
743.403	48.47
743.583	48.32
743.764	49.03
743.944	47.78
744.124	48.84
744.305	50.01
744.485	48.96
744.666	48.64
744.846	46.9
745.026	49.4
745.207	48.15
745.387	48.29
745.567	49.45
745.747	48.49
745.928	48.04
746.108	48.12
746.288	48.14
746.468	48.06
746.648	47.83
746.829	49.51
747.009	49.41
747.189	50.83
747.369	50.76
747.549	50.8
747.729	50.27
747.909	50.55
748.089	50.17
748.269	50.15
748.449	51.46
748.629	50.83
748.809	50.4
748.989	50.49
749.169	51.61
749.349	51.66
749.529	50.97
749.709	51.56
749.889	51.03
750.068	50.94
750.248	49.77
750.428	49.27
750.608	49.02
750.788	48.51
750.967	49.19
751.147	47.92
751.327	48.88
751.507	48.57
751.686	48.37
751.866	50.22
752.046	50.63
752.225	51.41
752.405	51.79
752.585	51.53
752.764	52.96
752.944	51.94
753.123	50.51
753.303	49.73
753.482	50.22
753.662	50.56
753.841	49.56
754.021	48.99
754.2	48.7
754.38	48.95
754.559	49.78
754.739	48.44
754.918	47.34
755.097	49.73
755.277	49.52
755.456	49.14
755.635	48.93
755.815	48.04
755.994	47.8
756.173	49.22
756.352	48.16
756.532	48.46
756.711	48.47
756.89	49.96
757.069	48.48
757.248	49.45
757.427	50.92
757.607	49.55
757.786	49.54
757.965	50.27
758.144	48.79
758.323	49
758.502	47.54
758.681	49.12
758.86	50.42
759.039	50.76
759.218	50.5
759.397	50.87
759.576	51.42
759.755	51.37
759.934	50.73
760.113	51.32
760.291	51.66
760.47	52.3
760.649	51.52
760.828	50.42
761.007	49.9
761.186	49.17
761.364	47.57
761.543	47.44
761.722	47.16
761.901	46.44
762.079	47.88
762.258	47.85
762.437	47.89
762.615	48.43
762.794	48.04
762.972	49.3
763.151	50.52
763.33	50.15
763.508	50.98
763.687	51.16
763.865	51.67
764.044	51.57
764.222	51.61
764.401	51.93
764.579	51.01
764.758	51
764.936	50.81
765.114	49.84
765.293	49.75
765.471	49.01
765.65	49.29
765.828	50.35
766.006	48.45
766.184	49.04
766.363	49.63
766.541	50.1
766.719	49.63
766.898	49.3
767.076	50.03
767.254	51.01
767.432	51.09
767.61	51.14
767.788	49.57
767.967	50.22
768.145	50.38
768.323	48.88
768.501	48.73
768.679	49.9
768.857	50.15
769.035	48.33
769.213	48.18
769.391	49.34
769.569	49.38
769.747	50.99
769.925	50.93
770.103	50.27
770.281	51.11
770.459	50.65
770.636	49.92
770.814	51.43
770.992	53.77
771.17	54.68
771.348	54.1
771.525	54.38
771.703	53.78
771.881	55.49
772.059	54.53
772.236	53.74
772.414	56.53
772.592	55.63
772.769	52.4
772.947	52.23
773.125	50.28
773.302	51.78
773.48	51.34
773.657	52.6
773.835	49.08
774.013	46.91
774.19	49.71
774.368	48.9
774.545	50.19
774.723	50.86
774.9	50.81
775.077	52.66
775.255	50.54
775.432	50.01
775.61	48.35
775.787	49.78
775.964	50.81
776.142	48.1
776.319	47.82
776.496	48.16
776.674	48.43
776.851	48.06
777.028	47.42
777.205	48.86
777.382	48.99
777.56	48.7
777.737	48.88
777.914	48.05
778.091	49.87
778.268	48.61
778.445	47.49
778.622	48.5
778.8	49.24
778.977	50.72
779.154	49.34
779.331	50.08
779.508	51.36
779.685	50.36
779.862	53.33
780.038	51.03
780.215	51.35
780.392	50.78
780.569	51.3
780.746	50.22
780.923	47.26
781.1	48.44
781.277	46.58
781.453	45.14
781.63	46.37
781.807	46.04
781.984	45.81
782.16	48.64
782.337	48.63
782.514	45.73
782.691	44.59
782.867	45.55
783.044	43.65
783.221	47.68
783.397	47.68
783.574	48.97
783.75	48.2
783.927	50.46
784.103	47.41
784.28	49.43
784.456	50.34
784.633	52.07
784.809	51.72
784.986	52.04
785.162	48.36
785.339	47.97
785.515	46.94
785.692	47.62
785.868	46.78
786.044	47.05
786.221	48.12
786.397	48.56
786.573	47.92
786.749	47.51
786.926	49.93
787.102	50.01
787.278	49.39
787.454	49.01
787.631	47.06
787.807	47.76
787.983	45.68
788.159	45.11
788.335	43.8
788.511	42.99
788.687	44.72
788.863	43.21
789.039	45.16
789.216	47.42
789.392	45.6
789.568	47.22
789.744	45.52
789.919	48.5
790.095	46.42
790.271	48.42
790.447	50.03
790.623	48.67
790.799	47.9
790.975	46
791.151	46.3
791.327	48.12
791.502	47.18
791.678	48.79
791.854	46.14
792.03	47.43
792.205	50.3
792.381	50.82
792.557	51.37
792.733	54.63
792.908	57.14
793.084	56.37
793.259	57.53
793.435	61.4
793.611	60.12
793.786	63.46
793.962	64.4
794.137	58.98
794.313	57.72
794.488	58.24
794.664	58.33
794.839	57.07
795.015	58.24
795.19	57.81
795.366	54.55
795.541	54.64
795.716	50.27
795.892	49.76
796.067	53.44
796.242	55.36
796.418	54.95
796.593	52.16
796.768	50.93
796.944	49.67
797.119	51.27
797.294	53.03
797.469	54.43
797.644	56.9
797.82	57.76
797.995	54.01
798.17	51.37
798.345	50.66
798.52	52.45
798.695	51.73
798.87	50.36
799.045	49.47
799.22	48.86
799.395	49.26
799.57	47.56
799.745	46.95
799.92	47.67
800.095	48.49
800.27	48.07
800.445	46.62
800.62	48.65
800.795	51.47
800.97	51.01
801.145	50.33
801.319	48.49
801.494	48.31
801.669	48.31
801.844	49.16
802.018	52.18
802.193	54.9
802.368	53.62
802.543	53.62
802.717	51.28
802.892	52.62
803.067	53.09
803.241	53.15
803.416	50.76
803.59	52.68
803.765	53.76
803.94	49.09
804.114	46.06
804.289	44.92
804.463	43.32
804.638	42.16
804.812	41.79
804.986	41.98
805.161	42.69
805.335	45.23
805.51	44.15
805.684	44
805.858	42.51
806.033	44.18
806.207	45.14
806.381	50.69
806.556	52.66
806.73	52.6
806.904	53.49
807.078	50.98
807.253	51.71
807.427	52.37
807.601	53.8
807.775	56.92
807.949	56.71
808.123	57.42
808.298	52.49
808.472	51.47
808.646	52.23
808.82	51.8
808.994	54.34
809.168	61.02
809.342	59.27
809.516	58.25
809.69	62.31
809.864	60.61
810.038	67.05
810.212	70.88
810.385	72.7
810.559	68.4
810.733	65.5
810.907	68.2
811.081	60.19
811.255	59.99
811.428	60.37
811.602	58.07
811.776	60.13
811.95	55.96
812.123	52.97
812.297	50.44
812.471	53.5
812.644	53.75
812.818	50.67
812.992	52.96
813.165	57.86
813.339	59.56
813.512	62.26
813.686	62.32
813.86	62.78
814.033	62.54
814.207	65.91
814.38	66.69
814.554	66.5
814.727	69.12
814.9	70.75
815.074	69.92
815.247	68.85
815.421	62.95
815.594	63.37
815.767	60.38
815.941	60.18
816.114	54.16
816.287	54.3
816.46	58.33
816.634	52.44
816.807	47.22
816.98	44.27
817.153	40.54
817.327	40.31
817.5	37.59
817.673	44.28
817.846	44.76
818.019	44.23
818.192	42.4
818.365	43.15
818.538	46.37
818.711	47.96
818.884	50.87
819.057	51.4
819.23	54.59
819.403	54.53
819.576	52.56
819.749	49.06
819.922	50.2
820.095	52.72
820.268	51.99
820.441	54.24
820.614	51.87
820.786	47.08
820.959	47.31
821.132	44.74
821.305	44.4
821.477	43.7
821.65	44.77
821.823	46.02
821.996	45.37
822.168	44.58
822.341	44.25
822.514	46.21
822.686	47.69
822.859	47.79
823.031	47.88
823.204	48.22
823.376	48.04
823.549	48.63
823.722	48.05
823.894	48
824.067	48.41
824.239	48.25
824.411	47.53
824.584	46.82
824.756	45.68
824.929	45.17
825.101	44.78
825.273	44.31
825.446	44.02
825.618	44.58
825.79	44.91
825.963	44.34
826.135	43.79
826.307	44.08
826.479	44.25
826.652	45.04
826.824	45.56
826.996	45.29
827.168	46.81
827.34	45.53
827.512	46.15
827.684	45.48
827.856	46.44
828.029	45.89
828.201	45.82
828.373	45.5
828.545	47.08
828.717	48.04
828.889	49.02
829.061	47.94
829.232	49.4
829.404	48.24
829.576	47.59
829.748	47.28
829.92	48.36
830.092	46.84
830.264	45.91
830.436	41.51
830.607	40.13
830.779	39.48
830.951	38.19
831.123	36.9
831.294	36.26
831.466	39.48
831.638	40.47
831.809	37.88
831.981	40.23
832.153	40.05
832.324	42.52
832.496	44.09
832.667	46.71
832.839	47.67
833.011	51.26
833.182	50.05
833.354	47.31
833.525	44.44
833.697	50.19
833.868	49.09
834.039	48.84
834.211	50.09
834.382	50.82
834.554	50.28
834.725	51.54
834.896	49.07
835.068	48.73
835.239	50.68
835.41	51.03
835.581	46.46
835.753	46.39
835.924	47.19
836.095	47.24
836.266	48.98
836.438	45.48
836.609	43.66
836.78	43.9
836.951	45.77
837.122	44.34
837.293	40.46
837.464	45.05
837.635	42.53
837.806	40.13
837.977	37.9
838.148	34.43
838.319	37.81
838.49	37.88
838.661	35.97
838.832	33.42
839.003	32.6
839.174	39.48
839.345	38.73
839.516	38.94
839.687	42.8
839.857	43.52
840.028	43.71
840.199	46.62
840.37	46.6
840.54	48.53
840.711	46.28
840.882	47.86
841.053	46.97
841.223	44.8
841.394	52.12
841.564	51.47
841.735	54.72
841.906	53.22
842.076	49.73
842.247	53.56
842.417	52.86
842.588	58.21
842.758	62.41
842.929	62.66
843.099	61.24
843.27	60.04
843.44	64.05
843.611	54.3
843.781	57.63
843.951	56.71
844.122	47.11
844.292	47.71
844.462	47.2
844.633	49.25
844.803	38.93
844.973	41.89
845.144	32.32
845.314	34.07
845.484	29.61
845.654	20.4
845.824	26.43
845.995	32.73
846.165	43.86
846.335	39.31
846.505	37.69
846.675	43.63
846.845	50.4
847.015	47
847.185	46.2
847.355	62.55
847.525	58.88
847.695	58.17
847.865	56.05
848.035	49.52
848.205	63.68
848.375	57.63
848.545	65.21
848.715	49.33
848.884	84.71
849.054	66.89
849.224	57.85
849.394	64.73
849.564	54.3
849.733	54.14
849.903	56.25
850.073	51.84
850.243	31.64
850.412	43.55
850.582	54.98
850.752	56.51
850.921	69.99
851.091	82.53
851.26	80.48
851.43	84.8
851.599	85.4
851.769	83.33
851.939	69.41
852.108	87.08
852.278	62.92
852.447	62.31
852.616	49.56
852.786	43.33
852.955	29.84
853.125	42.28
853.294	39.21
853.463	25.72
853.633	31.07
853.802	29.72
853.971	21.96
854.141	35.61
854.31	34.02
854.479	41.82
854.648	48.66
854.818	45.26
854.987	32.54
855.156	43.17
855.325	49.33
855.494	45.06
855.663	70.32
855.832	61.53
856.001	58.17
856.171	65.02
856.34	63.39
856.509	53.15
856.678	60.1
856.847	72.51
857.016	56.24
857.185	58.88
857.353	69.06
857.522	60.33
857.691	53.98
857.86	53.83
858.029	48.06
858.198	59.08
858.367	70.61
858.535	75.35
858.704	73.56
858.873	81.44
859.042	73.08
859.21	61.45
859.379	53.8
859.548	59.59
859.717	52.13
859.885	44.22
860.054	43.28
860.222	39.87
860.391	42.17
860.56	38.27
860.728	38.35
860.897	48.07
861.065	54.68
861.234	57.85
861.402	76.42
861.571	107.76
861.739	114.18
861.908	121.64
862.076	115.3
862.244	111.74
862.413	168.34
862.581	208.36
862.749	177.72
862.918	163.44
863.086	128.2
863.254	88.42
863.423	82.04
863.591	63.21
863.759	48.85
863.927	48.87
864.096	7.47
864.264	-3.58
864.432	-0.06
864.6	-32.74
864.768	-16.19
864.936	1.3
865.104	-20.82
865.272	1.87
865.44	24.37
865.608	26.48
865.776	32.27
865.944	41.09
866.112	35.49
866.28	24.76
866.448	43.22
866.616	40.13
866.784	31.74
866.952	48.09
867.12	28.12
867.288	33.08
867.455	23.98
867.623	18.99
867.791	27.55
867.959	24.32
868.127	37.12
868.294	23.2
868.462	41.32
868.63	35.13
868.797	31.53
868.965	37.76
869.133	26.29
869.3	42.7
869.468	50.9
869.636	44.8
869.803	43.82
869.971	35.15
870.138	56.97
870.306	41.87
870.473	47.24
870.641	47.3
870.808	51.45
870.975	45.14
871.143	41.97
871.31	25.81
871.478	5.65
871.645	31.59
871.812	34.9
871.98	28.28
872.147	50.95
872.314	68.81
872.482	91.5
872.649	51.14
872.816	78.1
872.983	72.12
873.15	68.7
873.318	95.37
873.485	67.38
873.652	68.2
873.819	64.24
873.986	40.3
874.153	37.76
874.32	34.82
874.487	49.32
874.654	50.87
874.821	56.89
874.988	59
875.155	62.07
875.322	70.04
875.489	60.69
875.656	64.41
875.823	72.18
875.99	59.3
876.157	48.74
876.324	46.79
876.49	41.37
876.657	38.33
876.824	45.73
876.991	41.7
877.157	68.9
877.324	169.78
877.491	145.21
877.658	124.04
877.824	131.96
877.991	140.05
878.157	156.52
878.324	129.16
878.491	113.37
878.657	115.52
878.824	129.34
878.99	107.44
879.157	99.08
879.323	83.9
879.49	94.79
879.656	92.2
879.823	84.76
879.989	85.73
880.156	99.85
880.322	142.84
880.488	114.04
880.655	79.16
880.821	55.1
880.987	63.25
881.154	68.49
881.32	53.34
881.486	59.34
881.652	64.33
881.819	58.72
881.985	58.43
882.151	53.86
882.317	56.02
882.483	52.9
882.649	54.97
882.816	53.54
882.982	51.16
883.148	49.11
883.314	46.11
883.48	42.46
883.646	42.73
883.812	44.41
883.978	46.06
884.144	42.65
884.31	44.23
884.476	44.72
884.642	42.68
884.807	47.22
884.973	48.37
885.139	47.47
885.305	47.25
885.471	46.83
885.637	48.11
885.802	47.94
885.968	49.8
886.134	50.08
886.3	48.13
886.465	56.44
886.631	49.56
886.797	51.07
886.962	51.01
887.128	56.01
887.293	56.57
887.459	55.91
887.625	50.66
887.79	54.71
887.956	54.37
888.121	60.07
888.287	51.36
888.452	51.33
888.618	53.2
888.783	60.39
