Data from 2937854_Reflection_1.txt Node
Date: Wed Jul 15 15:46:18 EDT 2015
User: robert
Spectrometer: USB4E03001
Autoset integration time: false
Trigger mode: 4
Integration Time (sec): 1.000000E-1
Scans to average: 10
Electric dark correction enabled: true
Nonlinearity correction enabled: false
Boxcar width: 5
Stray light correction enabled: false
XAxis mode: Wavelengths
Stop averaging: false
Number of Pixels in Spectrum: 3648
>>>>>Begin Spectral Data<<<<<
177.566	73.48
177.785	30.9
178.005	-188.52
178.225	-163.67
178.445	-773.74
178.665	280.63
178.885	135.66
179.105	130.13
179.324	148.8
179.544	94.32
179.764	153.99
179.984	122.35
180.204	138.36
180.423	127.31
180.643	137.81
180.863	151.15
181.083	447.33
181.302	617.34
181.522	224.89
181.742	635.71
181.961	523.78
182.181	1254.18
182.401	-1194.93
182.621	-586.45
182.84	-1232.01
183.06	4608.39
183.279	-1057.69
183.499	330.82
183.719	12630.77
183.938	-1855.77
184.158	96.84
184.377	83.65
184.597	54.91
184.816	38.18
185.036	30.11
185.256	30.28
185.475	27.65
185.695	56.68
185.914	75.77
186.134	85.32
186.353	120.31
186.572	282.65
186.792	255.95
187.011	210.94
187.231	740.87
187.45	955.43
187.67	1636.13
187.889	1352.43
188.108	205.68
188.328	175.19
188.547	153.29
188.766	63.35
188.986	28.69
189.205	10.01
189.424	-14.63
189.644	-59.93
189.863	-52.28
190.082	-103.16
190.302	10.85
190.521	39.23
190.74	24.95
190.959	22.73
191.178	35.09
191.398	77.69
191.617	159.8
191.836	236.87
192.055	109.47
192.274	129.38
192.494	171.38
192.713	128.4
192.932	-764.1
193.151	-152
193.37	-126.43
193.589	-47.65
193.808	-64.59
194.027	-86.21
194.246	23.27
194.465	443.36
194.685	447.15
194.904	1486.08
195.123	781.77
195.342	-313.34
195.561	-571.57
195.78	-49.8
195.999	-30.16
196.218	-528.4
196.436	61.86
196.655	32.89
196.874	-30.02
197.093	399.69
197.312	182.84
197.531	98.05
197.75	159.78
197.969	147.03
198.188	151.99
198.407	-2.64
198.625	489.01
198.844	186.06
199.063	133.22
199.282	63.48
199.501	-35.04
199.719	57.1
199.938	64.96
200.157	-19.45
200.376	77.06
200.594	48.76
200.813	72.61
201.032	155.38
201.251	-2586.81
201.469	289.15
201.688	763.56
201.907	517.73
202.125	520.51
202.344	121.11
202.563	390.68
202.781	101.71
203	124.43
203.218	96.77
203.437	134.48
203.656	156.65
203.874	198.29
204.093	290.96
204.311	154.29
204.53	151.71
204.748	170.94
204.967	103.53
205.185	168.96
205.404	-34.39
205.622	-8.59
205.841	-71.18
206.059	301.1
206.278	181.1
206.496	4535.9
206.715	185.26
206.933	638.93
207.151	761.54
207.37	-101.32
207.588	-188.07
207.806	-110.54
208.025	-118.88
208.243	-195.77
208.461	-217.66
208.68	-88.73
208.898	-94.59
209.116	-26.35
209.335	-86.48
209.553	-49.9
209.771	-403.85
209.989	-141.83
210.208	-152.54
210.426	544.31
210.644	513.99
210.862	147.93
211.081	36.07
211.299	-108.65
211.517	29.01
211.735	-232.5
211.953	-260.11
212.171	-463
212.39	-352.14
212.608	-477.2
212.826	-384.77
213.044	-929.37
213.262	-1234.62
213.48	481.39
213.698	-927.3
213.916	511.9
214.134	157.32
214.352	165.81
214.57	89.59
214.788	145.6
215.006	112.79
215.224	109.54
215.442	99.52
215.66	64.54
215.878	72.28
216.096	63.89
216.314	104.8
216.532	144.63
216.75	130.2
216.968	125.66
217.185	122.89
217.403	110.1
217.621	111.92
217.839	58.84
218.057	18.37
218.275	50.67
218.492	60.11
218.71	82.54
218.928	50.49
219.146	17.86
219.363	-90.55
219.581	-5.9
219.799	-42.62
220.017	-0.92
220.234	63.91
220.452	264.1
220.67	69.48
220.887	79.41
221.105	100.07
221.323	44.8
221.54	-25.36
221.758	-25.88
221.976	8.63
222.193	17.73
222.411	27.57
222.629	11.89
222.846	57.73
223.064	80.36
223.281	146.32
223.499	259.57
223.716	456.1
223.934	268.38
224.151	413.42
224.369	1891.26
224.586	326.28
224.804	62.86
225.021	66.2
225.239	55.75
225.456	54.11
225.674	3.02
225.891	7.27
226.108	11.16
226.326	-16.38
226.543	-19.83
226.76	-53.95
226.978	-36.33
227.195	-43.14
227.413	1.3
227.63	17.13
227.847	8.82
228.064	17.58
228.282	20.6
228.499	13.27
228.716	13.66
228.934	16.8
229.151	19.59
229.368	22.76
229.585	26.67
229.802	20.58
230.02	16.79
230.237	15.76
230.454	14.97
230.671	9.94
230.888	12.93
231.105	14.99
231.323	20.36
231.54	19.05
231.757	15.46
231.974	9.64
232.191	8.66
232.408	10.06
232.625	10.99
232.842	15
233.059	22.89
233.276	25.2
233.493	24.15
233.71	12.6
233.927	15.27
234.144	16.82
234.361	19.54
234.578	21.48
234.795	17.92
235.012	17.28
235.229	13.16
235.446	6.71
235.663	5.15
235.879	10.85
236.096	15.34
236.313	13.75
236.53	19.06
236.747	13.3
236.964	19.39
237.181	26.84
237.397	30.05
237.614	32.47
237.831	30.99
238.048	34.39
238.264	32.41
238.481	29.51
238.698	20.66
238.915	15.75
239.131	15
239.348	5.13
239.565	7.46
239.781	9.28
239.998	10.69
240.215	9.49
240.431	8.6
240.648	6.02
240.865	5.38
241.081	6.37
241.298	9.27
241.514	9.93
241.731	9.56
241.947	8.59
242.164	11.73
242.38	10.91
242.597	12.16
242.814	14.33
243.03	14.33
243.246	15.2
243.463	18.82
243.679	19.11
243.896	20.46
244.112	23.13
244.329	24
244.545	23.94
244.762	23.9
244.978	22.71
245.194	19.2
245.411	20.12
245.627	20.17
245.843	18.81
246.06	17.74
246.276	17.9
246.492	17.31
246.709	17.02
246.925	16.25
247.141	16.63
247.357	17.13
247.574	18.08
247.79	17.2
248.006	16.89
248.222	17.1
248.439	16.37
248.655	16
248.871	16.22
249.087	15.43
249.303	14.93
249.519	14.18
249.736	13.49
249.952	11.39
250.168	14.42
250.384	15.86
250.6	14.63
250.816	15.16
251.032	14.07
251.248	13.58
251.464	13.57
251.68	14.67
251.896	16.04
252.112	16.34
252.328	15.57
252.544	13.68
252.76	11.38
252.976	12.23
253.192	12.11
253.408	12.8
253.624	14.47
253.84	12.96
254.056	12.02
254.272	12.47
254.487	12.01
254.703	11.65
254.919	12.1
255.135	15.48
255.351	14.56
255.567	15.22
255.782	12.18
255.998	12.77
256.214	14.63
256.43	14.95
256.646	12.57
256.861	13.03
257.077	15.96
257.293	12.43
257.508	10.49
257.724	9.8
257.94	7.06
258.155	8.55
258.371	5.98
258.587	5.76
258.802	6.26
259.018	7.33
259.234	7.76
259.449	8.55
259.665	8.87
259.88	9.97
260.096	10.82
260.312	11.28
260.527	11.4
260.743	11.71
260.958	12.16
261.174	12.38
261.389	12.94
261.605	13.36
261.82	12.61
262.036	13.63
262.251	12.64
262.466	11.32
262.682	11.57
262.897	11.6
263.113	12.19
263.328	13.94
263.543	13.28
263.759	13.13
263.974	12.5
264.189	13.6
264.405	11.69
264.62	11.5
264.835	12.38
265.051	13.01
265.266	13.21
265.481	13.7
265.696	13.8
265.912	14.24
266.127	13.7
266.342	12.69
266.557	12.87
266.773	12.68
266.988	13.03
267.203	11.25
267.418	11.78
267.633	13.04
267.848	12.65
268.064	12.07
268.279	11.59
268.494	10.84
268.709	11.34
268.924	10.21
269.139	11.03
269.354	10.83
269.569	10.58
269.784	7.45
269.999	7.79
270.214	6.65
270.429	3.75
270.644	2.31
270.859	1.7
271.074	2.32
271.289	4.34
271.504	5.29
271.719	5.22
271.934	6.65
272.149	9.48
272.363	8.31
272.578	9.9
272.793	10.52
273.008	12.08
273.223	12.62
273.438	12.17
273.653	10.02
273.867	11.5
274.082	12.12
274.297	13.36
274.512	12.32
274.726	12.96
274.941	12.22
275.156	13.57
275.371	12.25
275.585	12.97
275.8	13.04
276.015	15
276.229	11.66
276.444	10.72
276.659	8.81
276.873	7.47
277.088	7.06
277.302	6.48
277.517	6.64
277.732	7.81
277.946	6.74
278.161	7.54
278.375	5.82
278.59	8.4
278.804	9.62
279.019	11.31
279.233	12.34
279.448	10.74
279.662	10.88
279.877	10.03
280.091	9.79
280.306	9.71
280.52	9.91
280.735	9.62
280.949	8.25
281.163	7.43
281.378	5.86
281.592	5.36
281.806	6.82
282.021	6.7
282.235	6.69
282.449	6.28
282.664	5.94
282.878	6.18
283.092	6.55
283.307	7.54
283.521	6.73
283.735	7.75
283.949	8.79
284.164	8.24
284.378	9.67
284.592	9.24
284.806	9.68
285.02	11.86
285.234	11.74
285.449	12.8
285.663	11.24
285.877	13.79
286.091	13.5
286.305	12.38
286.519	12.3
286.733	12.23
286.947	13.51
287.161	13.87
287.375	12.42
287.589	11.92
287.803	11.64
288.017	11.28
288.231	10.09
288.445	9.86
288.659	11.5
288.873	12.06
289.087	11.13
289.301	11.3
289.515	10.22
289.729	10.5
289.943	10.12
290.157	9.71
290.371	11.12
290.584	10.75
290.798	10.66
291.012	10.45
291.226	11.2
291.44	10.93
291.654	10.43
291.867	12.37
292.081	12.37
292.295	12.5
292.509	12.43
292.722	13.68
292.936	12.54
293.15	13.31
293.364	12.6
293.577	12.86
293.791	11.71
294.005	13
294.218	11.45
294.432	11.58
294.645	13.63
294.859	14.41
295.073	13.22
295.286	13.15
295.5	12.64
295.713	13.47
295.927	13.58
296.14	14.26
296.354	13.25
296.568	13.9
296.781	13.54
296.994	12.22
297.208	12.3
297.421	12.68
297.635	13.08
297.848	12.62
298.062	13.03
298.275	13.34
298.489	13.99
298.702	13.71
298.915	13.14
299.129	13.62
299.342	14.25
299.555	13.97
299.769	12.27
299.982	12.92
300.195	13.03
300.409	13.04
300.622	11.65
300.835	10.71
301.048	11.63
301.262	11.71
301.475	12.11
301.688	11.66
301.901	11.61
302.115	13.31
302.328	13.65
302.541	13.27
302.754	10.44
302.967	11
303.18	11.11
303.393	10.77
303.607	11.84
303.82	12.86
304.033	13.82
304.246	15.05
304.459	15.17
304.672	15.28
304.885	16.36
305.098	16.79
305.311	15.5
305.524	16.11
305.737	15.28
305.95	15.62
306.163	15.68
306.376	14.02
306.589	11.94
306.802	12.54
307.015	11.62
307.228	11.5
307.44	12.07
307.653	13.9
307.866	13.92
308.079	15.22
308.292	14.63
308.505	13.93
308.718	14.01
308.93	14.12
309.143	14.31
309.356	14.37
309.569	14.23
309.781	14.64
309.994	12.96
310.207	12.73
310.42	12.62
310.632	14.28
310.845	13.31
311.058	14.25
311.27	15.5
311.483	14.02
311.696	14.14
311.908	15.19
312.121	14.72
312.333	15.76
312.546	15.69
312.759	15.8
312.971	12.5
313.184	13.12
313.396	12.88
313.609	10.34
313.821	12.21
314.034	11.99
314.246	11.23
314.459	11.47
314.671	11.55
314.884	12.08
315.096	11.52
315.309	13.37
315.521	12.76
315.733	11.57
315.946	12.67
316.158	12.1
316.371	11.13
316.583	8.79
316.795	10
317.008	9.9
317.22	10.84
317.432	11.43
317.644	11.86
317.857	13.47
318.069	14.36
318.281	15.29
318.494	13.96
318.706	15.06
318.918	18.32
319.13	17.11
319.342	17.31
319.555	15.81
319.767	14.86
319.979	13.74
320.191	13.56
320.403	13.56
320.615	13.01
320.827	11.78
321.039	11.34
321.252	8.61
321.464	10.9
321.676	9.38
321.888	8.22
322.1	8.98
322.312	8.74
322.524	9.38
322.736	9.19
322.948	9.73
323.16	11.7
323.372	11.56
323.584	13.54
323.796	12.95
324.007	14.09
324.219	15.13
324.431	15.69
324.643	17.16
324.855	16.19
325.067	16.52
325.279	15.59
325.491	13.88
325.702	14.35
325.914	13.8
326.126	14.22
326.338	12.94
326.55	13.68
326.761	11.57
326.973	12.42
327.185	11.46
327.396	10.46
327.608	10.73
327.82	12.73
328.032	12.48
328.243	11.62
328.455	11.04
328.666	12.81
328.878	12.82
329.09	13.74
329.301	10.62
329.513	12.54
329.725	14.36
329.936	15.17
330.148	15.19
330.359	14.6
330.571	14.38
330.782	14.26
330.994	14.1
331.205	14.64
331.417	14.76
331.628	15.15
331.84	13.67
332.051	12.69
332.262	12.4
332.474	11.53
332.685	10.85
332.897	10.62
333.108	10.91
333.319	9.86
333.531	9.46
333.742	10.4
333.953	11.39
334.165	11.08
334.376	10.23
334.587	9.91
334.799	11.28
335.01	13
335.221	13.32
335.432	11.66
335.644	12.97
335.855	11.73
336.066	12.75
336.277	13.14
336.488	14.8
336.7	15.37
336.911	15.18
337.122	14.36
337.333	12.95
337.544	13.09
337.755	13.18
337.966	13.74
338.177	14.83
338.388	13.48
338.599	13.25
338.811	11.21
339.022	10.79
339.233	10.97
339.444	10.79
339.655	11.85
339.866	10.65
340.076	11.73
340.287	11.5
340.498	11.36
340.709	12.31
340.92	12.04
341.131	12.1
341.342	11.86
341.553	13.85
341.764	14.97
341.975	14.24
342.185	17.19
342.396	16.2
342.607	15.68
342.818	15.71
343.029	14.35
343.239	14.49
343.45	15.08
343.661	17.01
343.872	14.98
344.082	15.29
344.293	16.3
344.504	13.58
344.714	14.88
344.925	14.69
345.136	14.07
345.346	15.33
345.557	15.06
345.768	16.16
345.978	15.78
346.189	15.81
346.399	13.67
346.61	13.1
346.821	13.97
347.031	12.88
347.242	12.1
347.452	12.65
347.663	11.45
347.873	11.5
348.084	11.06
348.294	9.92
348.504	10.87
348.715	12.7
348.925	12.3
349.136	11.27
349.346	10.53
349.557	12.21
349.767	11.15
349.977	11.65
350.188	11.38
350.398	11.11
350.608	11.4
350.819	11.75
351.029	11.39
351.239	13.37
351.449	14.3
351.66	15.33
351.87	14.24
352.08	14.79
352.29	15.55
352.501	16.78
352.711	17.37
352.921	17.87
353.131	16.7
353.341	16.27
353.552	14.46
353.762	15.54
353.972	15.63
354.182	15.06
354.392	15.43
354.602	15.89
354.812	15.24
355.022	13.63
355.232	14.02
355.442	14.07
355.652	15.17
355.862	15.85
356.072	15.39
356.282	14.89
356.492	15.74
356.702	15.19
356.912	14.35
357.122	14.99
357.332	15.18
357.542	14.53
357.752	15.05
357.962	15.1
358.171	14.17
358.381	13.95
358.591	14.75
358.801	13.66
359.011	13.82
359.221	14.04
359.43	13.33
359.64	13.39
359.85	13.19
360.06	13.33
360.269	13.7
360.479	14.56
360.689	14.59
360.899	13.95
361.108	13.96
361.318	14.33
361.528	13.77
361.737	13.77
361.947	13.39
362.156	13.32
362.366	13.14
362.576	12.6
362.785	12.7
362.995	12.65
363.204	13.04
363.414	14.35
363.623	15.12
363.833	15.23
364.042	15.18
364.252	15.87
364.461	15.56
364.671	15.16
364.88	14.15
365.09	14.25
365.299	14.2
365.509	13.54
365.718	12.93
365.927	10.95
366.137	11.19
366.346	11.17
366.555	9.57
366.765	9.74
366.974	9.83
367.183	10.05
367.393	8.62
367.602	8.55
367.811	8.35
368.021	8.24
368.23	8.27
368.439	8.17
368.648	7.97
368.857	10.11
369.067	10.53
369.276	10.9
369.485	11.34
369.694	11.68
369.903	11.9
370.112	11.9
370.321	11.35
370.531	11.63
370.74	10.45
370.949	9.96
371.158	9.38
371.367	9.66
371.576	9.11
371.785	9.27
371.994	9.31
372.203	9.29
372.412	10.16
372.621	10.81
372.83	10.37
373.039	11.26
373.248	11.12
373.457	10.6
373.666	10.63
373.874	10.82
374.083	10.19
374.292	10.16
374.501	8.88
374.71	7.95
374.919	7.72
375.128	7.69
375.336	7.06
375.545	8.26
375.754	8.79
375.963	8.68
376.171	8.27
376.38	9.02
376.589	9.58
376.798	9.87
377.006	9.42
377.215	8.54
377.424	9.08
377.632	9.46
377.841	9.55
378.05	9.3
378.258	8.95
378.467	9.18
378.675	8.7
378.884	8.1
379.093	8.5
379.301	8.46
379.51	9.17
379.718	9.19
379.927	8.87
380.135	8.69
380.344	8.99
380.552	9.16
380.761	9.25
380.969	9.4
381.177	10.03
381.386	10.13
381.594	10.27
381.803	9.59
382.011	9.42
382.219	9.72
382.428	9
382.636	8.58
382.845	8.68
383.053	8.14
383.261	7.71
383.469	7.31
383.678	7.51
383.886	8.24
384.094	8.39
384.302	8.7
384.511	8.48
384.719	9.03
384.927	9.32
385.135	9.39
385.343	9.66
385.552	9.43
385.76	8.98
385.968	8.33
386.176	8.29
386.384	8.29
386.592	7.71
386.8	7.39
387.008	6.96
387.216	7.06
387.424	6.46
387.633	6.76
387.841	7.07
388.049	6.81
388.257	7.27
388.465	6.92
388.672	7.08
388.88	6.95
389.088	7.57
389.296	7.75
389.504	7.39
389.712	7.08
389.92	6.63
390.128	6.34
390.336	6.75
390.544	6.54
390.751	6.59
390.959	6.64
391.167	6.57
391.375	6.41
391.583	6.6
391.79	6.61
391.998	7.14
392.206	7.48
392.414	8.01
392.621	7.8
392.829	7.72
393.037	7.77
393.244	7.92
393.452	8.09
393.66	8.04
393.867	7.63
394.075	8.09
394.283	8.45
394.49	8.26
394.698	7.79
394.905	8.23
395.113	8.15
395.32	8.07
395.528	8.18
395.735	8.15
395.943	8.1
396.15	8.01
396.358	7.5
396.565	6.88
396.773	7.03
396.98	6.95
397.188	6.78
397.395	7.17
397.602	6.9
397.81	6.89
398.017	7.08
398.225	7.1
398.432	7.49
398.639	6.92
398.847	6.54
399.054	6.08
399.261	6.25
399.468	5.97
399.676	5.88
399.883	6.15
400.09	5.61
400.297	5.38
400.505	5.42
400.712	5.12
400.919	5.77
401.126	6.24
401.333	6.53
401.54	6.75
401.748	6.9
401.955	7.03
402.162	6.63
402.369	6.61
402.576	6.81
402.783	6.93
402.99	7.3
403.197	7.37
403.404	7.51
403.611	7.46
403.818	7.5
404.025	7.16
404.232	7.04
404.439	6.98
404.646	7.35
404.853	7.26
405.06	7.28
405.267	7.15
405.474	7.2
405.681	7.11
405.887	7.06
406.094	7.14
406.301	7.62
406.508	7.41
406.715	7.88
406.922	7.84
407.128	8.13
407.335	7.74
407.542	7.75
407.749	7.54
407.955	7.24
408.162	7.23
408.369	6.59
408.575	6.58
408.782	6.65
408.989	6.6
409.195	6.4
409.402	6.04
409.609	5.71
409.815	5.48
410.022	5.5
410.228	5.89
410.435	5.83
410.642	6.09
410.848	6.07
411.055	6.06
411.261	5.97
411.468	6.08
411.674	6.32
411.881	7.06
412.087	7.05
412.294	6.99
412.5	6.91
412.706	6.93
412.913	6.66
413.119	6.49
413.326	6.34
413.532	6.37
413.738	6.39
413.945	6.28
414.151	5.96
414.357	6.27
414.564	6.63
414.77	6.51
414.976	6.73
415.182	7.07
415.389	7.5
415.595	7.59
415.801	7.8
416.007	7.88
416.214	7.89
416.42	7.85
416.626	7.47
416.832	7.45
417.038	7.73
417.244	7.7
417.45	7.61
417.657	7.46
417.863	7.55
418.069	7.41
418.275	7.55
418.481	7.36
418.687	7.41
418.893	7.77
419.099	7.62
419.305	7.48
419.511	7.5
419.717	7.56
419.923	7.47
420.129	7.56
420.335	7.65
420.541	7.49
420.746	7.66
420.952	7.54
421.158	7.37
421.364	7.45
421.57	7.41
421.776	7.41
421.982	7.49
422.187	7.52
422.393	7.35
422.599	7.23
422.805	7.31
423.01	7.21
423.216	7.47
423.422	7.52
423.628	7.46
423.833	7.33
424.039	7.25
424.245	7.19
424.45	7.18
424.656	7.4
424.862	7.47
425.067	7.47
425.273	7.51
425.478	7.35
425.684	7.4
425.889	7.48
426.095	7.69
426.301	7.54
426.506	7.44
426.712	7.26
426.917	7.25
427.123	7.33
427.328	7.24
427.533	7.34
427.739	7.47
427.944	7.34
428.15	7.15
428.355	7.08
428.561	7.42
428.766	7.53
428.971	7.77
429.177	7.69
429.382	7.55
429.587	7.62
429.793	7.69
429.998	7.45
430.203	7.52
430.408	7.61
430.614	7.79
430.819	7.46
431.024	7.61
431.229	7.47
431.434	7.52
431.64	7.49
431.845	7.42
432.05	7.56
432.255	7.8
432.46	7.8
432.665	7.71
432.87	7.46
433.076	7.67
433.281	7.79
433.486	8.05
433.691	7.93
433.896	7.87
434.101	7.86
434.306	7.78
434.511	7.6
434.716	7.66
434.921	7.86
435.126	8.2
435.331	8.22
435.535	7.89
435.74	7.59
435.945	7.43
436.15	7.64
436.355	7.53
436.56	7.53
436.765	7.81
436.97	7.68
437.174	7.57
437.379	7.21
437.584	7.19
437.789	7.29
437.993	7.4
438.198	7.48
438.403	7.29
438.608	7.15
438.812	7.01
439.017	6.84
439.222	7.02
439.426	6.82
439.631	7.24
439.836	7.35
440.04	7.3
440.245	7.25
440.45	7.16
440.654	7.24
440.859	7.33
441.063	7.37
441.268	7.21
441.472	7.01
441.677	7.16
441.881	6.88
442.086	6.69
442.29	6.81
442.495	6.91
442.699	7.08
442.904	6.96
443.108	7.1
443.312	7
443.517	7.17
443.721	7.31
443.925	7.27
444.13	7.36
444.334	7.41
444.538	7.15
444.743	7.15
444.947	7.27
445.151	7.26
445.356	7.09
445.56	7.12
445.764	7.02
445.968	6.87
446.173	6.85
446.377	6.88
446.581	6.97
446.785	7.1
446.989	7.18
447.193	7.07
447.398	7.18
447.602	7.23
447.806	7.26
448.01	7.45
448.214	7.51
448.418	7.63
448.622	7.38
448.826	7.33
449.03	7.19
449.234	7.01
449.438	7
449.642	6.99
449.846	7.16
450.05	7.21
450.254	7.17
450.458	7.2
450.662	7.07
450.866	7.2
451.069	7.1
451.273	7.33
451.477	7.3
451.681	7.17
451.885	7.12
452.089	7.09
452.292	7.21
452.496	7.07
452.7	7.11
452.904	7.19
453.107	7.26
453.311	7.18
453.515	7.02
453.719	6.99
453.922	6.93
454.126	6.89
454.33	6.77
454.533	6.55
454.737	6.48
454.94	6.45
455.144	6.39
455.348	6.38
455.551	6.56
455.755	6.94
455.958	6.81
456.162	7.01
456.365	7.09
456.569	7.04
456.772	7.03
456.976	7.08
457.179	7.13
457.383	7.19
457.586	7.07
457.79	7.1
457.993	6.9
458.196	6.98
458.4	7.05
458.603	6.84
458.807	6.91
459.01	6.93
459.213	7.01
459.417	7.1
459.62	7.19
459.823	7.33
460.026	7.19
460.23	7.27
460.433	7.41
460.636	7.33
460.839	7.5
461.042	7.45
461.246	7.62
461.449	7.64
461.652	7.26
461.855	7.2
462.058	7.06
462.261	7.25
462.464	6.99
462.668	6.77
462.871	6.82
463.074	6.61
463.277	6.62
463.48	6.49
463.683	6.53
463.886	6.98
464.089	7.02
464.292	6.96
464.495	7.03
464.698	7.21
464.901	7.34
465.104	7.55
465.306	7.54
465.509	7.6
465.712	7.66
465.915	7.63
466.118	7.49
466.321	7.45
466.524	7.54
466.726	7.27
466.929	7.31
467.132	7.23
467.335	7
467.538	7.02
467.74	7.04
467.943	6.82
468.146	6.8
468.348	6.98
468.551	6.82
468.754	6.81
468.956	6.96
469.159	6.93
469.362	6.81
469.564	7.01
469.767	7.18
469.969	7.35
470.172	7.3
470.375	7.26
470.577	6.9
470.78	6.89
470.982	7.06
471.185	7.02
471.387	6.83
471.59	7.12
471.792	6.68
471.995	6.48
472.197	6.19
472.399	6.26
472.602	6.25
472.804	6.27
473.007	6.33
473.209	6.2
473.411	6.21
473.614	6.32
473.816	6.17
474.018	6.6
474.22	6.71
474.423	6.91
474.625	7.21
474.827	7.39
475.03	7.27
475.232	7.37
475.434	7.29
475.636	7.27
475.838	7.38
476.04	7.41
476.243	7.02
476.445	7.31
476.647	7.21
476.849	6.93
477.051	6.69
477.253	6.86
477.455	6.85
477.657	6.78
477.859	6.83
478.061	6.67
478.263	6.7
478.465	6.79
478.667	6.58
478.869	6.63
479.071	6.58
479.273	6.76
479.475	6.99
479.677	7.01
479.879	7.26
480.081	7.23
480.283	7.35
480.485	7.43
480.686	7.68
480.888	7.57
481.09	7.49
481.292	7.58
481.494	7.4
481.695	7.34
481.897	7.34
482.099	7.13
482.301	7.1
482.502	7.05
482.704	7.07
482.906	7.1
483.107	7.13
483.309	7.13
483.511	7.12
483.712	7.17
483.914	7.21
484.115	7.17
484.317	7.24
484.519	7.29
484.72	7.28
484.922	7.21
485.123	7.11
485.325	7.15
485.526	7.2
485.728	7.25
485.929	7.22
486.131	7.18
486.332	7.29
486.534	7.27
486.735	7.26
486.936	7.34
487.138	7.41
487.339	7.44
487.541	7.34
487.742	7.25
487.943	7.26
488.144	7.25
488.346	7.21
488.547	7.17
488.748	7.19
488.95	7.17
489.151	7.19
489.352	7.22
489.553	7.21
489.755	7.19
489.956	7.18
490.157	7.13
490.358	7.19
490.559	7.13
490.76	7.09
490.961	7.05
491.163	6.98
491.364	6.94
491.565	6.87
491.766	6.82
491.967	6.9
492.168	6.94
492.369	7.02
492.57	6.96
492.771	7.03
492.972	6.92
493.173	6.93
493.374	6.94
493.575	6.88
493.776	6.83
493.976	6.89
494.177	6.8
494.378	6.76
494.579	6.58
494.78	6.69
494.981	6.73
495.182	6.9
495.382	6.98
495.583	7.1
495.784	7.03
495.985	7.03
496.185	7.07
496.386	7.22
496.587	7.36
496.788	7.35
496.988	7.28
497.189	7.28
497.39	7.26
497.59	7.32
497.791	7.17
497.992	7.35
498.192	7.41
498.393	7.45
498.593	7.44
498.794	7.37
498.994	7.38
499.195	7.47
499.395	7.52
499.596	7.44
499.796	7.34
499.997	7.32
500.197	7.32
500.398	7.57
500.598	7.64
500.799	7.7
500.999	7.75
501.199	8.01
501.4	8.16
501.6	8
501.801	7.94
502.001	7.89
502.201	7.89
502.402	7.72
502.602	7.45
502.802	7.25
503.002	7.13
503.203	7.04
503.403	6.79
503.603	6.77
503.803	6.95
504.003	7.1
504.204	7.15
504.404	7.15
504.604	7.23
504.804	7.39
505.004	7.74
505.204	7.94
505.404	8.13
505.604	8.09
505.804	8
506.005	8.08
506.205	8.09
506.405	8.16
506.605	8.37
506.805	8.62
507.005	8.38
507.204	8
507.404	7.96
507.604	7.85
507.804	8.03
508.004	7.85
508.204	7.87
508.404	8
508.604	8.03
508.804	8.09
509.003	7.88
509.203	8.02
509.403	8.2
509.603	8.15
509.803	8.25
510.002	8.15
510.202	8.45
510.402	8.28
510.602	8.34
510.801	8.36
511.001	8.46
511.201	8.56
511.4	8.73
511.6	8.78
511.8	8.7
511.999	8.52
512.199	8.64
512.398	8.39
512.598	8.45
512.797	8.4
512.997	8.39
513.197	8.41
513.396	8.52
513.596	8.35
513.795	8.34
513.994	8.39
514.194	8.53
514.393	8.48
514.593	8.72
514.792	8.73
514.992	8.79
515.191	8.65
515.39	8.52
515.59	8.46
515.789	8.57
515.988	8.54
516.188	8.67
516.387	8.88
516.586	9.01
516.786	9.06
516.985	9.13
517.184	9.12
517.383	9.2
517.582	9.22
517.782	9.26
517.981	9.32
518.18	9.44
518.379	9.55
518.578	9.49
518.777	9.36
518.976	9.29
519.176	9.21
519.375	9.32
519.574	9.42
519.773	9.45
519.972	9.43
520.171	9.37
520.37	9.35
520.569	9.17
520.768	9.11
520.967	9.21
521.166	9.28
521.365	9.39
521.564	9.27
521.762	9.18
521.961	9.14
522.16	9.25
522.359	9.32
522.558	9.37
522.757	9.64
522.956	9.86
523.154	10.01
523.353	10.09
523.552	10.18
523.751	10.16
523.949	10.27
524.148	10.37
524.347	10.24
524.546	10.14
524.744	10.11
524.943	10.03
525.142	10.03
525.34	9.93
525.539	9.96
525.737	9.94
525.936	9.98
526.135	10.12
526.333	10.08
526.532	10.28
526.73	10.34
526.929	10.43
527.127	10.54
527.326	10.46
527.524	10.53
527.723	10.5
527.921	10.55
528.12	10.6
528.318	10.55
528.516	10.64
528.715	10.54
528.913	10.56
529.112	10.59
529.31	10.59
529.508	10.64
529.707	10.66
529.905	10.73
530.103	10.66
530.301	10.72
530.5	10.77
530.698	10.73
530.896	10.8
531.094	10.92
531.293	10.77
531.491	10.73
531.689	10.71
531.887	10.82
532.085	10.76
532.283	10.89
532.481	10.88
532.68	10.84
532.878	10.86
533.076	10.91
533.274	10.9
533.472	11.06
533.67	11.12
533.868	11.16
534.066	11.08
534.264	11.13
534.462	11.08
534.66	10.99
534.858	11.02
535.056	11.06
535.253	11.11
535.451	11.11
535.649	11.19
535.847	11.21
536.045	11.17
536.243	11.34
536.441	11.39
536.638	11.48
536.836	11.62
537.034	11.58
537.232	11.52
537.43	11.53
537.627	11.44
537.825	11.38
538.023	11.25
538.22	11.26
538.418	11.05
538.616	10.88
538.813	10.98
539.011	11.06
539.209	11.17
539.406	11.52
539.604	11.72
539.801	12.06
539.999	12.18
540.196	12.29
540.394	12.5
540.591	12.62
540.789	12.8
540.986	12.81
541.184	12.88
541.381	12.93
541.579	12.75
541.776	12.74
541.974	12.7
542.171	12.74
542.368	12.81
542.566	12.88
542.763	12.99
542.96	12.95
543.158	13.03
543.355	12.94
543.552	12.95
543.75	13.11
543.947	13.08
544.144	13.15
544.341	13.12
544.539	13.09
544.736	12.92
544.933	12.83
545.13	12.91
545.327	13.01
545.524	13.1
545.722	13.3
545.919	13.33
546.116	13.48
546.313	13.58
546.51	13.74
546.707	13.78
546.904	14.03
547.101	14.08
547.298	14.32
547.495	14.17
547.692	14.27
547.889	14.23
548.086	14.28
548.283	14.3
548.48	14.3
548.677	14.26
548.874	14.57
549.07	14.62
549.267	14.87
549.464	14.54
549.661	14.83
549.858	14.9
550.055	14.93
550.251	15.18
550.448	15.31
550.645	15.53
550.842	15.75
551.038	15.72
551.235	15.63
551.432	15.52
551.628	15.81
551.825	15.96
552.022	15.98
552.218	16
552.415	15.79
552.612	15.6
552.808	15.68
553.005	15.48
553.201	15.59
553.398	15.82
553.594	15.97
553.791	16.12
553.987	15.97
554.184	15.96
554.38	16.05
554.577	16.45
554.773	16.86
554.97	16.77
555.166	17.17
555.362	17.09
555.559	17.12
555.755	17.31
555.952	17.46
556.148	17.49
556.344	17.89
556.541	17.97
556.737	18.01
556.933	18.01
557.129	17.88
557.326	17.68
557.522	17.88
557.718	18
557.914	18.08
558.11	18.04
558.307	18.18
558.503	18.24
558.699	18.22
558.895	18.16
559.091	18.14
559.287	18.54
559.483	19.04
559.679	19.1
559.876	18.89
560.072	19.03
560.268	19.14
560.464	19.4
560.66	19.19
560.856	19.43
561.052	19.25
561.247	19.36
561.443	19.22
561.639	19.02
561.835	18.98
562.031	19.38
562.227	19.54
562.423	19.59
562.619	19.42
562.815	19.67
563.01	19.8
563.206	20.03
563.402	19.99
563.598	20.11
563.793	20.22
563.989	20.55
564.185	20.29
564.381	20.2
564.576	20.21
564.772	20.46
564.968	20.51
565.163	20.61
565.359	20.86
565.555	21.14
565.75	21.45
565.946	21.46
566.141	21.17
566.337	21.38
566.532	21.6
566.728	21.87
566.923	21.94
567.119	22.08
567.314	22.21
567.51	22.41
567.705	22.35
567.901	22.36
568.096	22.47
568.292	22.83
568.487	23.04
568.682	22.61
568.878	22.79
569.073	22.86
569.268	23
569.464	22.71
569.659	22.63
569.854	22.83
570.05	22.75
570.245	23.03
570.44	23.23
570.635	23.19
570.831	23.49
571.026	23.35
571.221	23.27
571.416	23.23
571.611	23.6
571.806	23.59
572.002	23.69
572.197	23.93
572.392	23.69
572.587	23.62
572.782	23.75
572.977	23.9
573.172	24.13
573.367	24.4
573.562	24.58
573.757	24.57
573.952	24.77
574.147	24.75
574.342	24.96
574.537	25.3
574.732	25.51
574.927	25.81
575.121	25.96
575.316	25.91
575.511	26.04
575.706	25.98
575.901	25.98
576.096	26.19
576.29	26.18
576.485	26.09
576.68	26.1
576.875	25.89
577.069	25.6
577.264	25.53
577.459	25.69
577.654	25.57
577.848	25.57
578.043	25.64
578.238	25.59
578.432	25.8
578.627	26.02
578.821	26.09
579.016	26.29
579.21	26.57
579.405	26.58
579.6	26.39
579.794	26.38
579.989	26.65
580.183	26.79
580.378	26.94
580.572	26.79
580.766	26.62
580.961	26.73
581.155	26.69
581.35	26.91
581.544	26.97
581.738	26.83
581.933	26.89
582.127	27.02
582.321	26.95
582.516	26.82
582.71	27.24
582.904	27.19
583.099	26.95
583.293	27.24
583.487	26.9
583.681	27.18
583.875	27.41
584.07	27.8
584.264	27.61
584.458	27.82
584.652	27.89
584.846	27.76
585.04	27.64
585.234	27.55
585.428	27.44
585.623	27.35
585.817	27.24
586.011	27.38
586.205	27.36
586.399	27.84
586.593	27.91
586.787	27.93
586.981	27.71
587.174	27.54
587.368	27.81
587.562	27.93
587.756	28.06
587.95	28.26
588.144	28.31
588.338	28.26
588.532	27.94
588.725	27.97
588.919	28.08
589.113	28.32
589.307	28.42
589.501	28.49
589.694	28.26
589.888	28.19
590.082	28.18
590.275	28.3
590.469	28.15
590.663	28.04
590.856	28
591.05	28.03
591.244	28
591.437	28.45
591.631	28.55
591.824	28.95
592.018	29.14
592.212	29.03
592.405	28.82
592.599	28.97
592.792	29.1
592.986	29.16
593.179	29.25
593.372	29.49
593.566	29.27
593.759	29.19
593.953	28.96
594.146	29.04
594.339	29.12
594.533	29.59
594.726	29.64
594.92	29.79
595.113	29.75
595.306	29.93
595.499	29.88
595.693	30.28
595.886	30.28
596.079	30.37
596.272	30.52
596.466	30.56
596.659	30.18
596.852	30.49
597.045	30.55
597.238	30.44
597.431	30.28
597.624	30.45
597.818	30.22
598.011	30.19
598.204	30.18
598.397	30.16
598.59	30.1
598.783	30.27
598.976	29.91
599.169	30.1
599.362	30.16
599.555	30.31
599.748	30.14
599.941	30.41
600.134	30.46
600.326	30.52
600.519	30.75
600.712	31.16
600.905	31.31
601.098	31.39
601.291	31.06
601.483	31.14
601.676	31.16
601.869	30.91
602.062	30.71
602.255	30.81
602.447	31.01
602.64	30.81
602.833	30.51
603.025	30.49
603.218	30.38
603.411	30.63
603.603	30.94
603.796	30.87
603.989	31
604.181	31.22
604.374	31.41
604.566	31.47
604.759	31.72
604.951	31.92
605.144	32.06
605.336	32.37
605.529	32.35
605.721	32.34
605.914	32.2
606.106	32.24
606.299	32.19
606.491	31.9
606.683	31.69
606.876	31.47
607.068	31.43
607.26	31.21
607.453	31.08
607.645	30.98
607.837	30.88
608.03	31.04
608.222	31.38
608.414	31.5
608.606	31.77
608.799	31.78
608.991	31.89
609.183	31.69
609.375	31.68
609.567	31.7
609.759	31.6
609.952	31.33
610.144	31.27
610.336	31.2
610.528	30.85
610.72	30.74
610.912	30.81
611.104	30.55
611.296	30.5
611.488	30.59
611.68	30.55
611.872	30.57
612.064	30.86
612.256	30.62
612.448	30.77
612.64	30.85
612.832	31
613.023	31.24
613.215	31.28
613.407	31.62
613.599	31.45
613.791	31.54
613.983	31.69
614.174	31.77
614.366	32.44
614.558	32.21
614.75	32.54
614.941	32.77
615.133	32.91
615.325	32.74
615.516	33.05
615.708	33.19
615.9	33.31
616.091	33.02
616.283	32.71
616.475	32.17
616.666	32.29
616.858	32.08
617.049	31.76
617.241	31.76
617.432	32.13
617.624	31.57
617.815	31.63
618.007	31.43
618.198	31.55
618.39	32
618.581	32.4
618.773	32.43
618.964	32.79
619.155	32.73
619.347	32.62
619.538	32.42
619.729	32.51
619.921	32.65
620.112	32.53
620.303	32.59
620.494	32.59
620.686	32.46
620.877	32.34
621.068	32.01
621.259	32.01
621.451	31.73
621.642	31.81
621.833	32.04
622.024	31.87
622.215	32.14
622.406	32.28
622.597	32.39
622.788	32.55
622.98	32.67
623.171	32.86
623.362	33.05
623.553	33.22
623.744	33.15
623.935	33.18
624.126	32.96
624.317	32.82
624.508	32.76
624.698	32.77
624.889	32.92
625.08	32.81
625.271	32.77
625.462	32.64
625.653	32.34
625.844	32.59
626.034	32.44
626.225	33.02
626.416	33.18
626.607	32.97
626.798	33.27
626.988	33.01
627.179	33.27
627.37	33.44
627.56	33.74
627.751	34.08
627.942	33.8
628.132	34.18
628.323	33.97
628.514	34.01
628.704	34.5
628.895	33.97
629.085	34.08
629.276	34.01
629.466	33.85
629.657	34.08
629.847	33.94
630.038	34.16
630.228	33.8
630.419	33.59
630.609	33.35
630.8	33.45
630.99	33.63
631.181	33.69
631.371	33.73
631.561	33.61
631.752	33.21
631.942	32.92
632.132	32.93
632.323	33.12
632.513	33.53
632.703	33.36
632.893	32.96
633.084	32.83
633.274	32.82
633.464	32.82
633.654	33.01
633.844	32.84
634.034	33.18
634.225	33.37
634.415	33.47
634.605	33.52
634.795	33.88
634.985	33.97
635.175	33.94
635.365	33.99
635.555	33.98
635.745	33.7
635.935	33.81
636.125	34.06
636.315	33.61
636.505	33.36
636.695	32.78
636.885	32.57
637.075	32.83
637.265	32.94
637.455	32.61
637.644	32.68
637.834	32.86
638.024	32.69
638.214	32.34
638.404	32.58
638.593	32.72
638.783	32.84
638.973	32.92
639.163	32.82
639.352	33.11
639.542	33.19
639.732	32.81
639.921	33.34
640.111	34.02
640.301	34.28
640.49	34.57
640.68	34.64
640.87	34.94
641.059	35.1
641.249	35.43
641.438	35.46
641.628	35.96
641.817	36.64
642.007	36.08
642.196	35.56
642.386	35.36
642.575	35.54
642.764	35.4
642.954	35.32
643.143	35.08
643.333	34.37
643.522	34.06
643.711	33.76
643.901	33.08
644.09	33.47
644.279	33.62
644.469	33.43
644.658	32.97
644.847	33.14
645.036	33.23
645.226	33.47
645.415	33.51
645.604	33.7
645.793	33.51
645.982	33.4
646.171	33
646.361	32.92
646.55	33.19
646.739	33.64
646.928	33.36
647.117	33.13
647.306	33.18
647.495	33.78
647.684	33.4
647.873	34.04
648.062	34.55
648.251	34.43
648.44	34.52
648.629	34.61
648.818	34.07
649.007	34.58
649.196	35.3
649.384	34.84
649.573	34.34
649.762	34.63
649.951	34.52
650.14	34.43
650.328	35.28
650.517	35.51
650.706	35.84
650.895	36.43
651.083	35.9
651.272	35.67
651.461	35.89
651.65	35.89
651.838	36.24
652.027	36.25
652.216	36.26
652.404	35.61
652.593	35.12
652.781	34.58
652.97	34.35
653.158	34.67
653.347	34.68
653.535	35.07
653.724	35.7
653.912	35.2
654.101	34.78
654.289	34.84
654.478	35.21
654.666	35.34
654.855	35.8
655.043	35.54
655.231	35.53
655.42	35.26
655.608	35.15
655.796	34.9
655.985	35.03
656.173	35.71
656.361	35.07
656.55	34.55
656.738	35.09
656.926	34.63
657.114	35
657.302	35.03
657.491	35.32
657.679	35.47
657.867	35.4
658.055	35.6
658.243	35.08
658.431	35.94
658.619	36.12
658.807	36.31
658.996	36.83
659.184	36.8
659.372	36.39
659.56	36.51
659.748	36.43
659.936	35.96
660.124	36.09
660.311	36.01
660.499	35.67
660.687	35.87
660.875	35.68
661.063	35.15
661.251	34.82
661.439	35.32
661.627	34.93
661.814	34.67
662.002	35.29
662.19	35.05
662.378	35.29
662.565	35.34
662.753	35.38
662.941	35.45
663.129	35.98
663.316	36.43
663.504	36.38
663.692	36.46
663.879	37.12
664.067	37.17
664.254	37.37
664.442	37.56
664.63	37.48
664.817	37.27
665.005	36.56
665.192	36.5
665.38	36.28
665.567	36.02
665.755	36.08
665.942	35.52
666.13	35.52
666.317	35
666.504	35
666.692	34.95
666.879	35.08
667.067	34.99
667.254	34.95
667.441	35.08
667.629	35.62
667.816	35.7
668.003	35.13
668.19	35.14
668.378	35.55
668.565	35.59
668.752	35.6
668.939	35.15
669.127	35.64
669.314	35.7
669.501	35.78
669.688	35.47
669.875	35.4
670.062	36
670.249	35.77
670.436	35.9
670.623	36.19
670.81	35.96
670.997	36.49
671.184	36.86
671.371	36.75
671.558	36.6
671.745	36.73
671.932	36.67
672.119	37.32
672.306	37.57
672.493	37.49
672.68	37.66
672.867	38.55
673.054	37.73
673.24	37.59
673.427	37.13
673.614	36.73
673.801	36.51
673.988	36.46
674.174	36.63
674.361	36.09
674.548	36.33
674.734	35.88
674.921	35.03
675.108	35.61
675.294	35.8
675.481	35.9
675.668	37.09
675.854	37.03
676.041	37.25
676.227	36.5
676.414	36.69
676.601	36.1
676.787	36.41
676.974	36.74
677.16	36.78
677.347	36.54
677.533	36.91
677.719	36.59
677.906	36.36
678.092	35.84
678.279	35.75
678.465	36.19
678.651	36.37
678.838	36.16
679.024	36.51
679.21	36.34
679.397	36.2
679.583	36.08
679.769	35.75
679.955	36.31
680.142	36.65
680.328	36.77
680.514	36.65
680.7	36.9
680.886	36.8
681.073	36.58
681.259	36.6
681.445	36.73
681.631	36.54
681.817	37.04
682.003	36.59
682.189	36.87
682.375	36.6
682.561	36.54
682.747	36.43
682.933	36.21
683.119	36.16
683.305	36.47
683.491	36.64
683.677	37.05
683.863	36.7
684.049	37.42
684.235	37.24
684.42	37.91
684.606	37.85
684.792	37.75
684.978	38.25
685.164	38.49
685.349	38.26
685.535	38.24
685.721	37.65
685.907	36.87
686.092	36.57
686.278	36.83
686.464	36.55
686.649	36.19
686.835	35.72
687.021	35.42
687.206	35.59
687.392	35.41
687.577	34.47
687.763	34.83
687.948	35.11
688.134	34.68
688.319	34.39
688.505	34.57
688.69	34.54
688.876	35.68
689.061	35.5
689.247	35.25
689.432	35.81
689.618	36.62
689.803	37.19
689.988	37.7
690.174	37.96
690.359	38.22
690.544	38.74
690.73	39.2
690.915	38.27
691.1	38.72
691.285	38.53
691.471	38.64
691.656	38.39
691.841	37.66
692.026	37.18
692.211	37.06
692.396	36.36
692.582	36.34
692.767	36.41
692.952	37.34
693.137	37.17
693.322	37.36
693.507	37.77
693.692	37.64
693.877	37.55
694.062	38.42
694.247	38.53
694.432	38.52
694.617	38.13
694.802	38.67
694.987	38.39
695.172	37.83
695.357	37.62
695.541	36.81
695.726	37.41
695.911	38.06
696.096	37.66
696.281	37.66
696.466	37.78
696.65	37.69
696.835	37.2
697.02	36.55
697.204	37.52
697.389	37.18
697.574	38.27
697.759	37.63
697.943	37.36
698.128	37.22
698.312	37.3
698.497	37.51
698.682	37.31
698.866	37.28
699.051	37.27
699.235	36.92
699.42	37.44
699.604	36.06
699.789	36.33
699.973	36.67
700.158	36.65
700.342	36.84
700.527	36.53
700.711	36.59
700.895	36.86
701.08	37.37
701.264	37.73
701.448	37.27
701.633	38.07
701.817	37.88
702.001	37.5
702.186	37.71
702.37	37.17
702.554	37.48
702.738	37.98
702.923	37.33
703.107	36.95
703.291	36.74
703.475	35.97
703.659	36.33
703.843	36.59
704.027	36.94
704.212	36.2
704.396	36.14
704.58	35.98
704.764	35.26
704.948	36.14
705.132	35.85
705.316	34.99
705.5	35.93
705.684	35.69
705.868	35.64
706.052	35.39
706.235	36.14
706.419	35.99
706.603	35.68
706.787	35.06
706.971	34.79
707.155	34.63
707.339	35.33
707.522	34.93
707.706	34.7
707.89	34.47
708.074	34.29
708.257	35.03
708.441	36.18
708.625	36.4
708.808	37.01
708.992	36.7
709.176	37.2
709.359	36.39
709.543	36.53
709.727	37.08
709.91	37.11
710.094	38.04
710.277	36.66
710.461	36.57
710.644	36.58
710.828	36.18
711.011	36.35
711.195	36.37
711.378	37.19
711.562	37.3
711.745	36.17
711.928	36.2
712.112	35.2
712.295	35.96
712.478	34.68
712.662	34.55
712.845	35.32
713.028	35.44
713.212	34.71
713.395	33.94
713.578	34.12
713.761	35.4
713.945	36.45
714.128	36.27
714.311	35.62
714.494	36.48
714.677	37.01
714.86	36.4
715.043	36.07
715.227	37.55
715.41	38.46
715.593	38.38
715.776	38.51
715.959	37.6
716.142	38.57
716.325	38.95
716.508	38.72
716.691	38.75
716.874	39.63
717.057	39.6
717.239	39.57
717.422	39.78
717.605	39.54
717.788	39.12
717.971	39.23
718.154	39.07
718.337	38.68
718.519	38.38
718.702	38.37
718.885	38.82
719.068	38.61
719.25	38.22
719.433	38.52
719.616	38.17
719.798	37.75
719.981	38.4
720.164	37.61
720.346	38.89
720.529	38.99
720.712	38.83
720.894	38.18
721.077	38.48
721.259	38.76
721.442	37.33
721.624	37.95
721.807	37.94
721.989	36.75
722.172	37.66
722.354	36.65
722.537	36.61
722.719	36.63
722.901	37.27
723.084	38.01
723.266	38.12
723.448	38.29
723.631	39.17
723.813	40.2
723.995	40.49
724.178	40.66
724.36	41.09
724.542	41.72
724.724	41.34
724.907	40.4
725.089	41.09
725.271	39.75
725.453	40.89
725.635	40.25
725.817	39.3
725.999	40.03
726.181	39.07
726.364	39.73
726.546	39.23
726.728	38.7
726.91	38.77
727.092	37.87
727.274	38.16
727.456	37.14
727.638	36.91
727.819	36.62
728.001	36.68
728.183	36.84
728.365	36.56
728.547	37.25
728.729	37.87
728.911	37.85
729.093	37.56
729.274	37.74
729.456	38.21
729.638	38.94
729.82	39.15
730.001	38.66
730.183	39.09
730.365	38.89
730.546	38.67
730.728	38.7
730.91	39.28
731.091	38.63
731.273	38.36
731.455	38.85
731.636	37.75
731.818	37.87
731.999	38.55
732.181	37.24
732.362	36.37
732.544	35.42
732.725	35.81
732.907	35.57
733.088	35.72
733.27	36.57
733.451	35.86
733.633	36.62
733.814	37.36
733.995	36.09
734.177	37
734.358	38.85
734.539	39.83
734.721	39.89
734.902	39.53
735.083	39.74
735.264	39.05
735.446	38.95
735.627	38.54
735.808	37.7
735.989	39.31
736.17	38.46
736.351	37.41
736.533	37.12
736.714	37.46
736.895	37.45
737.076	37.98
737.257	37.26
737.438	36.78
737.619	36.69
737.8	38.12
737.981	37.81
738.162	38.72
738.343	38.53
738.524	39.24
738.705	38.73
738.886	38.8
739.067	39.23
739.247	39.5
739.428	39.49
739.609	40.64
739.79	39.38
739.971	38.99
740.151	39.41
740.332	39.57
740.513	38.1
740.694	36.73
740.874	36.89
741.055	36.15
741.236	36.39
741.417	36.89
741.597	35.69
741.778	35.93
741.958	36.44
742.139	35.98
742.32	34.9
742.5	37.16
742.681	37.22
742.861	36.33
743.042	37.01
743.222	36.29
743.403	37.4
743.583	38.36
743.764	38.03
743.944	37.98
744.124	38.98
744.305	40.59
744.485	39.74
744.666	41.91
744.846	43.13
745.026	42.23
745.207	42.97
745.387	41.02
745.567	40.03
745.747	40.38
745.928	38.44
746.108	37.69
746.288	37.33
746.468	37.5
746.648	37.24
746.829	36.44
747.009	37.93
747.189	36.76
747.369	37.36
747.549	37.04
747.729	37.14
747.909	38.49
748.089	38.42
748.269	38.19
748.449	37.45
748.629	37.2
748.809	37.73
748.989	38.59
749.169	40.58
749.349	41.66
749.529	42.66
749.709	41.24
749.889	41.46
750.068	41.57
750.248	41.41
750.428	41.72
750.608	41.62
750.788	40.05
750.967	36.39
751.147	36.21
751.327	33.84
751.507	33.06
751.686	34.22
751.866	34.82
752.046	34.3
752.225	34.23
752.405	33.81
752.585	34.16
752.764	35.71
752.944	37.07
753.123	37.16
753.303	37.83
753.482	38.88
753.662	39.33
753.841	38.74
754.021	38.08
754.2	38.85
754.38	39.88
754.559	38.44
754.739	38
754.918	38.31
755.097	38.91
755.277	40.29
755.456	39.62
755.635	38.89
755.815	38.21
755.994	39.99
756.173	39.06
756.352	39.22
756.532	39.06
756.711	39.65
756.89	39.43
757.069	38.4
757.248	37.44
757.427	36.87
757.607	36.27
757.786	36.59
757.965	36.32
758.144	35.51
758.323	34.88
758.502	36.29
758.681	36.4
758.86	36.1
759.039	36.57
759.218	36.71
759.397	37.42
759.576	38.69
759.755	39.61
759.934	39.53
760.113	40.05
760.291	39.92
760.47	41.08
760.649	40.04
760.828	40.11
761.007	40.56
761.186	40.52
761.364	39.58
761.543	39.81
761.722	39.34
761.901	39.06
762.079	39.7
762.258	40.17
762.437	38.56
762.615	38.86
762.794	40.11
762.972	40.9
763.151	41.68
763.33	41.62
763.508	41.73
763.687	41.12
763.865	41.09
764.044	40.85
764.222	40.35
764.401	41.16
764.579	41.05
764.758	39.66
764.936	38.62
765.114	38.63
765.293	39.28
765.471	39.36
765.65	40.36
765.828	40.11
766.006	39.99
766.184	39.22
766.363	37.85
766.541	37.4
766.719	37.49
766.898	35.87
767.076	36.55
767.254	36.16
767.432	35.25
767.61	35.34
767.788	36.04
767.967	35.32
768.145	36.41
768.323	37.58
768.501	38.44
768.679	40.21
768.857	43.14
769.035	43.33
769.213	43.29
769.391	41.95
769.569	41.14
769.747	40.11
769.925	38.79
770.103	38.91
770.281	37.23
770.459	37.95
770.636	37.98
770.814	37.09
770.992	36.25
771.17	36.61
771.348	35.2
771.525	37.87
771.703	38.77
771.881	41.45
772.059	41.64
772.236	43.71
772.414	42.19
772.592	42.73
772.769	42.91
772.947	42.2
773.125	44.99
773.302	48.5
773.48	46.29
773.657	46.18
773.835	46.88
774.013	47.24
774.19	44.96
774.368	47.73
774.545	48.78
774.723	48.8
774.9	49.27
775.077	45.38
775.255	42.58
775.432	42.79
775.61	40.43
775.787	41
775.964	39.78
776.142	41.85
776.319	39.92
776.496	39.8
776.674	39.54
776.851	38.17
777.028	35.69
777.205	37.51
777.382	36.99
777.56	39.18
777.737	36.74
777.914	36.96
778.091	35.81
778.268	34.5
778.445	33.49
778.622	31.87
778.8	32.05
778.977	35.24
779.154	35.69
779.331	35.12
779.508	33
779.685	36.98
779.862	38.51
780.038	42.43
780.215	41.66
780.392	39.6
780.569	42.23
780.746	42.54
780.923	43.47
781.1	43.16
781.277	44.88
781.453	45.33
781.63	43.07
781.807	43.57
781.984	41.67
782.16	41.85
782.337	41.51
782.514	37.71
782.691	37.86
782.867	35.94
783.044	36.83
783.221	34.43
783.397	35.02
783.574	37.67
783.75	35.62
783.927	37.32
784.103	40.21
784.28	42.42
784.456	44.05
784.633	45.95
784.809	45.81
784.986	41.95
785.162	41.36
785.339	40.96
785.515	39.06
785.692	39.9
785.868	36.5
786.044	33
786.221	29.89
786.397	29.9
786.573	28.09
786.749	32.29
786.926	35.8
787.102	35.13
787.278	34.69
787.454	34.94
787.631	33.73
787.807	35.21
787.983	36.85
788.159	38.32
788.335	38.34
788.511	36.86
788.687	34.6
788.863	33.19
789.039	35.26
789.216	35.81
789.392	35.8
789.568	36.38
789.744	37.03
789.919	37.19
790.095	37.27
790.271	40.65
790.447	40.8
790.623	42.51
790.799	45.36
790.975	44.59
791.151	44.65
791.327	43.31
791.502	41.57
791.678	41.71
791.854	43.28
792.03	42.96
792.205	43.97
792.381	43.21
792.557	39.97
792.733	36.81
792.908	38.22
793.084	38.29
793.259	39.54
793.435	39.39
793.611	34.42
793.786	37.3
793.962	39.77
794.137	37.08
794.313	39.38
794.488	41.01
794.664	39.63
794.839	35.49
795.015	34.87
795.19	33.2
795.366	35.41
795.541	34.03
795.716	30.67
795.892	33.52
796.067	33.23
796.242	33.02
796.418	31.7
796.593	30.32
796.768	33.75
796.944	34.69
797.119	35.32
797.294	38.65
797.469	45.79
797.644	45.14
797.82	40.81
797.995	36.09
798.17	38.77
798.345	40.01
798.52	42.37
798.695	40.38
798.87	40.38
799.045	40.94
799.22	39.12
799.395	30.85
799.57	35.02
799.745	34.04
799.92	37.6
800.095	32.73
800.27	31.49
800.445	28.3
800.62	29.19
800.795	27.84
800.97	26.45
801.145	24.75
801.319	31.24
801.494	26.57
801.669	26.97
801.844	31.18
802.018	33.02
802.193	33.86
802.368	31.24
802.543	28.94
802.717	29.4
802.892	26.95
803.067	26.63
803.241	28.29
803.416	28.84
803.59	30.5
803.765	27.55
803.94	26.43
804.114	27.63
804.289	36.75
804.463	38.74
804.638	40.57
804.812	42.91
804.986	44.13
805.161	40.94
805.335	42.14
805.51	39.27
805.684	38.65
805.858	40.59
806.033	37.65
806.207	33.8
806.381	36.31
806.556	31.82
806.73	32.34
806.904	30.04
807.078	31.57
807.253	29
807.427	33.26
807.601	33.74
807.775	33.01
807.949	35.42
808.123	37.41
808.298	36.35
808.472	37.9
808.646	35.8
808.82	40.42
808.994	38.18
809.168	43.57
809.342	41.49
809.516	44.38
809.69	45.34
809.864	44.15
810.038	44.85
810.212	40.7
810.385	44.37
810.559	45.94
810.733	43.05
810.907	45.16
811.081	42.49
811.255	44.69
811.428	41.55
811.602	37.62
811.776	39.11
811.95	38.3
812.123	47.14
812.297	45.4
812.471	44.71
812.644	45.63
812.818	43.99
812.992	41.68
813.165	34.71
813.339	38.45
813.512	40.39
813.686	42.23
813.86	36.13
814.033	25.47
814.207	17.81
814.38	15.7
814.554	20.94
814.727	21.53
814.9	22.21
815.074	22.79
815.247	20.76
815.421	18.49
815.594	14.81
815.767	14.99
815.941	15.2
816.114	27.39
816.287	31.83
816.46	26.23
816.634	28.64
816.807	35.58
816.98	38.4
817.153	39.43
817.327	42.99
817.5	43.58
817.673	44.43
817.846	51.94
818.019	47.92
818.192	45.94
818.365	50.42
818.538	50.97
818.711	44.41
818.884	44.11
819.057	41.56
819.23	42.62
819.403	46.76
819.576	47.68
819.749	41.28
819.922	39.84
820.095	42.39
820.268	43.93
820.441	41.49
820.614	39.72
820.786	36.52
820.959	37.34
821.132	33.51
821.305	34.35
821.477	34.36
821.65	35.59
821.823	36.37
821.996	36.64
822.168	36.24
822.341	36.6
822.514	37.29
822.686	39.69
822.859	40.36
823.031	41.65
823.204	41.15
823.376	40.85
823.549	40.77
823.722	40.4
823.894	40.34
824.067	40.34
824.239	40.12
824.411	39.93
824.584	39.36
824.756	38.43
824.929	37.67
825.101	39.15
825.273	40.24
825.446	40.99
825.618	42.84
825.79	42.4
825.963	41.73
826.135	42.55
826.307	42.72
826.479	41.1
826.652	41.58
826.824	42.67
826.996	40.09
827.168	39
827.34	39.02
827.512	39.49
827.684	39.71
827.856	41.03
828.029	41.17
828.201	42.16
828.373	44.17
828.545	45.03
828.717	43.16
828.889	44.37
829.061	45.46
829.232	45.81
829.404	42.41
829.576	41.2
829.748	40.23
829.92	40.93
830.092	40.65
830.264	38.25
830.436	37.16
830.607	40.83
830.779	38.73
830.951	37.67
831.123	36.06
831.294	36.08
831.466	39.64
831.638	39.15
831.809	39.91
831.981	41.15
832.153	37.86
832.324	33.62
832.496	30.73
832.667	29.53
832.839	32.49
833.011	31.42
833.182	35.98
833.354	34.24
833.525	34.88
833.697	33.42
833.868	37.47
834.039	41.28
834.211	43.94
834.382	43.91
834.554	43.66
834.725	45.8
834.896	46.26
835.068	45.52
835.239	47.67
835.41	49.24
835.581	46.57
835.753	41.77
835.924	41.02
836.095	41.94
836.266	39.98
836.438	44.65
836.609	42.65
836.78	45.26
836.951	44.83
837.122	42.68
837.293	40.63
837.464	46.9
837.635	48.61
837.806	40.83
837.977	35.59
838.148	38.39
838.319	35.38
838.49	29.44
838.661	26.29
838.832	18.63
839.003	16.42
839.174	13.66
839.345	8.25
839.516	4.19
839.687	10.77
839.857	3.58
840.028	0.86
840.199	-1.4
840.37	1.38
840.54	0.06
840.711	12.14
840.882	12.01
841.053	18.5
841.223	19.62
841.394	29.67
841.564	30.14
841.735	35.45
841.906	36.33
842.076	37.37
842.247	33.94
842.417	42.26
842.588	38.43
842.758	48.66
842.929	55.44
843.099	53.9
843.27	44.31
843.44	42.47
843.611	44.21
843.781	52.53
843.951	55.28
844.122	59.13
844.292	47.62
844.462	55.69
844.633	47.93
844.803	28.37
844.973	43.22
845.144	53.17
845.314	43.79
845.484	54.35
845.654	53.94
845.824	27.61
845.995	22.84
846.165	21.64
846.335	-8.85
846.505	-48.4
846.675	-19.46
846.845	-31.47
847.015	-71.18
847.185	-60.53
847.355	-5.4
847.525	-1.69
847.695	-12.12
847.865	9.99
848.035	6.84
848.205	14.86
848.375	21.83
848.545	0.59
848.715	-15.28
848.884	-5.79
849.054	3.64
849.224	-49.5
849.394	-79.57
849.564	12.58
849.733	-9.24
849.903	26.1
850.073	53.7
850.243	40.42
850.412	60.76
850.582	30.3
850.752	43.74
850.921	24.31
851.091	45.44
851.26	43.41
851.43	35.14
851.599	43.31
851.769	27.59
851.939	4.41
852.108	11.63
852.278	7.75
852.447	23.69
852.616	15.26
852.786	22.24
852.955	9.54
853.125	14.53
853.294	26.07
853.463	27.14
853.633	34.76
853.802	43.84
853.971	47.81
854.141	48.81
854.31	43.56
854.479	39.5
854.648	44.55
854.818	61.56
854.987	44.05
855.156	26.99
855.325	-3.03
855.494	13.84
855.663	-14.86
855.832	-8.52
856.001	3.16
856.171	18.93
856.34	27.15
856.509	30.75
856.678	29.37
856.847	43.8
857.016	56.1
857.185	59.21
857.353	65.97
857.522	67.98
857.691	57.5
857.86	44.31
858.029	35.9
858.198	43.6
858.367	44
858.535	52.05
858.704	53.7
858.873	36.85
859.042	13.34
859.21	8.2
859.379	47.4
859.548	62.25
859.717	72.52
859.885	99.01
860.054	77.05
860.222	68.48
860.391	75.04
860.56	89.39
860.728	123.69
860.897	143.91
861.065	145.22
861.234	119.39
861.402	118.24
861.571	112.72
861.739	76.09
861.908	94.65
862.076	84.76
862.244	76.25
862.413	58.86
862.581	43.46
862.749	29.17
862.918	23.02
863.086	32.29
863.254	26.66
863.423	48.39
863.591	46.23
863.759	48.47
863.927	69.34
864.096	66.17
864.264	81.1
864.432	74.56
864.6	66.88
864.768	58.82
864.936	44.78
865.104	39.83
865.272	25.92
865.44	45.01
865.608	55.66
865.776	57.34
865.944	52.17
866.112	43.29
866.28	47.68
866.448	52.94
866.616	51.27
866.784	64.51
866.952	76.91
867.12	76.52
867.288	55.88
867.455	37.58
867.623	17.46
867.791	14.49
867.959	30.94
868.127	33.11
868.294	38.55
868.462	68.71
868.63	33.74
868.797	18.61
868.965	-53.62
869.133	-19.35
869.3	17.15
869.468	26.48
869.636	-21.52
869.803	-85.2
869.971	-67.01
870.138	-8.55
870.306	12.82
870.473	-3.52
870.641	11.47
870.808	32.95
870.975	24.61
871.143	-10.68
871.31	5.98
871.478	13.69
871.645	8.35
871.812	-43.31
871.98	-75.97
872.147	-207.92
872.314	-103.62
872.482	-107.11
872.649	-36.25
872.816	-21.45
872.983	-16.5
873.15	-6.89
873.318	-9.94
873.485	31.78
873.652	36.36
873.819	62.73
873.986	47.92
874.153	63.54
874.32	66.48
874.487	49.53
874.654	0.03
874.821	13.81
874.988	151.28
875.155	200.83
875.322	-269.23
875.489	1209.79
875.656	139.62
875.823	172.64
875.99	73.55
876.157	218.43
876.324	-0.54
876.49	79.52
876.657	81.45
876.824	44.19
876.991	40.54
877.157	49.36
877.324	50.77
877.491	71.53
877.658	45.27
877.824	75.38
877.991	95.55
878.157	122.8
878.324	122.79
878.491	112.66
878.657	81.51
878.824	75.19
878.99	61.84
879.157	48.36
879.323	24.1
879.49	11.44
879.656	-15.14
879.823	12.76
879.989	46.95
880.156	13.87
880.322	-100.98
880.488	39.07
880.655	28.27
880.821	53.26
880.987	46.95
881.154	74.88
881.32	70.4
881.486	65.88
881.652	41.41
881.819	29.39
881.985	38.75
882.151	46.74
882.317	41.44
882.483	40.54
882.649	38.45
882.816	35.64
882.982	30.72
883.148	33.4
883.314	37.05
883.48	37.78
883.646	38.51
883.812	40.58
883.978	40.42
884.144	39.01
884.31	39.71
884.476	40.81
884.642	45.71
884.807	48.02
884.973	45.93
885.139	40.66
885.305	41.34
885.471	43.03
885.637	39.95
885.802	40.98
885.968	45.85
886.134	52.09
886.3	55.98
886.465	51.41
886.631	50.8
886.797	59.02
886.962	59.9
887.128	64.6
887.293	64.83
887.459	57.23
887.625	53.78
887.79	40.32
887.956	16.37
888.121	-3.17
888.287	-0.3
888.452	-2.38
888.618	-44.2
888.783	-38.2
