Data from 2937868_Reflection_2.txt Node
Date: Wed Jul 15 15:04:55 EDT 2015
User: robert
Spectrometer: USB4E03001
Autoset integration time: false
Trigger mode: 4
Integration Time (sec): 1.000000E-1
Scans to average: 10
Electric dark correction enabled: true
Nonlinearity correction enabled: false
Boxcar width: 5
Stray light correction enabled: false
XAxis mode: Wavelengths
Stop averaging: false
Number of Pixels in Spectrum: 3648
>>>>>Begin Spectral Data<<<<<
177.566	838.37
177.785	474.22
178.005	-950.98
178.225	-68.85
178.445	-65.79
178.665	202.62
178.885	197.37
179.105	246.36
179.324	41.24
179.544	59.85
179.764	44.95
179.984	63.29
180.204	66.53
180.423	59.51
180.643	46.2
180.863	32.54
181.083	-6.15
181.302	-33.79
181.522	37.29
181.742	47.97
181.961	-64.69
182.181	284.29
182.401	-165.11
182.621	-23.52
182.84	-26.39
183.06	-3.64
183.279	-48.3
183.499	-56.02
183.719	-20.12
183.938	18.63
184.158	35.77
184.377	13.9
184.597	25.68
184.816	51.68
185.036	88.71
185.256	134.51
185.475	167.36
185.695	-1162.66
185.914	-221.92
186.134	-24.25
186.353	-32.92
186.572	-85.6
186.792	-101.1
187.011	-74.06
187.231	-40.54
187.45	-68.76
187.67	-37.46
187.889	17.84
188.108	-36.81
188.328	141.38
188.547	144.19
188.766	188.25
188.986	-8.97
189.205	-22.67
189.424	-5.36
189.644	67.94
189.863	205.91
190.082	332.08
190.302	-17150
190.521	-433.42
190.74	3.04
190.959	84.85
191.178	98.03
191.398	35.89
191.617	32.88
191.836	25.04
192.055	36.29
192.274	50.8
192.494	74.2
192.713	24.78
192.932	4.16
193.151	17.29
193.37	-36.04
193.589	-515.08
193.808	-1167.25
194.027	134.3
194.246	83.11
194.465	87.78
194.685	68.58
194.904	49.32
195.123	33.77
195.342	10.07
195.561	7.48
195.78	15.69
195.999	16.86
196.218	-0.06
196.436	33.14
196.655	2.98
196.874	0.3
197.093	17.68
197.312	14.28
197.531	-10.38
197.75	24.94
197.969	31.27
198.188	45.6
198.407	43.24
198.625	46.97
198.844	-57.11
199.063	-10.96
199.282	-164.49
199.501	-67.32
199.719	15.27
199.938	29.64
200.157	-98.77
200.376	-78.35
200.594	-52.87
200.813	-189.06
201.032	-232.64
201.251	199.23
201.469	-90.62
201.688	99.37
201.907	139
202.125	131.24
202.344	215.69
202.563	167.26
202.781	158.38
203	154.05
203.218	245.7
203.437	228.2
203.656	1366.83
203.874	-800.14
204.093	-184.73
204.311	-74.9
204.53	-27.65
204.748	7.89
204.967	6.41
205.185	8.13
205.404	2.75
205.622	-12.89
205.841	40.03
206.059	-8.57
206.278	2959.38
206.496	564.74
206.715	266.45
206.933	1573.79
207.151	722.82
207.37	132.23
207.588	232.44
207.806	11.59
208.025	-92.77
208.243	1357.89
208.461	1197.95
208.68	195.5
208.898	322.57
209.116	169.26
209.335	-29.4
209.553	22.55
209.771	137.77
209.989	88.13
210.208	6.83
210.426	-163.33
210.644	-167.84
210.862	413.83
211.081	60.87
211.299	1332.94
211.517	116.11
211.735	47.57
211.953	109.11
212.171	70.43
212.39	112.53
212.608	112.3
212.826	90.13
213.044	318.75
213.262	3.08
213.48	126.32
213.698	106.51
213.916	-6.16
214.134	-43.66
214.352	-17.59
214.57	12.82
214.788	60.77
215.006	61.85
215.224	64.54
215.442	77.54
215.66	249.3
215.878	127.53
216.096	197.94
216.314	198.61
216.532	246.22
216.75	140.76
216.968	201.75
217.185	181.29
217.403	218.06
217.621	514.24
217.839	458.56
218.057	193.08
218.275	-18.1
218.492	-263.52
218.71	-233.59
218.928	-94.89
219.146	-5.91
219.363	31.1
219.581	75.39
219.799	96.96
220.017	103.95
220.234	86.86
220.452	99.11
220.67	114.22
220.887	120.44
221.105	196.62
221.323	449.96
221.54	-415.03
221.758	-9.59
221.976	39.85
222.193	35.08
222.411	8.86
222.629	-15.93
222.846	-16.06
223.064	6.3
223.281	-11.23
223.499	13.54
223.716	-57.19
223.934	-40.36
224.151	-276.4
224.369	-134.08
224.586	-161.44
224.804	-258.14
225.021	-678.92
225.239	-473.56
225.456	-57.55
225.674	-62.07
225.891	-202.76
226.108	-78.79
226.326	-91.77
226.543	-294.12
226.76	-315.99
226.978	-177.52
227.195	-59.1
227.413	-27.16
227.63	0.08
227.847	-49.79
228.064	-12.11
228.282	3.34
228.499	9.01
228.716	4.55
228.934	5.52
229.151	7.43
229.368	9.14
229.585	11.5
229.802	10.55
230.02	6.43
230.237	10.99
230.454	4.13
230.671	5.58
230.888	4.44
231.105	6.13
231.323	3.22
231.54	1.59
231.757	-0.53
231.974	-4.87
232.191	0.46
232.408	10.23
232.625	1.75
232.842	7.13
233.059	-5.95
233.276	-25.54
233.493	-26.56
233.71	-0.19
233.927	-4.07
234.144	-1.53
234.361	9.08
234.578	16.89
234.795	5.63
235.012	12.27
235.229	16.24
235.446	20.28
235.663	26.61
235.879	18.31
236.096	4.15
236.313	2.72
236.53	11.96
236.747	7.69
236.964	-3.65
237.181	5.93
237.397	-0.97
237.614	-7.86
237.831	-22.22
238.048	-22.98
238.264	-21.26
238.481	-29.29
238.698	-21.3
238.915	-32.55
239.131	-31.65
239.348	-16.99
239.565	-12.38
239.781	-11.64
239.998	-7.05
240.215	3.74
240.431	2.58
240.648	11.17
240.865	21.09
241.081	18.7
241.298	19.32
241.514	18.95
241.731	16.56
241.947	14.12
242.164	12.89
242.38	12.21
242.597	11.1
242.814	10.1
243.03	11.42
243.246	8.9
243.463	9.36
243.679	9.91
243.896	8.41
244.112	9.18
244.329	11.34
244.545	14.27
244.762	16.49
244.978	15.8
245.194	20.4
245.411	17.07
245.627	17.94
245.843	19.28
246.06	17.06
246.276	17.16
246.492	15.61
246.709	15.01
246.925	16.59
247.141	16.11
247.357	15.94
247.574	14.72
247.79	15.13
248.006	14.38
248.222	13.92
248.439	12.16
248.655	11.78
248.871	11.06
249.087	10.66
249.303	6.32
249.519	4.39
249.736	4.79
249.952	5.64
250.168	4.15
250.384	3.51
250.6	1.04
250.816	6.16
251.032	8.72
251.248	9.61
251.464	8.14
251.68	10.42
251.896	9.79
252.112	7.14
252.328	5.16
252.544	5.3
252.76	4.65
252.976	6.68
253.192	8.05
253.408	9.26
253.624	12.4
253.84	14.33
254.056	13.41
254.272	16.51
254.487	20.29
254.703	22.06
254.919	24.2
255.135	25.44
255.351	27.03
255.567	23.68
255.782	21.08
255.998	17.55
256.214	15.54
256.43	16.08
256.646	14.52
256.861	11.48
257.077	9.14
257.293	6.99
257.508	6.17
257.724	1.74
257.94	4.06
258.155	3.19
258.371	3.87
258.587	6.24
258.802	8.3
259.018	9.41
259.234	10.9
259.449	10.1
259.665	10.67
259.88	11.51
260.096	12.65
260.312	12.11
260.527	11.8
260.743	11.57
260.958	10.64
261.174	10.04
261.389	9.68
261.605	9.72
261.82	11.07
262.036	12.3
262.251	12.36
262.466	11.07
262.682	10.67
262.897	12.64
263.113	14.4
263.328	14.66
263.543	16.06
263.759	13.63
263.974	11.33
264.189	9.53
264.405	4.31
264.62	3.41
264.835	2.27
265.051	1.89
265.266	1.23
265.481	-0.73
265.696	-0.49
265.912	-2.21
266.127	2.4
266.342	5.13
266.557	5.05
266.773	6.08
266.988	6.41
267.203	6.92
267.418	8.43
267.633	8.68
267.848	9.75
268.064	10.02
268.279	10.62
268.494	9.14
268.709	8.25
268.924	10.65
269.139	11.14
269.354	11.47
269.569	11.59
269.784	10.78
269.999	9.78
270.214	10.2
270.429	11.42
270.644	10.7
270.859	11.04
271.074	10.92
271.289	9.97
271.504	10.33
271.719	9.37
271.934	9.76
272.149	9.46
272.363	10.74
272.578	11.07
272.793	9.92
273.008	10.5
273.223	10.06
273.438	9.14
273.653	8.23
273.867	7.74
274.082	7.42
274.297	5.55
274.512	5.56
274.726	2.96
274.941	1.32
275.156	1.65
275.371	-1.21
275.585	0.18
275.8	0.59
276.015	1.15
276.229	2.87
276.444	4.38
276.659	3.34
276.873	2.94
277.088	3.3
277.302	2.85
277.517	1.62
277.732	4.23
277.946	4.36
278.161	5.33
278.375	4.73
278.59	4.25
278.804	3.26
279.019	4.34
279.233	5.03
279.448	4.56
279.662	4.71
279.877	7.5
280.091	8.23
280.306	8.55
280.52	6.08
280.735	5.75
280.949	5.39
281.163	5.97
281.378	6.91
281.592	6.8
281.806	10.1
282.021	10.26
282.235	8.65
282.449	9.09
282.664	9.22
282.878	10.32
283.092	11.44
283.307	12.44
283.521	10.25
283.735	11.79
283.949	12.48
284.164	11.82
284.378	11.41
284.592	11.65
284.806	9.78
285.02	8.45
285.234	9.47
285.449	9.65
285.663	9.67
285.877	10.01
286.091	9.92
286.305	10.53
286.519	8.59
286.733	9.26
286.947	8.88
287.161	10.64
287.375	11.04
287.589	10.57
287.803	9.53
288.017	8.73
288.231	8.2
288.445	8.8
288.659	9.07
288.873	10.46
289.087	10.15
289.301	11.46
289.515	10.54
289.729	10.67
289.943	11.58
290.157	11.22
290.371	12.18
290.584	14.17
290.798	12.54
291.012	11.65
291.226	11.32
291.44	11.73
291.654	10.04
291.867	10.18
292.081	10.87
292.295	8.24
292.509	9.6
292.722	8.19
292.936	6.88
293.15	8.39
293.364	9.89
293.577	9.11
293.791	10.56
294.005	14.28
294.218	12.72
294.432	12.59
294.645	14.24
294.859	15.95
295.073	17
295.286	18.99
295.5	18.46
295.713	18.08
295.927	19.03
296.14	17.75
296.354	15.03
296.568	16.8
296.781	17.66
296.994	17.36
297.208	17.23
297.421	16.35
297.635	14.95
297.848	15.49
298.062	14.53
298.275	15.5
298.489	16.12
298.702	17.26
298.915	17.28
299.129	15.29
299.342	15.56
299.555	14.61
299.769	14.51
299.982	14.84
300.195	14.93
300.409	15.67
300.622	14.99
300.835	12.75
301.048	11.35
301.262	11.48
301.475	12.97
301.688	14.58
301.901	14.32
302.115	14.93
302.328	16.14
302.541	15.17
302.754	14.54
302.967	16.52
303.18	19.58
303.393	20.87
303.607	21.84
303.82	22.54
304.033	22.39
304.246	23.58
304.459	24.03
304.672	24.49
304.885	25.27
305.098	26.04
305.311	24.45
305.524	23.58
305.737	24.13
305.95	24
306.163	23.82
306.376	23.6
306.589	23.36
306.802	23.09
307.015	22.65
307.228	21.65
307.44	21.24
307.653	21.22
307.866	21.05
308.079	20.08
308.292	20.06
308.505	19.96
308.718	18.65
308.93	20.46
309.143	21.25
309.356	20.76
309.569	20.23
309.781	21.11
309.994	22.22
310.207	22.98
310.42	24.26
310.632	23.66
310.845	23.81
311.058	25.84
311.27	24.61
311.483	23.19
311.696	24.03
311.908	24.32
312.121	22.86
312.333	22.07
312.546	20.45
312.759	19.62
312.971	19.05
313.184	17.54
313.396	16.85
313.609	15.84
313.821	17.8
314.034	14.84
314.246	15.91
314.459	16.72
314.671	14.57
314.884	16.03
315.096	15.62
315.309	18.06
315.521	19.26
315.733	17.63
315.946	20.28
316.158	19.49
316.371	23.8
316.583	22.68
316.795	23.83
317.008	24.55
317.22	23.91
317.432	25.3
317.644	23.5
317.857	22.75
318.069	22.54
318.281	20.78
318.494	22.55
318.706	20.32
318.918	20.95
319.13	19.44
319.342	18.36
319.555	17.17
319.767	14.01
319.979	13.02
320.191	13.69
320.403	13.55
320.615	11.83
320.827	11.73
321.039	12.15
321.252	11.38
321.464	11.69
321.676	14.29
321.888	14.94
322.1	18.31
322.312	19.15
322.524	20.45
322.736	21.26
322.948	24.05
323.16	22.04
323.372	21.89
323.584	23.6
323.796	24.41
324.007	22.86
324.219	23.47
324.431	23.65
324.643	24.35
324.855	23.49
325.067	22.88
325.279	21.88
325.491	22.06
325.702	22.75
325.914	23.63
326.126	23.62
326.338	24.74
326.55	26.44
326.761	26.13
326.973	26.17
327.185	24.88
327.396	25.08
327.608	24.73
327.82	24.25
328.032	25.14
328.243	24.84
328.455	24.71
328.666	23.83
328.878	22.82
329.09	22.47
329.301	20.77
329.513	22.38
329.725	23.11
329.936	22.18
330.148	23.67
330.359	22.51
330.571	20.46
330.782	18.51
330.994	20.31
331.205	19.68
331.417	19.31
331.628	18.42
331.84	20.51
332.051	22.19
332.262	23.55
332.474	23.04
332.685	22.74
332.897	23.81
333.108	25.11
333.319	22.38
333.531	23.61
333.742	24.31
333.953	23.76
334.165	22.96
334.376	21.17
334.587	20.05
334.799	20.29
335.01	18.93
335.221	18.46
335.432	19.61
335.644	20.75
335.855	21.61
336.066	20.64
336.277	23.07
336.488	23.59
336.7	24.79
336.911	26.14
337.122	25.42
337.333	26.27
337.544	25.5
337.755	24.35
337.966	24.71
338.177	23.17
338.388	23.47
338.599	23.85
338.811	22.27
339.022	20.26
339.233	19.05
339.444	19.06
339.655	18.77
339.866	19.04
340.076	18.98
340.287	20.02
340.498	19.87
340.709	19.68
340.92	18.68
341.131	18.77
341.342	20.88
341.553	21.84
341.764	24.32
341.975	24.34
342.185	24.85
342.396	26.49
342.607	26.03
342.818	25.53
343.029	26.2
343.239	27.4
343.45	26.6
343.661	24.71
343.872	23.99
344.082	22.29
344.293	22.73
344.504	24
344.714	23.04
344.925	22.43
345.136	21.94
345.346	21.38
345.557	21.17
345.768	22.27
345.978	22.68
346.189	21.99
346.399	22.76
346.61	22.53
346.821	20.93
347.031	20.93
347.242	21.35
347.452	21.44
347.663	20.64
347.873	20.19
348.084	19.59
348.294	19.72
348.504	20.91
348.715	20
348.925	19.56
349.136	21.18
349.346	19.48
349.557	18.66
349.767	19.62
349.977	21.17
350.188	19.9
350.398	19.98
350.608	19.9
350.819	19.18
351.029	19.48
351.239	20.85
351.449	19.1
351.66	20.49
351.87	19.59
352.08	19.67
352.29	20.1
352.501	20.07
352.711	20.87
352.921	22.16
353.131	23.21
353.341	22.09
353.552	20.96
353.762	22.11
353.972	22.97
354.182	24.71
354.392	24.8
354.602	23.3
354.812	24.45
355.022	25.24
355.232	24.67
355.442	23.95
355.652	24.45
355.862	24.33
356.072	24.25
356.282	23.05
356.492	22.56
356.702	22.17
356.912	22.62
357.122	22.41
357.332	21.77
357.542	22.29
357.752	22.04
357.962	22.82
358.171	24.51
358.381	24.14
358.591	24.31
358.801	24.26
359.011	25.07
359.221	25.94
359.43	24.34
359.64	23.15
359.85	22.76
360.06	23.34
360.269	23.09
360.479	21.3
360.689	21.79
360.899	22.26
361.108	23.04
361.318	22.03
361.528	21.25
361.737	22.84
361.947	23.31
362.156	22.95
362.366	21.91
362.576	21.47
362.785	22.55
362.995	22.12
363.204	20.46
363.414	19.32
363.623	20.6
363.833	20.69
364.042	20.01
364.252	19.11
364.461	19.22
364.671	20.47
364.88	20.88
365.09	20.21
365.299	20.63
365.509	21.57
365.718	21.71
365.927	19.77
366.137	19.88
366.346	19.48
366.555	19.28
366.765	19.11
366.974	19.1
367.183	18.29
367.393	18.3
367.602	18.32
367.811	17.92
368.021	17.95
368.23	18.51
368.439	18.5
368.648	17.85
368.857	18.7
369.067	18.38
369.276	18.22
369.485	17.92
369.694	17.7
369.903	16.66
370.112	16.96
370.321	16.27
370.531	17.07
370.74	16.91
370.949	17.65
371.158	17.89
371.367	18.45
371.576	18.63
371.785	18.93
371.994	18.66
372.203	19.2
372.412	19.41
372.621	19.9
372.83	19
373.039	19.19
373.248	18.52
373.457	18.62
373.666	17.67
373.874	16.79
374.083	16.88
374.292	16.45
374.501	16.44
374.71	15.66
374.919	15.92
375.128	16.13
375.336	15.62
375.545	16.01
375.754	15.99
375.963	15.8
376.171	16.3
376.38	16.12
376.589	15.66
376.798	14.71
377.006	15.6
377.215	14.96
377.424	14.81
377.632	13.81
377.841	14.12
378.05	13.22
378.258	13.27
378.467	12.86
378.675	12.73
378.884	13.7
379.093	14.12
379.301	13.24
379.51	13.94
379.718	13.98
379.927	14.73
380.135	14.93
380.344	15.26
380.552	15.21
380.761	15.38
380.969	15.14
381.177	14.33
381.386	13.92
381.594	13.5
381.803	12.88
382.011	12.02
382.219	11.72
382.428	11.1
382.636	11.31
382.845	10.94
383.053	10.1
383.261	9.64
383.469	9.63
383.678	9.82
383.886	10.27
384.094	10.17
384.302	10.57
384.511	11.07
384.719	10.92
384.927	10.4
385.135	11.21
385.343	11.37
385.552	11.75
385.76	12.19
385.968	12.36
386.176	12.35
386.384	12.18
386.592	11.97
386.8	12.2
387.008	12.2
387.216	12.18
387.424	12.08
387.633	11.99
387.841	11.78
388.049	11.12
388.257	10.71
388.465	10.98
388.672	11.28
388.88	11.25
389.088	10.54
389.296	10.44
389.504	10.91
389.712	10.58
389.92	10.66
390.128	10.61
390.336	10.91
390.544	11.27
390.751	11.03
390.959	10.56
391.167	10.93
391.375	11.18
391.583	11.07
391.79	11.12
391.998	11.29
392.206	11.19
392.414	11.46
392.621	11.18
392.829	10.94
393.037	10.95
393.244	11.37
393.452	10.87
393.66	10.68
393.867	10.8
394.075	10.57
394.283	10.05
394.49	9.95
394.698	9.55
394.905	9.46
395.113	9.26
395.32	9.06
395.528	8.62
395.735	9.03
395.943	9.04
396.15	9.02
396.358	9.02
396.565	9.14
396.773	9.15
396.98	8.96
397.188	9.37
397.395	9.35
397.602	9.41
397.81	9.41
398.017	9.24
398.225	9.46
398.432	9.38
398.639	9.06
398.847	8.93
399.054	8.88
399.261	9.1
399.468	9.14
399.676	9.17
399.883	8.94
400.09	9.15
400.297	8.96
400.505	8.71
400.712	8.96
400.919	9.6
401.126	9.97
401.333	10.04
401.54	9.85
401.748	9.85
401.955	9.97
402.162	10.04
402.369	9.94
402.576	10.04
402.783	10.03
402.99	9.74
403.197	9.29
403.404	9.36
403.611	9.29
403.818	9.64
404.025	9.32
404.232	9.61
404.439	9.88
404.646	9.94
404.853	9.91
405.06	10.03
405.267	9.99
405.474	10.05
405.681	10.06
405.887	10.16
406.094	9.94
406.301	10.26
406.508	9.78
406.715	9.71
406.922	9.55
407.128	9.54
407.335	9.47
407.542	9.59
407.749	9.35
407.955	9.14
408.162	8.77
408.369	8.99
408.575	9.29
408.782	9.32
408.989	9.44
409.195	9.49
409.402	9.55
409.609	9.28
409.815	9.02
410.022	9.21
410.228	9.21
410.435	9.24
410.642	9.06
410.848	8.32
411.055	8.3
411.261	7.9
411.468	7.82
411.674	7.83
411.881	7.78
412.087	8.08
412.294	7.99
412.5	7.65
412.706	8.19
412.913	7.96
413.119	8.13
413.326	8.12
413.532	8.13
413.738	8.37
413.945	8.7
414.151	8.88
414.357	8.75
414.564	8.85
414.77	9.03
414.976	8.98
415.182	9.39
415.389	9.35
415.595	9.54
415.801	9.6
416.007	9.68
416.214	9.15
416.42	9.23
416.626	9.42
416.832	9.44
417.038	9.37
417.244	9.28
417.45	9.17
417.657	9.01
417.863	9.13
418.069	9.16
418.275	8.95
418.481	9.18
418.687	8.95
418.893	8.92
419.099	8.86
419.305	8.87
419.511	8.91
419.717	9.1
419.923	9.3
420.129	9.24
420.335	9.36
420.541	9.25
420.746	9.18
420.952	9.17
421.158	9.07
421.364	9.16
421.57	9.08
421.776	9.08
421.982	8.91
422.187	8.82
422.393	8.83
422.599	8.79
422.805	9.02
423.01	9.01
423.216	9.1
423.422	9.21
423.628	9.06
423.833	9.29
424.039	9.14
424.245	9.26
424.45	9.28
424.656	9.09
424.862	8.94
425.067	8.93
425.273	8.88
425.478	8.92
425.684	8.86
425.889	8.78
426.095	8.74
426.301	8.69
426.506	8.55
426.712	8.58
426.917	8.57
427.123	8.76
427.328	8.54
427.533	8.56
427.739	8.64
427.944	8.56
428.15	8.69
428.355	8.61
428.561	9.12
428.766	9.17
428.971	9.22
429.177	9.45
429.382	9.39
429.587	9.62
429.793	9.71
429.998	9.44
430.203	9.46
430.408	9.39
430.614	9.4
430.819	9.17
431.024	9.12
431.229	9.07
431.434	9.01
431.64	9.03
431.845	8.98
432.05	9.01
432.255	9.03
432.46	8.94
432.665	9
432.87	9.01
433.076	8.92
433.281	8.95
433.486	8.99
433.691	9.01
433.896	8.87
434.101	8.65
434.306	8.7
434.511	8.74
434.716	8.85
434.921	8.73
435.126	8.61
435.331	8.66
435.535	8.62
435.74	8.42
435.945	8.34
436.15	8.36
436.355	8.44
436.56	8.5
436.765	8.66
436.97	8.66
437.174	8.98
437.379	9.31
437.584	9.15
437.789	9.07
437.993	9.12
438.198	9.08
438.403	9.21
438.608	9.27
438.812	9.07
439.017	8.96
439.222	9.01
439.426	8.9
439.631	8.76
439.836	8.77
440.04	8.82
440.245	8.93
440.45	9.07
440.654	8.93
440.859	8.95
441.063	9.01
441.268	8.85
441.472	8.66
441.677	8.46
441.881	8.28
442.086	8.34
442.29	8.24
442.495	7.82
442.699	7.84
442.904	7.87
443.108	7.76
443.312	7.49
443.517	7.64
443.721	7.75
443.925	7.9
444.13	7.87
444.334	7.72
444.538	7.91
444.743	8.23
444.947	8.27
445.151	8.16
445.356	8.11
445.56	8.28
445.764	8.22
445.968	8.18
446.173	8.15
446.377	8.34
446.581	8.46
446.785	8.43
446.989	8.45
447.193	8.29
447.398	8.26
447.602	8.39
447.806	8.4
448.01	8.41
448.214	8.56
448.418	8.52
448.622	8.39
448.826	8.19
449.03	8.06
449.234	8.06
449.438	8.02
449.642	7.87
449.846	7.71
450.05	7.66
450.254	7.48
450.458	7.2
450.662	7.28
450.866	7.11
451.069	7.23
451.273	7.58
451.477	7.57
451.681	7.72
451.885	7.83
452.089	7.8
452.292	7.72
452.496	8.06
452.7	8.05
452.904	8.07
453.107	8.24
453.311	8.25
453.515	8.07
453.719	7.86
453.922	7.7
454.126	7.89
454.33	8.01
454.533	7.93
454.737	7.9
454.94	8.11
455.144	8.07
455.348	7.93
455.551	7.78
455.755	7.8
455.958	8.01
456.162	8.28
456.365	8.22
456.569	8.18
456.772	8.35
456.976	8.27
457.179	8.07
457.383	8
457.586	8.18
457.79	8.47
457.993	8.21
458.196	8.19
458.4	8.07
458.603	8.04
458.807	7.95
459.01	7.75
459.213	7.8
459.417	8
459.62	7.97
459.823	7.9
460.026	7.91
460.23	8.04
460.433	7.98
460.636	7.93
460.839	7.86
461.042	7.86
461.246	7.9
461.449	7.8
461.652	7.64
461.855	7.56
462.058	7.58
462.261	7.34
462.464	7.24
462.668	7.11
462.871	7.23
463.074	7.28
463.277	7.28
463.48	7.41
463.683	7.36
463.886	7.29
464.089	7.52
464.292	7.38
464.495	7.34
464.698	7.47
464.901	7.73
465.104	7.42
465.306	7.38
465.509	7.6
465.712	7.64
465.915	7.79
466.118	7.73
466.321	7.41
466.524	7.56
466.726	7.58
466.929	7.47
467.132	7.43
467.335	7.51
467.538	7.57
467.74	7.51
467.943	7.4
468.146	7.27
468.348	7.48
468.551	7.63
468.754	7.51
468.956	7.41
469.159	7.38
469.362	7.27
469.564	7.14
469.767	7.06
469.969	6.81
470.172	6.9
470.375	7.04
470.577	7.04
470.78	7.07
470.982	7.16
471.185	7.47
471.387	7.58
471.59	7.59
471.792	7.79
471.995	8.03
472.197	8
472.399	7.7
472.602	7.61
472.804	7.42
473.007	7.39
473.209	7.42
473.411	7.44
473.614	7.34
473.816	7.29
474.018	7.14
474.22	7.03
474.423	7.2
474.625	7.41
474.827	7.5
475.03	7.56
475.232	7.73
475.434	7.89
475.636	7.97
475.838	8.07
476.04	8.18
476.243	8.24
476.445	8.1
476.647	8.21
476.849	8.16
477.051	7.87
477.253	7.83
477.455	7.85
477.657	7.68
477.859	7.59
478.061	7.5
478.263	7.43
478.465	7.41
478.667	7.4
478.869	7.32
479.071	7.32
479.273	7.64
479.475	7.6
479.677	7.63
479.879	7.58
480.081	7.33
480.283	7.31
480.485	7.25
480.686	7.43
480.888	7.49
481.09	7.58
481.292	7.59
481.494	7.4
481.695	7.57
481.897	7.45
482.099	7.59
482.301	7.76
482.502	7.84
482.704	7.98
482.906	8.02
483.107	8.05
483.309	7.99
483.511	7.99
483.712	8.01
483.914	7.95
484.115	8
484.317	7.97
484.519	7.99
484.72	7.98
484.922	7.9
485.123	7.82
485.325	7.84
485.526	7.87
485.728	7.92
485.929	7.98
486.131	8.07
486.332	8.11
486.534	8.12
486.735	8.12
486.936	8.12
487.138	8.22
487.339	8.28
487.541	8.23
487.742	8.31
487.943	8.28
488.144	8.29
488.346	8.19
488.547	8.12
488.748	8.16
488.95	8.08
489.151	8.08
489.352	8.06
489.553	8
489.755	7.97
489.956	7.77
490.157	7.72
490.358	7.61
490.559	7.72
490.76	7.74
490.961	7.68
491.163	7.76
491.364	7.69
491.565	7.64
491.766	7.74
491.967	7.74
492.168	7.83
492.369	7.89
492.57	7.94
492.771	7.95
492.972	7.94
493.173	8
493.374	7.96
493.575	8.06
493.776	8.07
493.976	8.05
494.177	8.14
494.378	8.16
494.579	8.1
494.78	8.15
494.981	8.11
495.182	8.05
495.382	7.92
495.583	7.81
495.784	7.71
495.985	7.65
496.185	7.63
496.386	7.61
496.587	7.53
496.788	7.62
496.988	7.52
497.189	7.31
497.39	7.35
497.59	7.39
497.791	7.5
497.992	7.57
498.192	7.61
498.393	7.6
498.593	7.64
498.794	7.69
498.994	7.74
499.195	7.91
499.395	8.15
499.596	8.24
499.796	8.17
499.997	8.1
500.197	8.18
500.398	8.26
500.598	8.09
500.799	8
500.999	7.96
501.199	7.94
501.4	7.87
501.6	7.81
501.801	7.69
502.001	7.71
502.201	7.73
502.402	7.67
502.602	7.65
502.802	7.81
503.002	7.83
503.203	7.78
503.403	7.54
503.603	7.45
503.803	7.5
504.003	7.63
504.204	7.68
504.404	7.98
504.604	7.79
504.804	7.75
505.004	7.66
505.204	7.64
505.404	7.65
505.604	7.98
505.804	7.94
506.005	7.9
506.205	7.87
506.405	7.91
506.605	7.67
506.805	7.93
507.005	7.88
507.204	7.95
507.404	8.02
507.604	7.93
507.804	7.83
508.004	7.86
508.204	7.79
508.404	7.75
508.604	7.63
508.804	7.68
509.003	7.62
509.203	7.84
509.403	7.99
509.603	8.04
509.803	8.16
510.002	7.94
510.202	8.06
510.402	8.23
510.602	8.2
510.801	8.51
511.001	8.48
511.201	8.53
511.4	8.54
511.6	8.43
511.8	8.34
511.999	8.35
512.199	8.49
512.398	8.37
512.598	8.14
512.797	8.21
512.997	8.19
513.197	8.12
513.396	8.12
513.596	8.17
513.795	8.28
513.994	8.23
514.194	8.39
514.393	8.58
514.593	8.7
514.792	9.02
514.992	8.91
515.191	8.7
515.39	8.8
515.59	8.7
515.789	8.52
515.988	8.53
516.188	8.79
516.387	8.72
516.586	8.63
516.786	8.72
516.985	8.71
517.184	8.95
517.383	9.05
517.582	9.01
517.782	9.12
517.981	9.14
518.18	9.14
518.379	8.99
518.578	8.93
518.777	8.98
518.976	9.02
519.176	8.88
519.375	8.75
519.574	8.76
519.773	8.79
519.972	8.98
520.171	9
520.37	8.92
520.569	8.9
520.768	8.98
520.967	8.93
521.166	8.74
521.365	8.91
521.564	9.01
521.762	8.93
521.961	8.89
522.16	8.72
522.359	8.68
522.558	8.77
522.757	8.91
522.956	8.7
523.154	8.68
523.353	8.77
523.552	8.64
523.751	8.67
523.949	8.73
524.148	8.96
524.347	8.99
524.546	9.08
524.744	9.07
524.943	9.1
525.142	9.37
525.34	9.42
525.539	9.46
525.737	9.58
525.936	9.58
526.135	9.59
526.333	9.56
526.532	9.58
526.73	9.56
526.929	9.61
527.127	9.67
527.326	9.6
527.524	9.64
527.723	9.69
527.921	9.73
528.12	9.77
528.318	9.86
528.516	9.89
528.715	9.9
528.913	9.88
529.112	9.84
529.31	9.76
529.508	9.79
529.707	9.81
529.905	9.72
530.103	9.69
530.301	9.7
530.5	9.57
530.698	9.55
530.896	9.44
531.094	9.49
531.293	9.51
531.491	9.62
531.689	9.69
531.887	9.83
532.085	9.9
532.283	9.99
532.481	10.12
532.68	10.2
532.878	10.28
533.076	10.43
533.274	10.45
533.472	10.53
533.67	10.57
533.868	10.53
534.066	10.42
534.264	10.52
534.462	10.45
534.66	10.33
534.858	10.44
535.056	10.29
535.253	10.29
535.451	10.31
535.649	10.35
535.847	10.37
536.045	10.45
536.243	10.42
536.441	10.44
536.638	10.44
536.836	10.51
537.034	10.5
537.232	10.54
537.43	10.54
537.627	10.53
537.825	10.42
538.023	10.44
538.22	10.39
538.418	10.51
538.616	10.59
538.813	10.6
539.011	10.68
539.209	10.78
539.406	10.99
539.604	10.93
539.801	11.24
539.999	11.37
540.196	11.47
540.394	11.51
540.591	11.59
540.789	11.66
540.986	11.85
541.184	11.88
541.381	11.88
541.579	11.96
541.776	12.03
541.974	11.96
542.171	11.98
542.368	11.93
542.566	12
542.763	12.07
542.96	12.15
543.158	12.19
543.355	12.19
543.552	12.22
543.75	12.23
543.947	12.4
544.144	12.4
544.341	12.48
544.539	12.66
544.736	12.79
544.933	12.78
545.13	12.73
545.327	12.73
545.524	12.82
545.722	13.06
545.919	13.12
546.116	13.08
546.313	13.26
546.51	13.31
546.707	13.14
546.904	13.11
547.101	13.26
547.298	13.25
547.495	13.31
547.692	13.37
547.889	13.09
548.086	13.07
548.283	13.13
548.48	13.21
548.677	13.3
548.874	13.45
549.07	13.38
549.267	13.38
549.464	13.65
549.661	13.89
549.858	13.97
550.055	14.22
550.251	14.21
550.448	14.39
550.645	14.47
550.842	14.66
551.038	14.83
551.235	15
551.432	15.03
551.628	15.05
551.825	14.72
552.022	14.74
552.218	14.96
552.415	15.23
552.612	15.12
552.808	14.94
553.005	15.03
553.201	15.24
553.398	15.31
553.594	15.59
553.791	15.67
553.987	15.88
554.184	15.9
554.38	16
554.577	16.1
554.773	16.3
554.97	16.43
555.166	16.35
555.362	16.42
555.559	16.71
555.755	16.63
555.952	16.83
556.148	16.86
556.344	17.14
556.541	17.04
556.737	17.02
556.933	17.1
557.129	17.31
557.326	17.5
557.522	17.38
557.718	17.38
557.914	17.51
558.11	17.28
558.307	17.54
558.503	17.67
558.699	17.61
558.895	17.67
559.091	17.89
559.287	18.06
559.483	18.24
559.679	18.23
559.876	18.25
560.072	18.25
560.268	18.19
560.464	18.19
560.66	18.24
560.856	18.42
561.052	18.36
561.247	18.29
561.443	18.27
561.639	18.15
561.835	18.45
562.031	18.5
562.227	18.77
562.423	19.06
562.619	19.06
562.815	19.1
563.01	19.31
563.206	19.66
563.402	19.43
563.598	19.53
563.793	19.65
563.989	19.81
564.185	19.97
564.381	19.97
564.576	20.1
564.772	20.16
564.968	20.23
565.163	20.28
565.359	20.18
565.555	20.4
565.75	20.53
565.946	20.51
566.141	20.7
566.337	20.77
566.532	20.81
566.728	20.87
566.923	20.9
567.119	20.94
567.314	21
567.51	21.08
567.705	21.28
567.901	21.38
568.096	21.63
568.292	21.44
568.487	21.55
568.682	21.52
568.878	21.62
569.073	21.65
569.268	21.56
569.464	21.65
569.659	21.84
569.854	21.78
570.05	21.55
570.245	21.7
570.44	21.82
570.635	21.82
570.831	21.85
571.026	21.89
571.221	22.25
571.416	22.42
571.611	22.33
571.806	22.33
572.002	22.33
572.197	22.59
572.392	22.44
572.587	22.37
572.782	22.24
572.977	22.58
573.172	22.42
573.367	22.29
573.562	22.32
573.757	22.36
573.952	22.27
574.147	22.48
574.342	22.49
574.537	22.41
574.732	22.54
574.927	22.77
575.121	22.65
575.316	22.68
575.511	22.8
575.706	22.98
575.901	22.99
576.096	23.13
576.29	23.12
576.485	23.23
576.68	23.4
576.875	23.43
577.069	23.51
577.264	23.34
577.459	23.46
577.654	23.52
577.848	23.45
578.043	23.65
578.238	23.62
578.432	23.49
578.627	23.32
578.821	23.42
579.016	23.64
579.21	23.18
579.405	23.21
579.6	23.23
579.794	23.2
579.989	23.04
580.183	23.06
580.378	23.19
580.572	23.48
580.766	23.42
580.961	23.37
581.155	23.24
581.35	23.47
581.544	23.71
581.738	23.77
581.933	23.69
582.127	23.72
582.321	23.75
582.516	23.96
582.71	23.92
582.904	23.97
583.099	24.01
583.293	24.07
583.487	24.4
583.681	24.44
583.875	24.61
584.07	24.75
584.264	25.06
584.458	24.89
584.652	24.49
584.846	24.57
585.04	24.64
585.234	24.65
585.428	24.46
585.623	24.33
585.817	24.32
586.011	23.98
586.205	24.27
586.399	24.11
586.593	24.1
586.787	24.23
586.981	24.16
587.174	24.18
587.368	24.23
587.562	24.51
587.756	24.45
587.95	24.32
588.144	24.62
588.338	24.15
588.532	24.31
588.725	24.68
588.919	25.03
589.113	24.96
589.307	25
589.501	25.01
589.694	24.96
589.888	25.14
590.082	25.18
590.275	25.23
590.469	25.44
590.663	25.42
590.856	25.44
591.05	25.15
591.244	25.41
591.437	25.5
591.631	25.51
591.824	25.34
592.018	25.19
592.212	25.34
592.405	25.51
592.599	25.53
592.792	25.28
592.986	24.97
593.179	24.99
593.372	25.05
593.566	24.88
593.759	24.95
593.953	24.97
594.146	25.14
594.339	25.02
594.533	24.81
594.726	24.64
594.92	24.97
595.113	25.27
595.306	25.27
595.499	25.13
595.693	25.37
595.886	25.4
596.079	25.48
596.272	25.57
596.466	25.65
596.659	25.76
596.852	25.71
597.045	25.81
597.238	25.48
597.431	25.64
597.624	25.66
597.818	25.41
598.011	25.67
598.204	25.96
598.397	26.02
598.59	26.19
598.783	26.07
598.976	26.26
599.169	26.03
599.362	26.35
599.555	26.23
599.748	26.14
599.941	26.43
600.134	26.05
600.326	25.8
600.519	25.44
600.712	25.31
600.905	25.38
601.098	25.71
601.291	25.77
601.483	26.03
601.676	26.1
601.869	26.19
602.062	26.08
602.255	26.19
602.447	26.21
602.64	26.54
602.833	26.66
603.025	27.02
603.218	26.86
603.411	26.8
603.603	26.65
603.796	26.76
603.989	26.81
604.181	27.03
604.374	27.05
604.566	27
604.759	26.95
604.951	26.77
605.144	26.38
605.336	26.26
605.529	26.13
605.721	26.21
605.914	26.1
606.106	26.16
606.299	26.06
606.491	26.13
606.683	26.23
606.876	26.41
607.068	26.4
607.26	26.56
607.453	26.51
607.645	26.72
607.837	26.47
608.03	26.74
608.222	26.83
608.414	26.73
608.606	26.6
608.799	26.64
608.991	26.33
609.183	26.43
609.375	26.5
609.567	26.35
609.759	26.47
609.952	26.19
610.144	25.98
610.336	25.68
610.528	25.66
610.72	25.7
610.912	25.38
611.104	25.49
611.296	25.5
611.488	25.52
611.68	25.92
611.872	25.72
612.064	26.26
612.256	26.15
612.448	26.15
612.64	26.07
612.832	25.77
613.023	25.77
613.215	25.93
613.407	25.83
613.599	25.62
613.791	25.57
613.983	25.64
614.174	25.25
614.366	25.33
614.558	25.44
614.75	25.67
614.941	25.87
615.133	26.01
615.325	25.5
615.516	25.57
615.708	25.76
615.9	25.44
616.091	25.45
616.283	25.66
616.475	25.9
616.666	26.01
616.858	25.94
617.049	25.71
617.241	25.83
617.432	26.36
617.624	26.25
617.815	26.23
618.007	26.5
618.198	26.66
618.39	26.57
618.581	26.24
618.773	26.39
618.964	26.56
619.155	26.87
619.347	26.87
619.538	26.59
619.729	26.56
619.921	26.88
620.112	27.21
620.303	27
620.494	27.03
620.686	27.34
620.877	27.22
621.068	26.99
621.259	27.46
621.451	27.4
621.642	27.68
621.833	27.84
622.024	27.69
622.215	27.58
622.406	27.75
622.597	27.92
622.788	27.8
622.98	27.57
623.171	27.47
623.362	27.09
623.553	27.12
623.744	26.86
623.935	26.7
624.126	26.59
624.317	26.43
624.508	26.49
624.698	26.16
624.889	26.21
625.08	26.54
625.271	26.95
625.462	26.92
625.653	27.25
625.844	27.45
626.034	27.34
626.225	27.41
626.416	27.39
626.607	27.28
626.798	27.49
626.988	27.96
627.179	27.71
627.37	27.63
627.56	27.72
627.751	27.53
627.942	27.33
628.132	27.67
628.323	27.85
628.514	27.73
628.704	27.84
628.895	27.88
629.085	27.28
629.276	27.41
629.466	27.15
629.657	27.26
629.847	27.33
630.038	27.36
630.228	27.26
630.419	26.9
630.609	26.98
630.8	26.46
630.99	26.6
631.181	26.26
631.371	26.09
631.561	25.96
631.752	25.82
631.942	25.84
632.132	26.25
632.323	26.23
632.513	26.51
632.703	26.75
632.893	26.98
633.084	26.51
633.274	27.13
633.464	26.87
633.654	27.17
633.844	26.81
634.034	26.82
634.225	26.48
634.415	26.52
634.605	26.01
634.795	25.81
634.985	26.06
635.175	26.35
635.365	26.11
635.555	26.55
635.745	26.18
635.935	26.73
636.125	26.44
636.315	26.64
636.505	26.91
636.695	27.38
636.885	27.24
637.075	27.49
637.265	27.84
637.455	27.63
637.644	27.77
637.834	28.06
638.024	27.78
638.214	27.88
638.404	27.78
638.593	27.13
638.783	26.93
638.973	27.09
639.163	26.39
639.352	26
639.542	26.03
639.732	25.96
639.921	26.3
640.111	26.53
640.301	26.45
640.49	26.29
640.68	26.39
640.87	26.45
641.059	26.48
641.249	27.12
641.438	26.72
641.628	26.98
641.817	26.76
642.007	26.14
642.196	25.96
642.386	26
642.575	25.85
642.764	26
642.954	25.89
643.143	25.86
643.333	25.3
643.522	25.51
643.711	25.32
643.901	25.47
644.09	25.89
644.279	26.13
644.469	26.33
644.658	26.33
644.847	26.33
645.036	26.28
645.226	26.2
645.415	27.04
645.604	27.09
645.793	27.64
645.982	27.58
646.171	27.5
646.361	27.18
646.55	27.07
646.739	27.34
646.928	27.4
647.117	27.72
647.306	28.13
647.495	27.71
647.684	27.9
647.873	27.39
648.062	27.11
648.251	26.77
648.44	26.46
648.629	26.31
648.818	25.9
649.007	26.12
649.196	25.77
649.384	25.4
649.573	25.25
649.762	25.16
649.951	25.81
650.14	26.22
650.328	26.64
650.517	26.99
650.706	27.41
650.895	27.64
651.083	27.51
651.272	27.51
651.461	27.61
651.65	27.91
651.838	27.99
652.027	27.15
652.216	27.17
652.404	27.03
652.593	26.88
652.781	26.64
652.97	26.48
653.158	26.45
653.347	26.79
653.535	26.07
653.724	25.91
653.912	26.55
654.101	27.02
654.289	26.85
654.478	26.75
654.666	26.81
654.855	26.48
655.043	26.86
655.231	26.84
655.42	26.77
655.608	27.41
655.796	27.47
655.985	26.83
656.173	26.19
656.361	25.8
656.55	26
656.738	26.36
656.926	26.7
657.114	26.75
657.302	26.64
657.491	26.29
657.679	26.49
657.867	26.57
658.055	27.12
658.243	27.78
658.431	27.87
658.619	28.02
658.807	27.71
658.996	27.53
659.184	27.64
659.372	27.47
659.56	28.16
659.748	28.14
659.936	28.12
660.124	27.46
660.311	27
660.499	27.79
660.687	27.37
660.875	27.64
661.063	27.91
661.251	27.93
661.439	28.32
661.627	27.86
661.814	27.61
662.002	27.24
662.19	27.7
662.378	28.04
662.565	27.63
662.753	27.22
662.941	27.07
663.129	27.12
663.316	26.51
663.504	25.94
663.692	26
663.879	26.62
664.067	26.65
664.254	26.96
664.442	27.38
664.63	27.08
664.817	27.82
665.005	27.58
665.192	27.43
665.38	27.45
665.567	27.8
665.755	28.02
665.942	27.32
666.13	27.29
666.317	27.18
666.504	26.58
666.692	26.34
666.879	26.71
667.067	26.42
667.254	26.37
667.441	26.7
667.629	26.55
667.816	25.98
668.003	26.11
668.19	26.41
668.378	26.24
668.565	26.42
668.752	26.2
668.939	25.65
669.127	25.59
669.314	25.77
669.501	25.76
669.688	25.93
669.875	26.34
670.062	26.46
670.249	26.83
670.436	26.52
670.623	26.14
670.81	26.04
670.997	26.41
671.184	27.16
671.371	27.33
671.558	27.63
671.745	27.53
671.932	27.55
672.119	27.1
672.306	26.93
672.493	26.66
672.68	26.78
672.867	26.96
673.054	26.71
673.24	25.92
673.427	25.23
673.614	24.93
673.801	24.28
673.988	23.78
674.174	24.74
674.361	23.67
674.548	24.69
674.734	25.09
674.921	25.51
675.108	26.29
675.294	27.04
675.481	27.01
675.668	26.61
675.854	27.29
676.041	27.71
676.227	27.28
676.414	28.31
676.601	27.51
676.787	27.28
676.974	26.89
677.16	26.13
677.347	25.79
677.533	26.32
677.719	26.62
677.906	26.95
678.092	26.8
678.279	26.97
678.465	26.48
678.651	26.52
678.838	26.58
679.024	26.98
679.21	27.28
679.397	27.96
679.583	28.11
679.769	28.14
679.955	27.52
680.142	27.65
680.328	27.74
680.514	27.93
680.7	28.14
680.886	28.5
681.073	28.52
681.259	28.11
681.445	28.07
681.631	27.68
681.817	27.86
682.003	28.21
682.189	28.4
682.375	28.52
682.561	28.27
682.747	28.29
682.933	28.44
683.119	28.3
683.305	28.47
683.491	28.26
683.677	28.84
683.863	29.25
684.049	29.48
684.235	28.81
684.42	28.51
684.606	28.97
684.792	29.32
684.978	28.4
685.164	28.51
685.349	28.93
685.535	28.23
685.721	27.71
685.907	27.31
686.092	28.02
686.278	28.69
686.464	27.62
686.649	27.37
686.835	26.91
687.021	27.63
687.206	27.38
687.392	26.92
687.577	27.26
687.763	27.05
687.948	26.58
688.134	26.09
688.319	26.36
688.505	27.76
688.69	27.86
688.876	27.5
689.061	27.16
689.247	27.15
689.432	27.28
689.618	27.27
689.803	28.3
689.988	28.54
690.174	28.56
690.359	28.09
690.544	27.51
690.73	27.46
690.915	28
691.1	27.89
691.285	28.7
691.471	28.87
691.656	28.67
691.841	27.99
692.026	28.4
692.211	28.07
692.396	27.23
692.582	27.31
692.767	27.16
692.952	26.53
693.137	26.35
693.322	25.94
693.507	25.29
693.692	25.71
693.877	24.83
694.062	24.39
694.247	24.71
694.432	25.33
694.617	25.38
694.802	25.45
694.987	25.94
695.172	25.75
695.357	26.1
695.541	27.23
695.726	26.79
695.911	26.69
696.096	26.96
696.281	27.32
696.466	27.27
696.65	26.99
696.835	27.45
697.02	27.56
697.204	27.95
697.389	27.69
697.574	27.62
697.759	27.4
697.943	28.3
698.128	28.18
698.312	28.27
698.497	28.68
698.682	29.1
698.866	28.52
699.051	28.32
699.235	28.54
699.42	28.46
699.604	28.54
699.789	28.62
699.973	28.29
700.158	28.36
700.342	27.75
700.527	27.55
700.711	26.95
700.895	27.75
701.08	27.89
701.264	27.56
701.448	27.5
701.633	27.06
701.817	26.66
702.001	26.47
702.186	26.14
702.37	26.09
702.554	26.06
702.738	26.48
702.923	26.29
703.107	26.39
703.291	27.01
703.475	26.87
703.659	26.47
703.843	27.48
704.027	27.99
704.212	27.65
704.396	27.93
704.58	27.17
704.764	26.64
704.948	26.16
705.132	26.18
705.316	25.55
705.5	25.32
705.684	25.67
705.868	25.26
706.052	25.21
706.235	25.91
706.419	25.55
706.603	27.29
706.787	26.83
706.971	27.28
707.155	26.45
707.339	26.59
707.522	26.39
707.706	26.84
707.89	26.64
708.074	26.73
708.257	26.83
708.441	27.15
708.625	25.81
708.808	26.15
708.992	25.04
709.176	25.76
709.359	25.93
709.543	26.57
709.727	26.57
709.91	26.58
710.094	25.95
710.277	25.05
710.461	25.22
710.644	25.61
710.828	25.38
711.011	26.24
711.195	25.88
711.378	25.96
711.562	25.59
711.745	25.41
711.928	25.42
712.112	26
712.295	25.77
712.478	25.78
712.662	26.14
712.845	26.41
713.028	26.59
713.212	26.57
713.395	26.15
713.578	25.48
713.761	24.88
713.945	25.09
714.128	24.24
714.311	24.98
714.494	24.78
714.677	24.14
714.86	24.2
715.043	23.8
715.227	23.59
715.41	24.17
715.593	25.37
715.776	26.28
715.959	27.01
716.142	27.12
716.325	26.61
716.508	27
716.691	27.96
716.874	28.67
717.057	28.4
717.239	29.23
717.422	28.29
717.605	28.67
717.788	27.75
717.971	27.14
718.154	27.07
718.337	27.33
718.519	26.96
718.702	25.63
718.885	25.4
719.068	25.61
719.25	25.05
719.433	25.14
719.616	24.02
719.798	24.86
719.981	25.21
720.164	25.61
720.346	26.25
720.529	24.12
720.712	24.14
720.894	24.65
721.077	24.69
721.259	23.54
721.442	24.67
721.624	25.57
721.807	24.33
721.989	23.98
722.172	24.75
722.354	24.8
722.537	26.76
722.719	26.7
722.901	25.96
723.084	25.98
723.266	27.29
723.448	26.08
723.631	26.44
723.813	27.1
723.995	26.66
724.178	26.28
724.36	25.72
724.542	26.25
724.724	26.63
724.907	26.42
725.089	27.87
725.271	27.77
725.453	28.65
725.635	27.99
725.817	27.22
725.999	27.81
726.181	27.76
726.364	29
726.546	28.52
726.728	28.63
726.91	28.76
727.092	27.85
727.274	28.06
727.456	27.07
727.638	27.08
727.819	28.07
728.001	27.29
728.183	27.17
728.365	26.23
728.547	26.99
728.729	27
728.911	25.81
729.093	25.48
729.274	25.89
729.456	26.45
729.638	25.75
729.82	25.87
730.001	26.26
730.183	26.19
730.365	26.21
730.546	25.37
730.728	25.5
730.91	26.56
731.091	26.49
731.273	26.02
731.455	25.96
731.636	25.89
731.818	25.5
731.999	25.52
732.181	25.56
732.362	25.85
732.544	25.19
732.725	24.29
732.907	24.99
733.088	24.54
733.27	24.02
733.451	23.88
733.633	25.42
733.814	25.47
733.995	25.96
734.177	25.64
734.358	26.34
734.539	27.07
734.721	27.27
734.902	26.36
735.083	26.31
735.264	27.15
735.446	26.92
735.627	24.32
735.808	24.3
735.989	22.71
736.17	24.16
736.351	22.4
736.533	23.16
736.714	25.03
736.895	25.45
737.076	26.13
737.257	25.89
737.438	26.28
737.619	27.82
737.8	27.88
737.981	29.5
738.162	27.73
738.343	29.04
738.524	27.24
738.705	27.74
738.886	28.02
739.067	28.59
739.247	28.6
739.428	28.02
739.609	27.74
739.79	26.3
739.971	24.93
740.151	25.66
740.332	25
740.513	25.51
740.694	23.51
740.874	23.25
741.055	23.32
741.236	24.12
741.417	25.39
741.597	25.45
741.778	26.2
741.958	26.17
742.139	25.4
742.32	25.19
742.5	25.92
742.681	23.8
742.861	24.54
743.042	23.84
743.222	21.35
743.403	20.33
743.583	18.77
743.764	20.91
743.944	20.62
744.124	21.66
744.305	23.94
744.485	24.44
744.666	25.65
744.846	23.44
745.026	23.42
745.207	25.03
745.387	24.98
745.567	26.54
745.747	25.51
745.928	26.15
746.108	25.38
746.288	22.12
746.468	21.58
746.648	21.33
746.829	23.67
747.009	25.31
747.189	26.18
747.369	24.85
747.549	25.13
747.729	23.35
747.909	24.03
748.089	25.45
748.269	26.69
748.449	28.08
748.629	29.25
748.809	27.72
748.989	25.12
749.169	23.74
749.349	24.54
749.529	24.37
749.709	26.39
749.889	25.06
750.068	23.89
750.248	22.87
750.428	21.66
750.608	21.33
750.788	22.1
750.967	22.31
751.147	21.81
751.327	23.21
751.507	23.44
751.686	23.73
751.866	26.08
752.046	25.98
752.225	27.92
752.405	27.71
752.585	29.24
752.764	27.7
752.944	27.11
753.123	28.56
753.303	28.39
753.482	26.9
753.662	26.26
753.841	25.84
754.021	26.87
754.2	24.85
754.38	25.91
754.559	26.34
754.739	27.71
754.918	28.88
755.097	28.33
755.277	27.7
755.456	28.46
755.635	27.47
755.815	27.65
755.994	26.69
756.173	26.56
756.352	25.49
756.532	24.71
756.711	24.31
756.89	24.19
757.069	23.34
757.248	23.51
757.427	25.28
757.607	26.27
757.786	25.43
757.965	25.14
758.144	24.87
758.323	24.63
758.502	24.04
758.681	22.28
758.86	22.67
759.039	23.72
759.218	23.46
759.397	23.25
759.576	22.15
759.755	20.2
759.934	20.99
760.113	22.33
760.291	22.67
760.47	24.19
760.649	25.99
760.828	26.29
761.007	26.33
761.186	27.68
761.364	26.88
761.543	27.04
761.722	28.17
761.901	27.93
762.079	27.76
762.258	27.31
762.437	25.95
762.615	25.47
762.794	24.67
762.972	23.97
763.151	22.52
763.33	21.98
763.508	22.93
763.687	22.71
763.865	22.57
764.044	22.54
764.222	23
764.401	22.87
764.579	23.34
764.758	22.97
764.936	23.42
765.114	24.49
765.293	25.02
765.471	24.67
765.65	26.45
765.828	26.45
766.006	27.61
766.184	27.64
766.363	27.81
766.541	28.25
766.719	28.69
766.898	29.1
767.076	28.46
767.254	29.44
767.432	28.99
767.61	26.81
767.788	27.74
767.967	26.1
768.145	25.95
768.323	24.44
768.501	25.22
768.679	25.99
768.857	25.99
769.035	25.46
769.213	23.29
769.391	24.19
769.569	24.01
769.747	22.19
769.925	20.6
770.103	19.82
770.281	21.59
770.459	20.36
770.636	20.42
770.814	19.54
770.992	20.26
771.17	22.55
771.348	21.02
771.525	22.2
771.703	24.99
771.881	26.35
772.059	26.82
772.236	25.44
772.414	23.52
772.592	22.8
772.769	23.84
772.947	24.59
773.125	24.76
773.302	25.21
773.48	26.52
773.657	22.86
773.835	24.87
774.013	25.32
774.19	23.55
774.368	26.59
774.545	30.01
774.723	28.32
774.9	29.28
775.077	29.46
775.255	31.66
775.432	30.88
775.61	28.91
775.787	27.81
775.964	28.15
776.142	31.13
776.319	28.35
776.496	27.9
776.674	31.69
776.851	29.6
777.028	29.2
777.205	27.86
777.382	28.31
777.56	32.06
777.737	32.26
777.914	27.02
778.091	28.5
778.268	30.94
778.445	30.45
778.622	27.41
778.8	24.95
778.977	24.4
779.154	25.83
779.331	24.47
779.508	24.05
779.685	24.7
779.862	26.63
780.038	23.09
780.215	23.42
780.392	17.38
780.569	17.77
780.746	17.94
780.923	16.81
781.1	16.38
781.277	15.43
781.453	12.98
781.63	11.37
781.807	11.18
781.984	13.67
782.16	10.24
782.337	14.43
782.514	16.45
782.691	20.85
782.867	22.33
783.044	19.29
783.221	21.71
783.397	24.87
783.574	24.65
783.75	25.2
783.927	24.06
784.103	25.09
784.28	24.17
784.456	20.1
784.633	15.87
784.809	13.2
784.986	12.4
785.162	8.4
785.339	8.8
785.515	7.97
785.692	12.01
785.868	9.35
786.044	11.61
786.221	12.42
786.397	12.87
786.573	15.72
786.749	13.52
786.926	15.59
787.102	17.11
787.278	16.27
787.454	18.27
787.631	13.62
787.807	17.65
787.983	18.25
788.159	17.34
788.335	21.53
788.511	21.1
788.687	22.21
788.863	24.78
789.039	24.09
789.216	23.83
789.392	25.37
789.568	31.34
789.744	31.49
789.919	32.49
790.095	32.5
790.271	30.06
790.447	30.79
790.623	32.76
790.799	27.34
790.975	32.68
791.151	35.22
791.327	32.13
791.502	28.4
791.678	27.36
791.854	25.99
792.03	28.05
792.205	28.72
792.381	26.33
792.557	26.3
792.733	25.67
792.908	24.53
793.084	20.76
793.259	22.78
793.435	24.8
793.611	23.35
793.786	22.83
793.962	20.31
794.137	20.29
794.313	20.7
794.488	23.03
794.664	24.73
794.839	18.46
795.015	20.85
795.19	18.46
795.366	14.79
795.541	14.83
795.716	16.35
795.892	18.29
796.067	14.49
796.242	16.68
796.418	14.38
796.593	17.78
796.768	23.56
796.944	23.17
797.119	26.3
797.294	27.72
797.469	26.99
797.644	26.01
797.82	24.88
797.995	25.86
798.17	27.72
798.345	26.73
798.52	25.14
798.695	21.05
798.87	18.91
799.045	19.32
799.22	23.1
799.395	24.6
799.57	21.7
799.745	21.1
799.92	24.71
800.095	20.48
800.27	21.73
800.445	22.17
800.62	23.87
800.795	25.78
800.97	25.58
801.145	22.95
801.319	20.08
801.494	22.04
801.669	27.22
801.844	26.35
802.018	31.1
802.193	31.53
802.368	25.64
802.543	23.79
802.717	21.99
802.892	19.65
803.067	18.13
803.241	27
803.416	24.7
803.59	19.03
803.765	16.76
803.94	14.06
804.114	11.77
804.289	16.12
804.463	17.29
804.638	20.81
804.812	24.92
804.986	26.7
805.161	19.33
805.335	23.86
805.51	26.54
805.684	26.3
805.858	24.16
806.033	24.72
806.207	24.67
806.381	28.61
806.556	25.12
806.73	18.8
806.904	15.06
807.078	18.75
807.253	19.65
807.427	15.32
807.601	17.91
807.775	12.99
807.949	11.7
808.123	12.67
808.298	10.44
808.472	4.48
808.646	5.24
808.82	0.51
808.994	1.85
809.168	-5.39
809.342	2.8
809.516	1.92
809.69	3.54
809.864	6.25
810.038	6.59
810.212	9.02
810.385	16.12
810.559	19.52
810.733	23.69
810.907	17.4
811.081	21.54
811.255	18.8
811.428	19.4
811.602	22.66
811.776	21.76
811.95	19.87
812.123	19
812.297	16.98
812.471	16.19
812.644	22.74
812.818	23.74
812.992	24.77
813.165	22.8
813.339	21.29
813.512	24.71
813.686	21.23
813.86	28.47
814.033	21.89
814.207	21.54
814.38	21.85
814.554	18.15
814.727	20.65
814.9	19.12
815.074	17.87
815.247	22.18
815.421	20.92
815.594	23.1
815.767	14.15
815.941	19.39
816.114	16.88
816.287	16.58
816.46	12.14
816.634	19.37
816.807	22.26
816.98	24.83
817.153	22.63
817.327	24.03
817.5	27.06
817.673	31
817.846	31.86
818.019	33.39
818.192	33.13
818.365	36.31
818.538	32.39
818.711	23.64
818.884	24.26
819.057	22.19
819.23	16.59
819.403	14.45
819.576	15.66
819.749	17.69
819.922	19.42
820.095	20.55
820.268	17.57
820.441	16.58
820.614	23.27
820.786	21.3
820.959	23.61
821.132	25.11
821.305	24.71
821.477	23.43
821.65	22.87
821.823	23.72
821.996	22.42
822.168	24.63
822.341	26.18
822.514	26.42
822.686	26.52
822.859	26.42
823.031	27.12
823.204	27.16
823.376	28.14
823.549	28
823.722	28.66
823.894	28.32
824.067	27.09
824.239	27.36
824.411	27.36
824.584	27.18
824.756	27.05
824.929	26.17
825.101	26.11
825.273	24.14
825.446	24.79
825.618	24.95
825.79	25.49
825.963	26.67
826.135	23.46
826.307	23.99
826.479	24.26
826.652	23.23
826.824	23.69
826.996	24.12
827.168	26.22
827.34	26.55
827.512	24.63
827.684	24.39
827.856	24.19
828.029	24.52
828.201	22.89
828.373	21.25
828.545	22.63
828.717	21.08
828.889	20.52
829.061	19.37
829.232	15.77
829.404	16.05
829.576	15.16
829.748	12.37
829.92	12.39
830.092	14.91
830.264	16.09
830.436	14.77
830.607	17.72
830.779	18.95
830.951	17.34
831.123	18.47
831.294	17.51
831.466	19.22
831.638	25.56
831.809	29.13
831.981	20.19
832.153	22.24
832.324	18.54
832.496	18.67
832.667	14.52
832.839	20.62
833.011	25.59
833.182	26.3
833.354	24.18
833.525	23.6
833.697	19.65
833.868	21.42
834.039	17.99
834.211	19.91
834.382	20.34
834.554	20.97
834.725	17.94
834.896	15.35
835.068	13.41
835.239	15.49
835.41	12.89
835.581	12.2
835.753	13.19
835.924	16.38
836.095	16.08
836.266	15.75
836.438	13.71
836.609	15.88
836.78	16.48
836.951	13
837.122	8.95
837.293	7.34
837.464	10.96
837.635	6.04
837.806	8.38
837.977	11.69
838.148	8.49
838.319	15.05
838.49	12.02
838.661	10.8
838.832	13.87
839.003	13.28
839.174	17.36
839.345	22.23
839.516	22.38
839.687	25.82
839.857	15.5
840.028	6.12
840.199	3.03
840.37	3.24
840.54	-2.57
840.711	-0.19
840.882	4.97
841.053	-7.26
841.223	-10.27
841.394	-27.21
841.564	-36.72
841.735	-26
841.906	2.77
842.076	-5.18
842.247	-12.1
842.417	-9.99
842.588	-7.16
842.758	-3.97
842.929	1.69
843.099	0.59
843.27	10.91
843.44	16.48
843.611	10.38
843.781	-19.02
843.951	-0.2
844.122	22.56
844.292	12.24
844.462	12.59
844.633	17.05
844.803	26.63
844.973	11.68
845.144	20.86
845.314	4.58
845.484	25.07
845.654	31.67
845.824	19.5
845.995	8.52
846.165	19.56
846.335	18.7
846.505	9.88
846.675	-3.14
846.845	9.13
847.015	-0.43
847.185	9.97
847.355	-2.36
847.525	-1.71
847.695	-14.4
847.865	-29.98
848.035	-19.25
848.205	-36.66
848.375	-33.05
848.545	-10.58
848.715	-7.11
848.884	-0.44
849.054	1.88
849.224	6.83
849.394	-0.27
849.564	20.09
849.733	15.1
849.903	5.19
850.073	13.53
850.243	21.87
850.412	23.26
850.582	36.74
850.752	40.09
850.921	51.48
851.091	54.37
851.26	64.48
851.43	50.23
851.599	78.22
851.769	106.65
851.939	94.24
852.108	112.44
852.278	92.48
852.447	56.43
852.616	48.03
852.786	38.57
852.955	9
853.125	17.84
853.294	5.36
853.463	11.85
853.633	2.1
853.802	18.96
853.971	-3.95
854.141	3.56
854.31	24.69
854.479	18.21
854.648	6.67
854.818	35.61
854.987	23.57
855.156	31.9
855.325	22.38
855.494	19.43
855.663	-7.63
855.832	-8.61
856.001	-5.74
856.171	-14.1
856.34	-42.52
856.509	-14.6
856.678	1.54
856.847	-12.73
857.016	9.79
857.185	33.34
857.353	32.21
857.522	75.53
857.691	69.12
857.86	57.78
858.029	38.41
858.198	47.58
858.367	36.02
858.535	-4.33
858.704	9.42
858.873	21.24
859.042	-4.89
859.21	9
859.379	-35.38
859.548	-49.06
859.717	-26.83
859.885	-25.27
860.054	21.01
860.222	18.53
860.391	81.19
860.56	110.85
860.728	14.18
860.897	32.14
861.065	52.03
861.234	62.81
861.402	104.44
861.571	93.6
861.739	77.69
861.908	38.99
862.076	54.58
862.244	30.9
862.413	29.83
862.581	41.3
862.749	33.3
862.918	3.11
863.086	-11.73
863.254	-14.94
863.423	-61.45
863.591	-34.34
863.759	-32.79
863.927	-56.59
864.096	-25.68
864.264	-6.35
864.432	-34.48
864.6	-41.9
864.768	-13.81
864.936	-28.37
865.104	-35.52
865.272	-35.92
865.44	-12.75
865.608	-34.34
865.776	-22.14
865.944	-24.62
866.112	-66.54
866.28	-54.71
866.448	-30.17
866.616	-15.19
866.784	-4.52
866.952	-0.04
867.12	-4.6
867.288	-8.78
867.455	-32.13
867.623	-55.04
867.791	-57.54
867.959	-63.37
868.127	-97.92
868.294	-149.98
868.462	-174.39
868.63	-249.66
868.797	-494.71
868.965	-261.96
869.133	-249.5
869.3	-134.37
869.468	-134.81
869.636	-102.96
869.803	-74.58
869.971	-36.49
870.138	-24.9
870.306	-24.07
870.473	-27.02
870.641	5.35
870.808	8.99
870.975	-11.81
871.143	-41.03
871.31	-24.29
871.478	-60.19
871.645	-69.91
871.812	-88.84
871.98	-113.56
872.147	-115.37
872.314	-26.39
872.482	-64.13
872.649	-66.23
872.816	-25.05
872.983	-7.99
873.15	12.37
873.318	11.87
873.485	11.74
873.652	13.44
873.819	17.02
873.986	23.87
874.153	-28.75
874.32	-12.28
874.487	-15.94
874.654	-53.47
874.821	-114.56
874.988	-293.88
875.155	-234.08
875.322	-102.4
875.489	-77.25
875.656	-30.82
875.823	-26.57
875.99	-5.92
876.157	4.66
876.324	29.8
876.49	52.22
876.657	66.68
876.824	74.15
876.991	83.86
877.157	83.42
877.324	88.25
877.491	68.44
877.658	39.81
877.824	53.72
877.991	39.57
878.157	-31.82
878.324	1.16
878.491	-7.31
878.657	-0.42
878.824	-17.02
878.99	-12.88
879.157	0.42
879.323	-22.94
879.49	-36.01
879.656	-19.89
879.823	-42.03
879.989	-18.6
880.156	-98.55
880.322	-104.89
880.488	-43.65
880.655	10.79
880.821	-13.59
880.987	1.35
881.154	21.79
881.32	37.95
881.486	22.47
881.652	24.6
881.819	20.97
881.985	24.71
882.151	27.05
882.317	23.82
882.483	28.11
882.649	31.37
882.816	29.9
882.982	33.13
883.148	28.62
883.314	32.22
883.48	35.4
883.646	33.98
883.812	30.87
883.978	29.61
884.144	29.92
884.31	27.5
884.476	26.97
884.642	27.39
884.807	27.8
884.973	30.86
885.139	26.3
885.305	24.9
885.471	28.22
885.637	26.25
885.802	27.64
885.968	23.77
886.134	24.03
886.3	22.23
886.465	15.78
886.631	7.72
886.797	10.69
886.962	14.97
887.128	14.73
887.293	10.17
887.459	15.19
887.625	9.45
887.79	14.53
887.956	14.93
888.121	15.88
888.287	23.04
888.452	25.86
888.618	13.47
888.783	9.79
