Data from 2937822_Reflection_2.txt Node
Date: Wed Jul 15 17:16:24 EDT 2015
User: robert
Spectrometer: USB4E03001
Autoset integration time: false
Trigger mode: 4
Integration Time (sec): 1.000000E-1
Scans to average: 10
Electric dark correction enabled: true
Nonlinearity correction enabled: false
Boxcar width: 5
Stray light correction enabled: false
XAxis mode: Wavelengths
Stop averaging: false
Number of Pixels in Spectrum: 3648
>>>>>Begin Spectral Data<<<<<
177.566	458.8
177.785	238.19
178.005	237.69
178.225	-347.5
178.445	20.83
178.665	105.75
178.885	58.07
179.105	133.44
179.324	70.52
179.544	96.35
179.764	21.61
179.984	-0.66
180.204	35.3
180.423	-20.87
180.643	-653.68
180.863	-50.74
181.083	-57.06
181.302	-72.64
181.522	-301.8
181.742	-61
181.961	-88.34
182.181	-376.12
182.401	3820.24
182.621	266.38
182.84	-150.04
183.06	-58.28
183.279	-65.65
183.499	-76.97
183.719	-219.8
183.938	-134.8
184.158	-90.47
184.377	-20.61
184.597	-21.41
184.816	-5.21
185.036	-0.6
185.256	-83.73
185.475	-62.25
185.695	-136.98
185.914	-101.05
186.134	-9.94
186.353	-20.39
186.572	-32.29
186.792	-32.55
187.011	-118.07
187.231	-126.76
187.45	-131.66
187.67	-85.48
187.889	-108.74
188.108	-245.94
188.328	-406.22
188.547	-1803.78
188.766	523.72
188.986	586.32
189.205	662.54
189.424	-68.01
189.644	-128.04
189.863	-139.17
190.082	-85.91
190.302	-104.26
190.521	-26.18
190.74	-32.28
190.959	-16.79
191.178	-25.15
191.398	-13.1
191.617	-12.58
191.836	-45.77
192.055	-30.59
192.274	-14.64
192.494	-6.01
192.713	14.35
192.932	-22.89
193.151	-31.3
193.37	-48.19
193.589	-28.98
193.808	-28.05
194.027	-13.96
194.246	-7.58
194.465	-10.14
194.685	-6.29
194.904	-29.58
195.123	-6.69
195.342	-34.95
195.561	-48.13
195.78	-27.81
195.999	-21.74
196.218	-42.43
196.436	-173.8
196.655	-172.3
196.874	-202.63
197.093	-209.55
197.312	-144.81
197.531	-433.22
197.75	-130.05
197.969	-147.69
198.188	-7124.71
198.407	355.48
198.625	391.98
198.844	381.67
199.063	468.26
199.282	846.09
199.501	422.85
199.719	398.84
199.938	251.37
200.157	359.66
200.376	425.08
200.594	370.53
200.813	980.31
201.032	-331.17
201.251	-18255
201.469	-196.44
201.688	15.54
201.907	46.94
202.125	-45.33
202.344	8.22
202.563	-300.39
202.781	-36.98
203	-131.82
203.218	-77.55
203.437	-72.44
203.656	-91.37
203.874	-118.64
204.093	-88.73
204.311	-78.52
204.53	-40.85
204.748	-62.28
204.967	-9.33
205.185	-19.19
205.404	6.41
205.622	-30.92
205.841	-100.07
206.059	-75.61
206.278	-57.36
206.496	-91.77
206.715	-126.13
206.933	-290.83
207.151	-227.81
207.37	-251.98
207.588	-143.91
207.806	-175.31
208.025	-403.77
208.243	-345.86
208.461	2285.77
208.68	792.6
208.898	419.82
209.116	131
209.335	53.57
209.553	32.78
209.771	-52.52
209.989	66.46
210.208	58.27
210.426	56.56
210.644	244.57
210.862	-70.81
211.081	300.69
211.299	-48442.86
211.517	-24.99
211.735	-38.4
211.953	-15.02
212.171	-49.24
212.39	-82.28
212.608	-82.16
212.826	-64.68
213.044	-25.87
213.262	-37.61
213.48	-27.89
213.698	-13.62
213.916	-20.37
214.134	-29.78
214.352	-32.92
214.57	-3.89
214.788	-24.71
215.006	-5.7
215.224	-15.07
215.442	-24.02
215.66	-4.05
215.878	21.76
216.096	8.73
216.314	12.42
216.532	4.23
216.75	20.76
216.968	6.61
217.185	32.87
217.403	31.51
217.621	7.99
217.839	-4.72
218.057	-156.1
218.275	-402.88
218.492	-127.89
218.71	-1722.29
218.928	492.02
219.146	396.44
219.363	293.06
219.581	265.52
219.799	370.09
220.017	319.04
220.234	294.54
220.452	711.12
220.67	888.32
220.887	361.45
221.105	332.74
221.323	314.43
221.54	280.17
221.758	190.02
221.976	141.74
222.193	228.8
222.411	38.93
222.629	-10.04
222.846	5.03
223.064	88.31
223.281	49.14
223.499	39.13
223.716	36.2
223.934	39.32
224.151	38.39
224.369	27.16
224.586	0.28
224.804	46.29
225.021	76.09
225.239	58.69
225.456	3.5
225.674	25.32
225.891	9.78
226.108	6.37
226.326	16.51
226.543	26.63
226.76	31.49
226.978	33.39
227.195	47.58
227.413	38.63
227.63	40.64
227.847	42.12
228.064	39.25
228.282	35.31
228.499	33.33
228.716	26.92
228.934	22.54
229.151	22.77
229.368	18.37
229.585	15.1
229.802	15.86
230.02	15.39
230.237	13.28
230.454	14.56
230.671	17.42
230.888	18.78
231.105	19.9
231.323	23.29
231.54	26.72
231.757	33.91
231.974	37.81
232.191	37.24
232.408	39.46
232.625	44.52
232.842	46.31
233.059	41.46
233.276	34.62
233.493	37.99
233.71	36.12
233.927	38.07
234.144	38.35
234.361	35.52
234.578	38.85
234.795	37.16
235.012	29.59
235.229	26.48
235.446	30.44
235.663	34.09
235.879	33.39
236.096	25.11
236.313	30.67
236.53	30.15
236.747	25.37
236.964	21.37
237.181	13.58
237.397	19.17
237.614	21.48
237.831	29.32
238.048	27.68
238.264	25.58
238.481	34.78
238.698	29.69
238.915	28.26
239.131	32.62
239.348	35.98
239.565	39.87
239.781	36.74
239.998	38.86
240.215	32.51
240.431	33.65
240.648	34.47
240.865	32.11
241.081	26.73
241.298	24.79
241.514	24.77
241.731	23.23
241.947	21.55
242.164	21.19
242.38	20.2
242.597	21.01
242.814	18.58
243.03	16.15
243.246	15.66
243.463	18.99
243.679	21.2
243.896	18.42
244.112	17.89
244.329	20.35
244.545	20.35
244.762	17.7
244.978	19.32
245.194	23
245.411	23.71
245.627	24.92
245.843	23.56
246.06	19.79
246.276	20.21
246.492	18.09
246.709	17.6
246.925	17.3
247.141	17.2
247.357	15.88
247.574	15.1
247.79	14.98
248.006	14.96
248.222	14.12
248.439	15.63
248.655	15.85
248.871	16.82
249.087	16.3
249.303	16.75
249.519	16.46
249.736	16.5
249.952	16.11
250.168	17.47
250.384	14.66
250.6	15.61
250.816	14.35
251.032	15.73
251.248	16.27
251.464	15.02
251.68	17.55
251.896	19.05
252.112	19.17
252.328	18.95
252.544	17.94
252.76	18.02
252.976	19.31
253.192	19.65
253.408	18.65
253.624	17.47
253.84	20.46
254.056	18.89
254.272	18.22
254.487	18.54
254.703	16.9
254.919	16.73
255.135	18.78
255.351	15.8
255.567	12.61
255.782	13.97
255.998	13.3
256.214	6.59
256.43	6.41
256.646	10.2
256.861	8.64
257.077	11.96
257.293	10.58
257.508	10.85
257.724	11.25
257.94	11.35
258.155	8.38
258.371	9.93
258.587	12.46
258.802	12.57
259.018	10.32
259.234	10.8
259.449	9.85
259.665	11.71
259.88	12.1
260.096	12.13
260.312	12.31
260.527	13.26
260.743	13.65
260.958	13.52
261.174	12.68
261.389	12.89
261.605	12.95
261.82	14.33
262.036	13
262.251	12.63
262.466	11.65
262.682	11.61
262.897	11
263.113	10.26
263.328	10.62
263.543	12.05
263.759	11.59
263.974	12.57
264.189	11.61
264.405	12.23
264.62	13.31
264.835	12.87
265.051	11.86
265.266	13.17
265.481	13.26
265.696	13.02
265.912	13.71
266.127	14.11
266.342	13.31
266.557	14.32
266.773	15.35
266.988	14.69
267.203	15.39
267.418	17.3
267.633	16.96
267.848	16.38
268.064	15.99
268.279	16.15
268.494	17.45
268.709	17.25
268.924	16.04
269.139	15.11
269.354	14.19
269.569	15.08
269.784	13.72
269.999	10.67
270.214	10.46
270.429	8.71
270.644	8.89
270.859	7.33
271.074	8.08
271.289	9.53
271.504	8.74
271.719	8.86
271.934	7.49
272.149	8.11
272.363	9.63
272.578	10.18
272.793	11.86
273.008	11.52
273.223	12.98
273.438	14.13
273.653	13.95
273.867	12.95
274.082	14.27
274.297	16.51
274.512	16.53
274.726	17.86
274.941	16.68
275.156	15.06
275.371	13.97
275.585	12.99
275.8	11.42
276.015	11.58
276.229	14.43
276.444	12.08
276.659	11.06
276.873	10.36
277.088	8.69
277.302	10.34
277.517	11.44
277.732	12.82
277.946	13.69
278.161	11.97
278.375	12.08
278.59	9
278.804	11.13
279.019	9.38
279.233	10.27
279.448	10.57
279.662	9.05
279.877	8.52
280.091	7.27
280.306	6.61
280.52	6.96
280.735	7.77
280.949	8.48
281.163	7.92
281.378	9.95
281.592	10.53
281.806	9.6
282.021	10.39
282.235	10.07
282.449	10.13
282.664	10.75
282.878	11.65
283.092	10.59
283.307	11.12
283.521	11.85
283.735	11.99
283.949	11.19
284.164	11.6
284.378	10.07
284.592	10.97
284.806	12.33
285.02	12.18
285.234	12.02
285.449	13.73
285.663	14.82
285.877	13.25
286.091	13.17
286.305	12.74
286.519	14.17
286.733	16.07
286.947	15.4
287.161	15.41
287.375	14.81
287.589	16.49
287.803	15.72
288.017	14.45
288.231	14.47
288.445	14.12
288.659	15.4
288.873	14.14
289.087	14.06
289.301	16.02
289.515	15.34
289.729	15.78
289.943	13.55
290.157	14.44
290.371	14.79
290.584	15.91
290.798	16.22
291.012	15.55
291.226	16.54
291.44	16.34
291.654	14.67
291.867	16
292.081	17.36
292.295	18.04
292.509	16.01
292.722	15.64
292.936	17.28
293.15	17
293.364	17.22
293.577	16.06
293.791	16.32
294.005	17.53
294.218	15.86
294.432	14.51
294.645	15.11
294.859	17.57
295.073	19.07
295.286	17.3
295.5	17.24
295.713	17.59
295.927	17.56
296.14	17.29
296.354	17.21
296.568	16.66
296.781	17.34
296.994	16.95
297.208	15.62
297.421	14.89
297.635	14.73
297.848	15.47
298.062	15.38
298.275	16.29
298.489	16.14
298.702	15.67
298.915	16.21
299.129	15.2
299.342	16.77
299.555	16.83
299.769	17.97
299.982	17.83
300.195	18.94
300.409	18.26
300.622	16.56
300.835	15.45
301.048	14.22
301.262	14.05
301.475	13.94
301.688	13.27
301.901	11.31
302.115	9.45
302.328	10.05
302.541	8.53
302.754	8.35
302.967	9.34
303.18	9.87
303.393	11.36
303.607	10.59
303.82	12.29
304.033	10.88
304.246	14.46
304.459	15.17
304.672	16.13
304.885	17.29
305.098	17.52
305.311	16.73
305.524	17.14
305.737	17.25
305.95	19.05
306.163	19
306.376	19.53
306.589	17.7
306.802	18.44
307.015	16.42
307.228	13.7
307.44	13.5
307.653	14.66
307.866	13.02
308.079	12.44
308.292	11.79
308.505	8.2
308.718	9.84
308.93	8.97
309.143	9.57
309.356	11.13
309.569	12.05
309.781	12.3
309.994	12.95
310.207	14.12
310.42	14.35
310.632	14.85
310.845	16.23
311.058	15.77
311.27	16.13
311.483	15.46
311.696	15.35
311.908	15.42
312.121	16.26
312.333	16.05
312.546	15.13
312.759	16.74
312.971	15.38
313.184	15.45
313.396	14.71
313.609	14.65
313.821	15.07
314.034	15.01
314.246	14.46
314.459	12.57
314.671	12.15
314.884	13.58
315.096	12.01
315.309	14.41
315.521	15.75
315.733	14.12
315.946	15.02
316.158	14.48
316.371	16.25
316.583	15.49
316.795	16.96
317.008	17.18
317.22	16.31
317.432	16.56
317.644	16.63
317.857	17.33
318.069	18.42
318.281	18.16
318.494	19.07
318.706	16.64
318.918	18.15
319.13	17.12
319.342	17.35
319.555	18.64
319.767	17.48
319.979	13.6
320.191	10.54
320.403	10.23
320.615	11.02
320.827	9.39
321.039	9.44
321.252	9.13
321.464	10.22
321.676	9.04
321.888	8.52
322.1	11.06
322.312	12.47
322.524	13.98
322.736	15.22
322.948	15.44
323.16	17.02
323.372	15.79
323.584	14.94
323.796	15.83
324.007	17.15
324.219	17.4
324.431	15.72
324.643	15.88
324.855	16.2
325.067	17.36
325.279	17.12
325.491	17.21
325.702	18.22
325.914	19.46
326.126	18.06
326.338	16.64
326.55	16.52
326.761	15.76
326.973	15.49
327.185	14.71
327.396	13.69
327.608	12.32
327.82	11.66
328.032	11.33
328.243	10.14
328.455	8.66
328.666	8.73
328.878	8.79
329.09	9.95
329.301	10.39
329.513	10.87
329.725	9.57
329.936	11.04
330.148	11.86
330.359	11.77
330.571	12.32
330.782	14.19
330.994	13.82
331.205	13.91
331.417	13.9
331.628	14.08
331.84	14.26
332.051	16.38
332.262	15.33
332.474	12.89
332.685	12.91
332.897	13.28
333.108	13.78
333.319	15.4
333.531	16.6
333.742	17.31
333.953	17.28
334.165	15.55
334.376	14.36
334.587	15.04
334.799	15.93
335.01	16.1
335.221	16.56
335.432	16.89
335.644	17.88
335.855	16.49
336.066	16.57
336.277	17
336.488	18.8
336.7	19.55
336.911	20
337.122	21.46
337.333	21.26
337.544	19.9
337.755	20.16
337.966	18.59
338.177	19.16
338.388	18.82
338.599	18.63
338.811	17.59
339.022	17.05
339.233	16.38
339.444	14.25
339.655	13.33
339.866	12.89
340.076	11.44
340.287	11.46
340.498	11.32
340.709	10.55
340.92	10.87
341.131	12.45
341.342	12.38
341.553	11.42
341.764	11.38
341.975	13.4
342.185	13.93
342.396	15.47
342.607	16.55
342.818	16.24
343.029	15.2
343.239	15.4
343.45	14.56
343.661	14.73
343.872	15.29
344.082	17.02
344.293	17.58
344.504	18.12
344.714	16.75
344.925	15.5
345.136	16.57
345.346	18.5
345.557	17.65
345.768	17.91
345.978	17.65
346.189	18.71
346.399	18.52
346.61	18.09
346.821	17.44
347.031	16.88
347.242	16.67
347.452	15.64
347.663	15.77
347.873	16.19
348.084	15.97
348.294	16.98
348.504	16.3
348.715	15.71
348.925	14.68
349.136	15.56
349.346	16.78
349.557	16.01
349.767	14.78
349.977	15.51
350.188	15.65
350.398	15.56
350.608	14.73
350.819	13.72
351.029	14.37
351.239	14.18
351.449	13.45
351.66	12.99
351.87	13.45
352.08	14.56
352.29	12.99
352.501	13.47
352.711	14.54
352.921	13
353.131	14.22
353.341	13.2
353.552	13.3
353.762	14.4
353.972	14.43
354.182	15.76
354.392	14.88
354.602	15.5
354.812	14.52
355.022	13.22
355.232	13.54
355.442	13.75
355.652	13.57
355.862	14.2
356.072	13.52
356.282	13.67
356.492	12.88
356.702	13.16
356.912	13.6
357.122	12.76
357.332	13.83
357.542	13.64
357.752	13.8
357.962	13.93
358.171	13.38
358.381	12.72
358.591	12.94
358.801	13.57
359.011	13.95
359.221	12.71
359.43	13.05
359.64	12.86
359.85	13.62
360.06	12.67
360.269	13.58
360.479	13.98
360.689	14.52
360.899	15.02
361.108	13.94
361.318	13.71
361.528	14.53
361.737	14.62
361.947	13.86
362.156	14.17
362.366	15.1
362.576	14.38
362.785	14.32
362.995	14.5
363.204	13.41
363.414	13.5
363.623	13
363.833	12.48
364.042	12.69
364.252	13.33
364.461	12.79
364.671	12
364.88	11.9
365.09	12.38
365.299	10.6
365.509	11.58
365.718	12.37
365.927	13.36
366.137	14.2
366.346	13.92
366.555	12.53
366.765	11.46
366.974	10.95
367.183	10.98
367.393	9.85
367.602	11.57
367.811	11.43
368.021	12
368.23	11.67
368.439	11.55
368.648	12.27
368.857	13.83
369.067	14.8
369.276	16.1
369.485	15.49
369.694	16.93
369.903	16.94
370.112	16.8
370.321	15.98
370.531	16.8
370.74	15.55
370.949	15.46
371.158	15.47
371.367	15.47
371.576	14.53
371.785	15.67
371.994	14.26
372.203	13.87
372.412	13.26
372.621	13.3
372.83	12.2
373.039	12.79
373.248	12.8
373.457	11.24
373.666	11.09
373.874	11.27
374.083	10.33
374.292	10.94
374.501	10.76
374.71	10.89
374.919	10.64
375.128	10.91
375.336	10.74
375.545	10.05
375.754	11.12
375.963	10.73
376.171	10.06
376.38	10.23
376.589	9.33
376.798	9.26
377.006	9.82
377.215	9.65
377.424	9.35
377.632	9.1
377.841	9.03
378.05	8.55
378.258	8.98
378.467	9.48
378.675	8.86
378.884	9.46
379.093	9.61
379.301	9.17
379.51	8.96
379.718	9.57
379.927	9.8
380.135	10.25
380.344	10.48
380.552	10.18
380.761	9.47
380.969	9.95
381.177	9.89
381.386	9.97
381.594	9.75
381.803	9.86
382.011	8.89
382.219	8.38
382.428	8.64
382.636	8.49
382.845	8.88
383.053	9.53
383.261	9.37
383.469	8.68
383.678	8.09
383.886	8.95
384.094	9.08
384.302	9.34
384.511	9.25
384.719	8.87
384.927	8.82
385.135	8.5
385.343	8.65
385.552	8.7
385.76	8.9
385.968	9.18
386.176	8.15
386.384	8.01
386.592	7.95
386.8	8.15
387.008	8.38
387.216	8.13
387.424	7.7
387.633	7.61
387.841	7.63
388.049	8.02
388.257	8.18
388.465	8.63
388.672	8.74
388.88	8.87
389.088	8.9
389.296	8.64
389.504	9.07
389.712	9.64
389.92	9.14
390.128	8.95
390.336	8.27
390.544	8.34
390.751	8.02
390.959	8.02
391.167	8.01
391.375	8.01
391.583	8.07
391.79	7.77
391.998	7.78
392.206	7.53
392.414	7.37
392.621	7.79
392.829	7.48
393.037	7.74
393.244	7.86
393.452	7.87
393.66	7.73
393.867	7.61
394.075	7.6
394.283	7.27
394.49	7.53
394.698	8.09
394.905	8.1
395.113	8.06
395.32	7.62
395.528	7.48
395.735	7.35
395.943	7.22
396.15	6.84
396.358	6.56
396.565	6.55
396.773	6.5
396.98	6.29
397.188	5.98
397.395	5.56
397.602	5.58
397.81	5
398.017	5.01
398.225	5.22
398.432	5.34
398.639	5.83
398.847	5.9
399.054	5.95
399.261	5.68
399.468	6.12
399.676	6.92
399.883	6.84
400.09	7.31
400.297	7.29
400.505	7.11
400.712	7.33
400.919	7.2
401.126	7.13
401.333	6.88
401.54	6.79
401.748	6.6
401.955	6.29
402.162	6.48
402.369	6
402.576	5.81
402.783	6.06
402.99	5.8
403.197	5.76
403.404	5.93
403.611	5.93
403.818	6.06
404.025	6.12
404.232	6
404.439	5.79
404.646	6.02
404.853	6.26
405.06	6.06
405.267	6.13
405.474	6.21
405.681	6.19
405.887	6.36
406.094	6.43
406.301	6.36
406.508	6.27
406.715	6.35
406.922	6.68
407.128	6.82
407.335	6.21
407.542	6.26
407.749	5.64
407.955	5.74
408.162	5.65
408.369	5.94
408.575	6.06
408.782	6.31
408.989	6.28
409.195	6.3
409.402	5.73
409.609	6.43
409.815	6.67
410.022	7.4
410.228	7.36
410.435	7.54
410.642	7.21
410.848	7.06
411.055	7.08
411.261	7.19
411.468	6.76
411.674	7.21
411.881	6.95
412.087	6.81
412.294	6.42
412.5	6.01
412.706	6
412.913	5.95
413.119	5.85
413.326	5.5
413.532	5.49
413.738	5.95
413.945	5.93
414.151	6.03
414.357	5.82
414.564	5.94
414.77	5.83
414.976	6.06
415.182	6.18
415.389	5.95
415.595	6.28
415.801	6.35
416.007	5.94
416.214	5.94
416.42	6
416.626	6.31
416.832	6.3
417.038	6.46
417.244	6.63
417.45	6.5
417.657	6.95
417.863	6.63
418.069	6.41
418.275	6.37
418.481	6.41
418.687	6.64
418.893	6.51
419.099	6.67
419.305	6.86
419.511	6.53
419.717	6.56
419.923	6.56
420.129	6.74
420.335	6.98
420.541	7.16
420.746	7.19
420.952	6.87
421.158	6.74
421.364	6.49
421.57	6.36
421.776	6.36
421.982	6.43
422.187	6.31
422.393	6.2
422.599	6.12
422.805	6.14
423.01	5.99
423.216	6.05
423.422	6.11
423.628	6.17
423.833	6.17
424.039	6.06
424.245	6.09
424.45	6.1
424.656	6.13
424.862	6.04
425.067	5.82
425.273	5.98
425.478	5.91
425.684	5.83
425.889	5.96
426.095	5.95
426.301	6.13
426.506	5.79
426.712	5.61
426.917	5.81
427.123	5.62
427.328	5.73
427.533	5.61
427.739	5.72
427.944	5.82
428.15	5.52
428.355	5.62
428.561	5.75
428.766	5.9
428.971	6.04
429.177	5.81
429.382	6.15
429.587	6.17
429.793	6.03
429.998	6.27
430.203	6.3
430.408	6.52
430.614	6.64
430.819	6.19
431.024	6.33
431.229	6.11
431.434	6.13
431.64	5.97
431.845	6.42
432.05	6.43
432.255	6.18
432.46	6.19
432.665	6.06
432.87	5.79
433.076	5.81
433.281	5.81
433.486	6.03
433.691	5.97
433.896	6.1
434.101	5.75
434.306	5.69
434.511	5.56
434.716	5.54
434.921	5.67
435.126	5.73
435.331	5.81
435.535	5.92
435.74	5.96
435.945	5.66
436.15	5.7
436.355	5.69
436.56	5.61
436.765	5.86
436.97	5.98
437.174	6.12
437.379	6.08
437.584	6.27
437.789	6.15
437.993	6.17
438.198	6.43
438.403	6.42
438.608	6.45
438.812	6.51
439.017	6.4
439.222	6.3
439.426	6.15
439.631	6.12
439.836	5.96
440.04	5.95
440.245	5.87
440.45	5.84
440.654	5.77
440.859	5.82
441.063	5.89
441.268	5.81
441.472	5.83
441.677	5.66
441.881	5.74
442.086	5.9
442.29	5.86
442.495	5.81
442.699	5.79
442.904	5.76
443.108	5.73
443.312	5.61
443.517	5.72
443.721	5.64
443.925	5.71
444.13	5.67
444.334	5.62
444.538	5.47
444.743	5.55
444.947	5.71
445.151	5.72
445.356	5.64
445.56	5.58
445.764	5.63
445.968	5.79
446.173	5.8
446.377	5.93
446.581	5.93
446.785	5.86
446.989	5.75
447.193	5.72
447.398	5.76
447.602	5.73
447.806	5.83
448.01	5.6
448.214	5.66
448.418	5.62
448.622	5.57
448.826	5.47
449.03	5.6
449.234	5.7
449.438	5.7
449.642	5.47
449.846	5.47
450.05	5.43
450.254	5.66
450.458	5.41
450.662	5.51
450.866	5.41
451.069	5.49
451.273	5.44
451.477	5.54
451.681	5.42
451.885	5.76
452.089	5.91
452.292	5.81
452.496	5.93
452.7	5.94
452.904	5.77
453.107	5.98
453.311	5.81
453.515	5.92
453.719	5.85
453.922	5.68
454.126	5.63
454.33	5.46
454.533	5.72
454.737	5.7
454.94	5.54
455.144	5.85
455.348	5.65
455.551	5.9
455.755	5.7
455.958	5.54
456.162	5.74
456.365	5.63
456.569	5.84
456.772	5.8
456.976	5.81
457.179	5.96
457.383	5.69
457.586	5.63
457.79	5.51
457.993	5.59
458.196	5.65
458.4	5.66
458.603	5.59
458.807	5.45
459.01	5.33
459.213	5.2
459.417	5.12
459.62	5.29
459.823	5.3
460.026	5.36
460.23	5.43
460.433	5.47
460.636	5.55
460.839	5.52
461.042	5.6
461.246	5.58
461.449	5.57
461.652	5.68
461.855	5.54
462.058	5.64
462.261	5.74
462.464	5.73
462.668	5.68
462.871	5.57
463.074	5.52
463.277	5.4
463.48	5.36
463.683	5.53
463.886	5.48
464.089	5.56
464.292	5.22
464.495	5.17
464.698	5.2
464.901	5.25
465.104	5.16
465.306	5.03
465.509	4.94
465.712	5.05
465.915	4.95
466.118	5.01
466.321	5.02
466.524	5.23
466.726	5.02
466.929	5.01
467.132	4.99
467.335	4.96
467.538	5.27
467.74	5.5
467.943	5.44
468.146	5.42
468.348	5.42
468.551	5.53
468.754	5.59
468.956	5.77
469.159	5.88
469.362	5.96
469.564	5.84
469.767	5.64
469.969	5.66
470.172	5.91
470.375	5.79
470.577	5.77
470.78	5.7
470.982	5.63
471.185	5.45
471.387	5.23
471.59	5.21
471.792	5.46
471.995	5.69
472.197	5.58
472.399	5.35
472.602	5.55
472.804	5.64
473.007	5.48
473.209	5.51
473.411	5.62
473.614	5.67
473.816	5.63
474.018	5.48
474.22	5.31
474.423	5.37
474.625	5.44
474.827	5.47
475.03	5.45
475.232	5.67
475.434	5.49
475.636	5.54
475.838	5.65
476.04	5.73
476.243	5.65
476.445	5.73
476.647	5.63
476.849	5.56
477.051	5.5
477.253	5.34
477.455	5.18
477.657	5.27
477.859	5.2
478.061	5.28
478.263	5.23
478.465	5.51
478.667	5.44
478.869	5.48
479.071	5.66
479.273	5.84
479.475	6.02
479.677	5.94
479.879	5.96
480.081	5.91
480.283	5.74
480.485	5.79
480.686	5.67
480.888	5.78
481.09	5.82
481.292	5.58
481.494	5.45
481.695	5.43
481.897	5.58
482.099	5.66
482.301	5.65
482.502	5.59
482.704	5.56
482.906	5.58
483.107	5.6
483.309	5.51
483.511	5.51
483.712	5.41
483.914	5.35
484.115	5.3
484.317	5.23
484.519	5.23
484.72	5.2
484.922	5.17
485.123	5.12
485.325	5.03
485.526	4.99
485.728	5.08
485.929	5.07
486.131	5.04
486.332	5.13
486.534	5.19
486.735	5.2
486.936	5.33
487.138	5.37
487.339	5.42
487.541	5.44
487.742	5.46
487.943	5.31
488.144	5.42
488.346	5.5
488.547	5.46
488.748	5.44
488.95	5.52
489.151	5.44
489.352	5.45
489.553	5.41
489.755	5.42
489.956	5.46
490.157	5.57
490.358	5.54
490.559	5.53
490.76	5.47
490.961	5.44
491.163	5.34
491.364	5.33
491.565	5.2
491.766	5.22
491.967	5.27
492.168	5.23
492.369	5.24
492.57	5.26
492.771	5.23
492.972	5.22
493.173	5.14
493.374	5.18
493.575	5.16
493.776	5.33
493.976	5.31
494.177	5.16
494.378	5.25
494.579	5.08
494.78	4.94
494.981	4.89
495.182	5.06
495.382	5.16
495.583	5.1
495.784	5.13
495.985	4.96
496.185	4.9
496.386	5.14
496.587	5.13
496.788	5.31
496.988	5.47
497.189	5.54
497.39	5.48
497.59	5.69
497.791	5.53
497.992	5.56
498.192	5.63
498.393	5.66
498.593	5.49
498.794	5.59
498.994	5.56
499.195	5.52
499.395	5.66
499.596	5.61
499.796	5.4
499.997	5.63
500.197	5.63
500.398	5.67
500.598	5.73
500.799	5.64
500.999	5.4
501.199	5.53
501.4	5.45
501.6	5.15
501.801	5.18
502.001	5.29
502.201	5.16
502.402	5.18
502.602	5.2
502.802	5.3
503.002	5.57
503.203	5.69
503.403	5.54
503.603	5.73
503.803	5.88
504.003	5.88
504.204	5.93
504.404	5.91
504.604	5.82
504.804	5.82
505.004	5.78
505.204	5.82
505.404	5.8
505.604	5.75
505.804	5.6
506.005	5.71
506.205	5.76
506.405	5.49
506.605	5.53
506.805	5.61
507.005	5.55
507.204	5.51
507.404	5.41
507.604	5.3
507.804	5.47
508.004	5.81
508.204	5.83
508.404	5.78
508.604	5.93
508.804	5.92
509.003	6.05
509.203	6.09
509.403	6.19
509.603	6.15
509.803	6.23
510.002	6.39
510.202	6.08
510.402	5.95
510.602	5.94
510.801	6
511.001	6.16
511.201	6.09
511.4	6.13
511.6	6.11
511.8	6.24
511.999	6.22
512.199	5.88
512.398	5.86
512.598	5.89
512.797	5.86
512.997	5.73
513.197	5.67
513.396	5.72
513.596	5.65
513.795	5.54
513.994	5.54
514.194	5.51
514.393	5.64
514.593	5.75
514.792	5.77
514.992	5.76
515.191	5.88
515.39	5.96
515.59	5.89
515.789	5.98
515.988	6.05
516.188	6.05
516.387	6.19
516.586	6.27
516.786	6.31
516.985	6.31
517.184	6.42
517.383	6.38
517.582	6.34
517.782	6.29
517.981	6.2
518.18	6.36
518.379	6.37
518.578	6.23
518.777	6.22
518.976	6.24
519.176	6.2
519.375	6.18
519.574	6.26
519.773	6.23
519.972	6.23
520.171	6.34
520.37	6.24
520.569	6.17
520.768	6.31
520.967	6.25
521.166	6.09
521.365	6.18
521.564	6.19
521.762	6.15
521.961	6.09
522.16	6.36
522.359	6.33
522.558	6.34
522.757	6.43
522.956	6.39
523.154	6.52
523.353	6.69
523.552	6.66
523.751	6.72
523.949	6.69
524.148	6.75
524.347	6.44
524.546	6.64
524.744	6.47
524.943	6.41
525.142	6.35
525.34	6.32
525.539	6.31
525.737	6.3
525.936	6.27
526.135	6.31
526.333	6.23
526.532	6.34
526.73	6.16
526.929	6.43
527.127	6.41
527.326	6.52
527.524	6.58
527.723	6.63
527.921	6.73
528.12	6.7
528.318	6.73
528.516	6.77
528.715	6.78
528.913	6.81
529.112	6.74
529.31	6.81
529.508	6.76
529.707	6.72
529.905	6.71
530.103	6.67
530.301	6.79
530.5	6.8
530.698	6.79
530.896	6.87
531.094	6.99
531.293	7.01
531.491	6.99
531.689	7.14
531.887	7.13
532.085	7.22
532.283	7.3
532.481	7.29
532.68	7.33
532.878	7.41
533.076	7.26
533.274	7.21
533.472	7.21
533.67	7.31
533.868	7.26
534.066	7.33
534.264	7.26
534.462	7.27
534.66	7.27
534.858	7.37
535.056	7.37
535.253	7.52
535.451	7.45
535.649	7.55
535.847	7.54
536.045	7.58
536.243	7.77
536.441	7.8
536.638	7.76
536.836	7.69
537.034	7.6
537.232	7.66
537.43	7.68
537.627	7.77
537.825	7.69
538.023	7.59
538.22	7.56
538.418	7.64
538.616	7.55
538.813	7.55
539.011	7.69
539.209	7.72
539.406	7.75
539.604	7.82
539.801	7.98
539.999	8.06
540.196	8.22
540.394	8.41
540.591	8.35
540.789	8.47
540.986	8.55
541.184	8.65
541.381	8.59
541.579	8.65
541.776	8.63
541.974	8.67
542.171	8.75
542.368	8.78
542.566	8.77
542.763	8.72
542.96	8.72
543.158	8.73
543.355	8.69
543.552	8.87
543.75	8.86
543.947	8.93
544.144	8.84
544.341	8.89
544.539	8.93
544.736	8.89
544.933	8.93
545.13	9.11
545.327	9.2
545.524	9.27
545.722	9.32
545.919	9.47
546.116	9.68
546.313	9.82
546.51	9.82
546.707	9.81
546.904	9.92
547.101	10.1
547.298	10.16
547.495	10.19
547.692	10.17
547.889	9.96
548.086	9.85
548.283	9.89
548.48	10.04
548.677	10.09
548.874	10.35
549.07	10.59
549.267	10.46
549.464	10.38
549.661	10.62
549.858	10.77
550.055	11.13
550.251	11.22
550.448	11.12
550.645	11.15
550.842	11.21
551.038	11.22
551.235	11.25
551.432	11.3
551.628	11.4
551.825	11.35
552.022	11.31
552.218	11.27
552.415	11.32
552.612	11.23
552.808	10.96
553.005	11.2
553.201	11.09
553.398	11.22
553.594	11.46
553.791	11.56
553.987	11.6
554.184	11.69
554.38	11.88
554.577	12.08
554.773	12.21
554.97	12.64
555.166	12.59
555.362	12.5
555.559	12.24
555.755	12.44
555.952	12.39
556.148	12.28
556.344	12.45
556.541	12.44
556.737	12.6
556.933	12.95
557.129	12.91
557.326	13
557.522	13.28
557.718	13.46
557.914	13.28
558.11	13.3
558.307	13.55
558.503	13.63
558.699	13.59
558.895	13.62
559.091	13.47
559.287	13.4
559.483	13.39
559.679	13.51
559.876	13.63
560.072	13.81
560.268	14.06
560.464	13.95
560.66	13.9
560.856	14.22
561.052	14.33
561.247	14.45
561.443	14.6
561.639	14.77
561.835	14.86
562.031	14.97
562.227	14.99
562.423	15.05
562.619	15.22
562.815	15.5
563.01	15.36
563.206	15.35
563.402	15.25
563.598	15.55
563.793	15.64
563.989	15.74
564.185	15.75
564.381	15.66
564.576	15.47
564.772	15.43
564.968	15.51
565.163	15.45
565.359	15.62
565.555	15.83
565.75	15.91
565.946	15.89
566.141	15.99
566.337	16.12
566.532	16.2
566.728	16.37
566.923	16.47
567.119	16.38
567.314	16.54
567.51	16.48
567.705	16.56
567.901	16.46
568.096	16.65
568.292	16.78
568.487	16.76
568.682	16.9
568.878	17.19
569.073	17.58
569.268	17.78
569.464	17.91
569.659	18.2
569.854	18.32
570.05	18.46
570.245	18.38
570.44	18.3
570.635	18.4
570.831	18.62
571.026	18.75
571.221	18.65
571.416	18.67
571.611	18.85
571.806	18.68
572.002	18.71
572.197	18.71
572.392	18.8
572.587	19.01
572.782	19.1
572.977	19.12
573.172	19.1
573.367	19.19
573.562	19.29
573.757	19.34
573.952	19.38
574.147	19.37
574.342	19.72
574.537	19.99
574.732	19.9
574.927	19.97
575.121	19.97
575.316	20.07
575.511	20.03
575.706	20.12
575.901	20.13
576.096	20.23
576.29	20.17
576.485	19.96
576.68	19.84
576.875	19.94
577.069	20.06
577.264	20.03
577.459	19.97
577.654	20.11
577.848	20.05
578.043	20.07
578.238	20.37
578.432	20.81
578.627	20.83
578.821	20.91
579.016	21.15
579.21	21.06
579.405	21.11
579.6	21.17
579.794	21.33
579.989	21.32
580.183	21.49
580.378	21.35
580.572	21.26
580.766	21.33
580.961	21.38
581.155	21.29
581.35	21.53
581.544	21.76
581.738	21.86
581.933	21.79
582.127	21.83
582.321	21.77
582.516	21.62
582.71	21.76
582.904	21.9
583.099	21.98
583.293	21.85
583.487	21.9
583.681	21.77
583.875	21.74
584.07	21.66
584.264	22.04
584.458	22.07
584.652	22.31
584.846	22.38
585.04	22.34
585.234	22.36
585.428	22.54
585.623	22.52
585.817	22.84
586.011	22.68
586.205	22.94
586.399	22.95
586.593	22.88
586.787	23.09
586.981	23.12
587.174	23.18
587.368	23.11
587.562	23.04
587.756	23.05
587.95	22.83
588.144	23.22
588.338	22.86
588.532	22.84
588.725	22.95
588.919	22.75
589.113	22.56
589.307	22.67
589.501	22.82
589.694	22.85
589.888	23
590.082	23.19
590.275	23.06
590.469	23.35
590.663	23.35
590.856	23.5
591.05	23.76
591.244	23.78
591.437	23.79
591.631	23.72
591.824	23.69
592.018	23.61
592.212	23.51
592.405	23.74
592.599	23.91
592.792	24.05
592.986	24.1
593.179	23.99
593.372	24.16
593.566	24.05
593.759	24.02
593.953	23.98
594.146	23.89
594.339	24.11
594.533	23.82
594.726	24.01
594.92	23.88
595.113	23.75
595.306	23.77
595.499	23.75
595.693	23.94
595.886	24.19
596.079	24.47
596.272	24.48
596.466	24.44
596.659	24.54
596.852	24.34
597.045	24.6
597.238	24.72
597.431	24.79
597.624	24.78
597.818	24.74
598.011	24.5
598.204	24.3
598.397	24.43
598.59	24.49
598.783	24.65
598.976	24.71
599.169	24.41
599.362	24.4
599.555	24.49
599.748	24.47
599.941	24.36
600.134	24.33
600.326	24.78
600.519	25.08
600.712	24.82
600.905	24.43
601.098	24.23
601.291	24.22
601.483	24.14
601.676	24.34
601.869	24.47
602.062	24.52
602.255	24.7
602.447	24.55
602.64	24.57
602.833	24.94
603.025	25.18
603.218	25.65
603.411	25.64
603.603	25.65
603.796	25.68
603.989	25.64
604.181	25.82
604.374	25.76
604.566	25.79
604.759	25.61
604.951	25.66
605.144	25.64
605.336	25.56
605.529	25.45
605.721	25.53
605.914	25.47
606.106	25.55
606.299	25.55
606.491	25.82
606.683	25.86
606.876	25.88
607.068	25.6
607.26	25.79
607.453	25.74
607.645	26.06
607.837	26.13
608.03	25.81
608.222	25.63
608.414	25.3
608.606	25.22
608.799	25.08
608.991	25.31
609.183	25.18
609.375	25.06
609.567	24.79
609.759	24.8
609.952	24.66
610.144	24.68
610.336	24.51
610.528	24.65
610.72	24.59
610.912	24.45
611.104	24.2
611.296	24.34
611.488	24.31
611.68	24.62
611.872	24.51
612.064	24.53
612.256	24.52
612.448	25.21
612.64	25.31
612.832	25.1
613.023	25.89
613.215	25.56
613.407	25.54
613.599	25.51
613.791	25.01
613.983	25.16
614.174	25.51
614.366	25.53
614.558	25.06
614.75	25.2
614.941	25.49
615.133	24.89
615.325	25.42
615.516	25.47
615.708	25.77
615.9	26.06
616.091	26.11
616.283	26.1
616.475	26.14
616.666	26.44
616.858	26.46
617.049	26.48
617.241	26.29
617.432	26.15
617.624	26.28
617.815	25.94
618.007	25.97
618.198	25.93
618.39	25.88
618.581	26.19
618.773	26.2
618.964	26.1
619.155	25.99
619.347	26.26
619.538	26.28
619.729	26.21
619.921	26.39
620.112	26.66
620.303	26.54
620.494	26.54
620.686	26.2
620.877	26.05
621.068	26.04
621.259	26.18
621.451	26.22
621.642	26.26
621.833	26.2
622.024	26.4
622.215	26.44
622.406	26.53
622.597	26.41
622.788	26.59
622.98	26.74
623.171	26.92
623.362	26.95
623.553	26.98
623.744	27.26
623.935	27.41
624.126	27.09
624.317	26.81
624.508	26.91
624.698	27.09
624.889	27.18
625.08	26.94
625.271	27
625.462	26.76
625.653	26.57
625.844	26.19
626.034	26.18
626.225	26.42
626.416	26.35
626.607	26.57
626.798	26.34
626.988	26.17
627.179	26.34
627.37	26.2
627.56	26.6
627.751	26.89
627.942	27.24
628.132	27.3
628.323	27.22
628.514	27.49
628.704	27.25
628.895	27.17
629.085	27.2
629.276	27.38
629.466	27.29
629.657	27.08
629.847	27.03
630.038	26.78
630.228	26.66
630.419	26.71
630.609	26.75
630.8	26.59
630.99	26.65
631.181	26.8
631.371	26.4
631.561	26.45
631.752	26.63
631.942	26.41
632.132	26.38
632.323	26.6
632.513	26.71
632.703	26.39
632.893	26.52
633.084	27.01
633.274	27.19
633.464	27.42
633.654	27.71
633.844	27.64
634.034	27.61
634.225	27.63
634.415	27.55
634.605	27.63
634.795	27.9
634.985	28.06
635.175	27.91
635.365	27.81
635.555	27.78
635.745	27.5
635.935	27.49
636.125	27.59
636.315	27.83
636.505	27.96
636.695	27.92
636.885	27.83
637.075	27.97
637.265	28.2
637.455	28.5
637.644	28.1
637.834	28.26
638.024	28.23
638.214	28.42
638.404	28.1
638.593	27.96
638.783	27.8
638.973	27.92
639.163	27.81
639.352	27.17
639.542	26.41
639.732	26.65
639.921	26.48
640.111	26.44
640.301	26.46
640.49	26.64
640.68	26.71
640.87	26.66
641.059	26.71
641.249	26.53
641.438	26.69
641.628	27.6
641.817	27.84
642.007	28.2
642.196	28.3
642.386	28.89
642.575	28.95
642.764	29.11
642.954	29.08
643.143	28.94
643.333	29.35
643.522	29.89
643.711	29.02
643.901	29.37
644.09	29.15
644.279	29.33
644.469	28.52
644.658	28.59
644.847	28.55
645.036	28.82
645.226	28.83
645.415	28.37
645.604	28.08
645.793	28.6
645.982	28.04
646.171	28.31
646.361	28.45
646.55	29.1
646.739	29.09
646.928	28.78
647.117	28.82
647.306	28.85
647.495	28.99
647.684	28.83
647.873	28.67
648.062	29.13
648.251	28.93
648.44	28.68
648.629	27.92
648.818	28.22
649.007	28.94
649.196	28.65
649.384	28.52
649.573	28.1
649.762	28.09
649.951	28.14
650.14	28.15
650.328	28.02
650.517	28.06
650.706	28.36
650.895	28.09
651.083	27.66
651.272	27.86
651.461	28.05
651.65	28.5
651.838	28.57
652.027	28.35
652.216	28.15
652.404	28.26
652.593	28.54
652.781	28.62
652.97	28.6
653.158	28.46
653.347	28.52
653.535	28.78
653.724	28.91
653.912	28.92
654.101	29.32
654.289	29.1
654.478	29.22
654.666	28.55
654.855	28.63
655.043	28.5
655.231	28.22
655.42	28.74
655.608	28.86
655.796	28.42
655.985	28.26
656.173	28.57
656.361	28.87
656.55	28.56
656.738	28.76
656.926	28.55
657.114	28.58
657.302	28.8
657.491	28.42
657.679	27.74
657.867	27.64
658.055	27.5
658.243	27
658.431	26.85
658.619	26.87
658.807	26.98
658.996	27.03
659.184	27.22
659.372	27.56
659.56	27.54
659.748	28.16
659.936	28.65
660.124	28.89
660.311	28.86
660.499	28.91
660.687	29.09
660.875	29.12
661.063	29.25
661.251	29.22
661.439	29.04
661.627	28.82
661.814	28.2
662.002	28.02
662.19	28.4
662.378	28.65
662.565	28.79
662.753	28.87
662.941	28.71
663.129	28.34
663.316	27.98
663.504	28.2
663.692	28.52
663.879	29.04
664.067	28.79
664.254	27.86
664.442	27.98
664.63	28.39
664.817	28.44
665.005	28.77
665.192	29.41
665.38	29.54
665.567	29.51
665.755	28.74
665.942	28.64
666.13	28.81
666.317	28.98
666.504	28.57
666.692	28.01
666.879	27.61
667.067	27.42
667.254	26.89
667.441	27.44
667.629	27.24
667.816	28.15
668.003	27.8
668.19	27.93
668.378	28.49
668.565	28.41
668.752	28.75
668.939	28.74
669.127	29.14
669.314	29.42
669.501	29.33
669.688	29.26
669.875	29.24
670.062	29.09
670.249	28.69
670.436	28.84
670.623	29.8
670.81	29.58
670.997	29.84
671.184	29.76
671.371	29.7
671.558	29.4
671.745	29.28
671.932	29.15
672.119	29.7
672.306	29.94
672.493	30.25
672.68	29.99
672.867	30.47
673.054	31.04
673.24	30.82
673.427	31.18
673.614	31.32
673.801	31.32
673.988	31.6
674.174	31.6
674.361	31.59
674.548	30.85
674.734	30.89
674.921	30.62
675.108	29.94
675.294	29.86
675.481	29.7
675.668	30.11
675.854	29.89
676.041	29.66
676.227	29.36
676.414	29.31
676.601	29.54
676.787	29
676.974	28.96
677.16	29.06
677.347	29.25
677.533	28.97
677.719	28.46
677.906	28.84
678.092	29.08
678.279	29.03
678.465	29.27
678.651	29.6
678.838	30.18
679.024	29.88
679.21	30.09
679.397	29.96
679.583	30.23
679.769	30.4
679.955	30.83
680.142	30.36
680.328	30.69
680.514	30.9
680.7	30.63
680.886	30.49
681.073	30.79
681.259	30.64
681.445	30.82
681.631	30.48
681.817	30.44
682.003	30.46
682.189	30.82
682.375	30.5
682.561	30.34
682.747	30.17
682.933	30.45
683.119	30.34
683.305	30.81
683.491	31.22
683.677	31.57
683.863	31.78
684.049	31.27
684.235	31.51
684.42	32.09
684.606	31.53
684.792	32.12
684.978	31.54
685.164	31.81
685.349	30.99
685.535	30.15
685.721	30.38
685.907	30.01
686.092	30.66
686.278	30.51
686.464	29.72
686.649	30.34
686.835	30.26
687.021	30.27
687.206	29.71
687.392	30.05
687.577	30.4
687.763	30.24
687.948	30.18
688.134	29.6
688.319	30.13
688.505	30.81
688.69	31.05
688.876	30.62
689.061	30.89
689.247	31.18
689.432	31.33
689.618	31.79
689.803	32.4
689.988	32.89
690.174	33.25
690.359	32.38
690.544	32.05
690.73	31.79
690.915	32.12
691.1	32.38
691.285	32.75
691.471	32.58
691.656	32.61
691.841	31.61
692.026	31.64
692.211	31.44
692.396	31.67
692.582	32.17
692.767	32.42
692.952	32.05
693.137	31.8
693.322	32.19
693.507	32.98
693.692	32.09
693.877	32.68
694.062	32.74
694.247	32.82
694.432	32.92
694.617	32.5
694.802	32.04
694.987	32.47
695.172	31.96
695.357	30.86
695.541	30.11
695.726	30.55
695.911	30.33
696.096	30.11
696.281	30.35
696.466	30
696.65	30.64
696.835	31.35
697.02	31.1
697.204	31.47
697.389	31.67
697.574	31.7
697.759	31.86
697.943	31.83
698.128	31.75
698.312	31.23
698.497	31.23
698.682	30.62
698.866	30.55
699.051	30.39
699.235	30.39
699.42	30.44
699.604	30.39
699.789	30.04
699.973	30.2
700.158	30.28
700.342	30.66
700.527	30.43
700.711	30.33
700.895	30.2
701.08	30.44
701.264	30.41
701.448	30.44
701.633	30.64
701.817	30.24
702.001	30.07
702.186	29.63
702.37	29.18
702.554	29.93
702.738	30.67
702.923	30.17
703.107	30.51
703.291	30.14
703.475	30.4
703.659	30.39
703.843	31.6
704.027	31.25
704.212	31.65
704.396	32.74
704.58	33.12
704.764	32.62
704.948	33.04
705.132	32.57
705.316	32.81
705.5	31.65
705.684	31.56
705.868	31.76
706.052	31.72
706.235	32.14
706.419	31
706.603	30.7
706.787	30.94
706.971	29.92
707.155	30.18
707.339	30.42
707.522	30.62
707.706	30.64
707.89	30.68
708.074	31.76
708.257	31.49
708.441	31.6
708.625	31.9
708.808	31.23
708.992	31.87
709.176	31.48
709.359	31.13
709.543	31.91
709.727	32.25
709.91	30.45
710.094	29.79
710.277	29.43
710.461	29.22
710.644	29.12
710.828	29.7
711.011	30.03
711.195	29.79
711.378	30.25
711.562	30.17
711.745	29.03
711.928	30.17
712.112	29.54
712.295	29.21
712.478	29.41
712.662	29.07
712.845	29.24
713.028	28.67
713.212	29.15
713.395	28.1
713.578	28.39
713.761	29.28
713.945	29.76
714.128	31.1
714.311	31.91
714.494	31.53
714.677	32.02
714.86	31.98
715.043	32.14
715.227	31.83
715.41	32.94
715.593	33.24
715.776	33.46
715.959	32.82
716.142	31.82
716.325	31.86
716.508	32.66
716.691	32.68
716.874	32.32
717.057	32.99
717.239	33.26
717.422	33.13
717.605	31.99
717.788	31.99
717.971	32.05
718.154	32.27
718.337	32.27
718.519	32.1
718.702	31.28
718.885	31.84
719.068	30.63
719.25	30.46
719.433	30.37
719.616	31.75
719.798	31.49
719.981	32.35
720.164	32.75
720.346	32.58
720.529	32.48
720.712	33.4
720.894	34.16
721.077	35.82
721.259	36.09
721.442	35.45
721.624	34.53
721.807	34.86
721.989	33.81
722.172	33.8
722.354	32.38
722.537	32.63
722.719	32.55
722.901	32.3
723.084	30.88
723.266	30.53
723.448	31.68
723.631	32.05
723.813	31.43
723.995	32.34
724.178	33.31
724.36	35.08
724.542	35.3
724.724	34.4
724.907	33.75
725.089	34.27
725.271	34.93
725.453	34.41
725.635	34.32
725.817	34.46
725.999	32.74
726.181	31.5
726.364	31.12
726.546	31.58
726.728	31.71
726.91	31.2
727.092	32.23
727.274	32.46
727.456	32.02
727.638	32.47
727.819	33.18
728.001	34.59
728.183	34.83
728.365	34.17
728.547	33.52
728.729	33.6
728.911	33.4
729.093	32.88
729.274	32.61
729.456	33.08
729.638	32.22
729.82	30.92
730.001	31.25
730.183	31.3
730.365	32.33
730.546	32.25
730.728	32.85
730.91	33.24
731.091	33.21
731.273	32.27
731.455	31.43
731.636	32.25
731.818	32.69
731.999	31.56
732.181	31.14
732.362	31.54
732.544	31.52
732.725	30.37
732.907	29.74
733.088	29.4
733.27	30.52
733.451	31.31
733.633	31.74
733.814	32.6
733.995	33.61
734.177	34.12
734.358	33.22
734.539	33.54
734.721	34.01
734.902	34.89
735.083	34.02
735.264	33.73
735.446	34.57
735.627	33.71
735.808	32.78
735.989	31.83
736.17	31.74
736.351	32.22
736.533	31.97
736.714	32.38
736.895	32.2
737.076	33.84
737.257	33.75
737.438	32
737.619	33.11
737.8	32.88
737.981	33.12
738.162	33.57
738.343	34.04
738.524	33.36
738.705	33.67
738.886	33.62
739.067	32.96
739.247	32.83
739.428	34.12
739.609	33.73
739.79	34.67
739.971	35.38
740.151	34.75
740.332	34.56
740.513	36.3
740.694	35.75
740.874	36.53
741.055	37.54
741.236	36.61
741.417	36.31
741.597	36.02
741.778	35.49
741.958	35.37
742.139	35.63
742.32	35.11
742.5	35.13
742.681	35.91
742.861	35.76
743.042	35.42
743.222	36.78
743.403	36.66
743.583	35.67
743.764	36.71
743.944	37.17
744.124	37.56
744.305	36.71
744.485	35.4
744.666	34.62
744.846	33.24
745.026	33.85
745.207	35.2
745.387	35.3
745.567	35.83
745.747	35.89
745.928	36.26
746.108	35.82
746.288	37.14
746.468	36.62
746.648	37.75
746.829	38.95
747.009	38.2
747.189	37.13
747.369	37.9
747.549	38.07
747.729	37.32
747.909	35.85
748.089	35.49
748.269	33.22
748.449	34.8
748.629	32.73
748.809	31.57
748.989	29.56
749.169	29.8
749.349	30.29
749.529	31.23
749.709	31.05
749.889	30.51
750.068	31.67
750.248	33.59
750.428	32.91
750.608	34.32
750.788	35.43
750.967	36.76
751.147	35.74
751.327	34.33
751.507	34.55
751.686	34.94
751.866	34.97
752.046	33.94
752.225	33.31
752.405	32.48
752.585	31.83
752.764	32.63
752.944	33
753.123	34.69
753.303	35.36
753.482	33.77
753.662	34.54
753.841	35.78
754.021	34.79
754.2	35.11
754.38	35.84
754.559	36.13
754.739	35.47
754.918	34.66
755.097	33.96
755.277	32.56
755.456	32.81
755.635	30.05
755.815	29.82
755.994	30.52
756.173	31.79
756.352	31.14
756.532	31.37
756.711	31.44
756.89	30.73
757.069	28.39
757.248	28.74
757.427	28.02
757.607	30.43
757.786	29.86
757.965	30.62
758.144	29.25
758.323	29.47
758.502	30.8
758.681	30.76
758.86	32.1
759.039	32.97
759.218	35.17
759.397	36.98
759.576	35.4
759.755	35.31
759.934	35.06
760.113	35.07
760.291	36.79
760.47	35.13
760.649	35.54
760.828	36.32
761.007	37.38
761.186	37.83
761.364	36.88
761.543	37.06
761.722	37.44
761.901	37.74
762.079	38.63
762.258	36.45
762.437	37.41
762.615	36.41
762.794	35.71
762.972	34.87
763.151	34.15
763.33	34.23
763.508	34.22
763.687	33.75
763.865	34.03
764.044	33.27
764.222	33.09
764.401	32.44
764.579	32.76
764.758	32.73
764.936	33.12
765.114	32.27
765.293	32.05
765.471	32.12
765.65	32.98
765.828	32.34
766.006	32.52
766.184	33.73
766.363	33.85
766.541	35.27
766.719	35.12
766.898	34.75
767.076	34.81
767.254	34.77
767.432	35.34
767.61	33.92
767.788	32.55
767.967	32.04
768.145	31.77
768.323	31.57
768.501	29.88
768.679	30.33
768.857	31.17
769.035	32.07
769.213	31.82
769.391	31.44
769.569	33.96
769.747	36.13
769.925	35.96
770.103	37.18
770.281	37.37
770.459	37.76
770.636	37.22
770.814	39.11
770.992	39.21
771.17	38.87
771.348	38.68
771.525	35.63
771.703	34.53
771.881	34.71
772.059	33.85
772.236	34.34
772.414	36.29
772.592	37.29
772.769	35.89
772.947	34.29
773.125	35.8
773.302	35.4
773.48	39.74
773.657	42.65
773.835	44.17
774.013	43.59
774.19	43.53
774.368	41.01
774.545	41.85
774.723	39.03
774.9	40.98
775.077	41.84
775.255	44.09
775.432	42.41
775.61	40.04
775.787	37.62
775.964	39
776.142	38.75
776.319	35.81
776.496	35.29
776.674	38.15
776.851	32.22
777.028	31.48
777.205	31.16
777.382	29.23
777.56	28.34
777.737	29.74
777.914	29.7
778.091	30.65
778.268	34.47
778.445	34.04
778.622	34.42
778.8	38.21
778.977	40.43
779.154	40.15
779.331	42.66
779.508	46.42
779.685	48.42
779.862	47
780.038	45.31
780.215	42.91
780.392	41.33
780.569	42.47
780.746	42.64
780.923	42.18
781.1	40.58
781.277	38.11
781.453	35.05
781.63	32.68
781.807	32.43
781.984	34.86
782.16	36.57
782.337	37.86
782.514	35.83
782.691	33.36
782.867	30.46
783.044	31.77
783.221	32.77
783.397	31.87
783.574	32.28
783.75	34.37
783.927	34.87
784.103	33.8
784.28	35.1
784.456	34.79
784.633	38.36
784.809	41.01
784.986	41.99
785.162	42.38
785.339	42.78
785.515	41.59
785.692	38.59
785.868	39.82
786.044	39.98
786.221	37.13
786.397	36.08
786.573	34.65
786.749	32.22
786.926	30.67
787.102	31.6
787.278	30.65
787.454	33.89
787.631	36.29
787.807	33.17
787.983	32.9
788.159	33.79
788.335	33.81
788.511	33.06
788.687	34.59
788.863	37.67
789.039	36.24
789.216	38.28
789.392	35.02
789.568	33.09
789.744	33.09
789.919	34.24
790.095	33.77
790.271	36.7
790.447	38.17
790.623	38.82
790.799	37.88
790.975	40.71
791.151	40.5
791.327	44.75
791.502	44.99
791.678	45.09
791.854	46.51
792.03	49.03
792.205	46.55
792.381	46.91
792.557	48.99
792.733	49.74
792.908	44.96
793.084	47.62
793.259	43.71
793.435	40.41
793.611	39.43
793.786	36.9
793.962	33.23
794.137	34.01
794.313	33.05
794.488	29.01
794.664	25.66
794.839	26.19
795.015	24.84
795.19	27.63
795.366	32.04
795.541	32.99
795.716	31.95
795.892	33.15
796.067	30.89
796.242	31.78
796.418	31.22
796.593	32.74
796.768	37
796.944	38.55
797.119	36.36
797.294	35.52
797.469	34.15
797.644	37.49
797.82	36.77
797.995	38.83
798.17	36.32
798.345	36.5
798.52	38.13
798.695	38.06
798.87	34.21
799.045	34.08
799.22	34.51
799.395	32.59
799.57	29.33
799.745	34.21
799.92	33.3
800.095	37.07
800.27	38.06
800.445	34.51
800.62	31.16
800.795	35.51
800.97	36.81
801.145	33.82
801.319	36.8
801.494	43.04
801.669	36.75
801.844	38.71
802.018	36.69
802.193	38.33
802.368	41.73
802.543	40.82
802.717	40.59
802.892	41.29
803.067	45.78
803.241	49.18
803.416	44.54
803.59	45.69
803.765	44.54
803.94	45.84
804.114	43.31
804.289	40.51
804.463	41.69
804.638	43.16
804.812	45.58
804.986	41.43
805.161	40.11
805.335	40.08
805.51	41.63
805.684	39.87
805.858	42.32
806.033	46.01
806.207	48.37
806.381	48.79
806.556	46.49
806.73	43.51
806.904	44.06
807.078	40.37
807.253	38.14
807.427	34.77
807.601	36.47
807.775	32.92
807.949	30.96
808.123	26.72
808.298	28.82
808.472	31.36
808.646	28.78
808.82	26.15
808.994	31.64
809.168	31.24
809.342	36.59
809.516	39.09
809.69	39.38
809.864	39.41
810.038	40.55
810.212	39.71
810.385	36.89
810.559	41.43
810.733	42.18
810.907	41.13
811.081	44.45
811.255	44.54
811.428	42.91
811.602	43.36
811.776	38.53
811.95	41.97
812.123	41.1
812.297	41.54
812.471	39.23
812.644	50.45
812.818	50.7
812.992	48.73
813.165	44.16
813.339	42.73
813.512	44.97
813.686	48.45
813.86	45.88
814.033	45.1
814.207	44.14
814.38	45.98
814.554	48.24
814.727	43.83
814.9	39.97
815.074	42.94
815.247	44.97
815.421	43.13
815.594	43.25
815.767	42.91
815.941	44.06
816.114	42.48
816.287	43.55
816.46	37.61
816.634	46.78
816.807	51.25
816.98	51.45
817.153	53.96
817.327	53.93
817.5	51.08
817.673	55.08
817.846	49.79
818.019	46.15
818.192	46.2
818.365	43.51
818.538	39.55
818.711	38.6
818.884	34.26
819.057	33.35
819.23	34.17
819.403	42.02
819.576	36.45
819.749	37.44
819.922	36.49
820.095	34.2
820.268	32.98
820.441	30.2
820.614	31.71
820.786	33.75
820.959	34.59
821.132	33.85
821.305	33.02
821.477	36.33
821.65	36.75
821.823	38.42
821.996	38.29
822.168	39.11
822.341	40.8
822.514	41.05
822.686	40.77
822.859	40.37
823.031	40.34
823.204	40.84
823.376	41.07
823.549	40.8
823.722	40.29
823.894	39.94
824.067	39.41
824.239	38.41
824.411	37.84
824.584	38.18
824.756	37.37
824.929	37.4
825.101	36.23
825.273	35.25
825.446	35.84
825.618	36.08
825.79	35.81
825.963	35.75
826.135	35.22
826.307	34.46
826.479	33.82
826.652	35.11
826.824	36
826.996	35.48
827.168	35.38
827.34	33.68
827.512	33.95
827.684	34.41
827.856	34.33
828.029	37.26
828.201	37.49
828.373	37.82
828.545	37.79
828.717	38.02
828.889	39.68
829.061	37.69
829.232	41.21
829.404	40.49
829.576	40.5
829.748	40.88
829.92	34.79
830.092	32.97
830.264	31.74
830.436	28.88
830.607	25.7
830.779	24.83
830.951	26.53
831.123	21.2
831.294	23.71
831.466	22.48
831.638	20
831.809	25.26
831.981	27.74
832.153	25.39
832.324	24.27
832.496	25.18
832.667	23.23
832.839	27.4
833.011	31.57
833.182	29.08
833.354	29.69
833.525	34.01
833.697	29.3
833.868	33.32
834.039	36.18
834.211	38.6
834.382	40.64
834.554	39.26
834.725	38.99
834.896	39.01
835.068	38.71
835.239	40.86
835.41	38.42
835.581	41.12
835.753	38.46
835.924	39.06
836.095	38.79
836.266	32.48
836.438	34.12
836.609	31.86
836.78	32.13
836.951	35.13
837.122	31.87
837.293	35.78
837.464	34.69
837.635	37.94
837.806	40.64
837.977	41.52
838.148	44.32
838.319	43.84
838.49	41.71
838.661	35.84
838.832	35.02
839.003	31.45
839.174	27.05
839.345	28.15
839.516	26.8
839.687	26.2
839.857	19.16
840.028	21.74
840.199	15.94
840.37	9.75
840.54	18.3
840.711	15.78
840.882	23.74
841.053	26.52
841.223	23.81
841.394	29.08
841.564	18.49
841.735	19.29
841.906	26.79
842.076	29.04
842.247	36.44
842.417	45.25
842.588	50.61
842.758	43.45
842.929	39.02
843.099	41.66
843.27	32.66
843.44	32.37
843.611	30.03
843.781	25.29
843.951	41.29
844.122	45.88
844.292	31.34
844.462	29.38
844.633	36.55
844.803	34.58
844.973	35.11
845.144	33.06
845.314	38.73
845.484	61.31
845.654	52.62
845.824	41.79
845.995	52.62
846.165	46.85
846.335	61.16
846.505	55.16
846.675	52.61
846.845	45.39
847.015	48.73
847.185	52.39
847.355	37.2
847.525	23.62
847.695	27.2
847.865	29.72
848.035	46.79
848.205	30.39
848.375	28.87
848.545	36.6
848.715	42.31
848.884	42.85
849.054	49.23
849.224	71.62
849.394	94.8
849.564	115.03
849.733	119.06
849.903	92.33
850.073	95.65
850.243	118.01
850.412	167.01
850.582	144.15
850.752	124.37
850.921	115.29
851.091	111.91
851.26	98.89
851.43	93.14
851.599	95.94
851.769	101.06
851.939	97.71
852.108	97.04
852.278	105.97
852.447	104.16
852.616	93.86
852.786	108.22
852.955	90.94
853.125	149.24
853.294	119.97
853.463	128.79
853.633	132.84
853.802	163.64
853.971	101.2
854.141	85.38
854.31	95.15
854.479	94.73
854.648	89.04
854.818	75.43
854.987	48.69
855.156	57.43
855.325	47.46
855.494	39.71
855.663	35.17
855.832	47.98
856.001	33.99
856.171	39.77
856.34	30.76
856.509	23.24
856.678	-98.23
856.847	-37.72
857.016	252.12
857.185	-184.45
857.353	-112.24
857.522	-27.36
857.691	-20.7
857.86	-23.92
858.029	-68.69
858.198	-74.14
858.367	-34.76
858.535	1.02
858.704	7.92
858.873	6.84
859.042	36.34
859.21	-24.36
859.379	-20.7
859.548	27.18
859.717	25.8
859.885	35.07
860.054	85.54
860.222	102.3
860.391	100.11
860.56	65.49
860.728	63.35
860.897	51.18
861.065	48.06
861.234	78.67
861.402	130.54
861.571	119.96
861.739	103.78
861.908	68.56
862.076	92.39
862.244	83.55
862.413	83.5
862.581	88.99
862.749	91.34
862.918	123.02
863.086	73.66
863.254	69.63
863.423	80.61
863.591	88.59
863.759	65.68
863.927	60.41
864.096	64.58
864.264	84.45
864.432	60.65
864.6	66.93
864.768	41.75
864.936	29.89
865.104	43.48
865.272	52.12
865.44	29.88
865.608	114.2
865.776	6.68
865.944	9.37
866.112	46.63
866.28	145.22
866.448	142.52
866.616	613.28
866.784	282.38
866.952	184.32
867.12	118.08
867.288	164.47
867.455	139.81
867.623	137.08
867.791	117.79
867.959	105.74
868.127	104.84
868.294	115.99
868.462	93.85
868.63	72.24
868.797	99.25
868.965	146.71
869.133	80.67
869.3	100.85
869.468	59.78
869.636	92.76
869.803	99.63
869.971	83.53
870.138	114.59
870.306	160.25
870.473	197.06
870.641	148.86
870.808	119.19
870.975	119.76
871.143	114.85
871.31	177.58
871.478	159.45
871.645	140.1
871.812	151.71
871.98	104.75
872.147	85.94
872.314	87.68
872.482	125
872.649	132.31
872.816	158.82
872.983	131.69
873.15	116.2
873.318	92.27
873.485	137.21
873.652	135.31
873.819	137.53
873.986	138.81
874.153	97.49
874.32	66.64
874.487	48.24
874.654	23.89
874.821	78.89
874.988	69.5
875.155	84.48
875.322	73.76
875.489	34.28
875.656	53.71
875.823	32.83
875.99	41.11
876.157	8.69
876.324	-5.97
876.49	-37.2
876.657	-32.55
876.824	-0.05
876.991	5.53
877.157	55.24
877.324	78.35
877.491	27.69
877.658	6.79
877.824	119.58
877.991	98.48
878.157	200.52
878.324	401.83
878.491	774.33
878.657	191.88
878.824	784.89
878.99	149.13
879.157	80.99
879.323	229.31
879.49	491.66
879.656	205.27
879.823	336.31
879.989	180.8
880.156	128.43
880.322	141.09
880.488	134.99
880.655	105.87
880.821	105.02
880.987	113.28
881.154	93.5
881.32	94.48
881.486	94.52
881.652	80.54
881.819	82.53
881.985	83.35
882.151	80.22
882.317	71
882.483	66.46
882.649	60.59
882.816	58.89
882.982	58.16
883.148	54.97
883.314	52.22
883.48	52.74
883.646	49.97
883.812	48.91
883.978	45.98
884.144	48.16
884.31	46.77
884.476	50.83
884.642	49.31
884.807	47.76
884.973	43.31
885.139	43.9
885.305	40.72
885.471	38.78
885.637	40.46
885.802	42.15
885.968	40.89
886.134	45.28
886.3	38.06
886.465	37.8
886.631	38.85
886.797	42.96
886.962	39.07
887.128	52.77
887.293	58.95
887.459	49.3
887.625	52.8
887.79	58.39
887.956	64.59
888.121	63.83
888.287	68.48
888.452	70.23
888.618	81.62
888.783	90.42
