Data from 2937829_Reflection_1.txt Node
Date: Wed Jul 15 16:52:49 EDT 2015
User: robert
Spectrometer: USB4E03001
Autoset integration time: false
Trigger mode: 4
Integration Time (sec): 1.000000E-1
Scans to average: 10
Electric dark correction enabled: true
Nonlinearity correction enabled: false
Boxcar width: 5
Stray light correction enabled: false
XAxis mode: Wavelengths
Stop averaging: false
Number of Pixels in Spectrum: 3648
>>>>>Begin Spectral Data<<<<<
177.566	279.37
177.785	125.89
178.005	261.37
178.225	8947.62
178.445	27766.67
178.665	147.25
178.885	126.58
179.105	206.67
179.324	70.15
179.544	210.8
179.764	243.57
179.984	292.83
180.204	-27.53
180.423	145.39
180.643	70.53
180.863	86.74
181.083	81.4
181.302	83.71
181.522	191.66
181.742	127.12
181.961	162.31
182.181	143.53
182.401	116.55
182.621	196.6
182.84	213.24
183.06	425.18
183.279	467.9
183.499	339.52
183.719	256.16
183.938	250.72
184.158	-9047.83
184.377	-530.12
184.597	-141.16
184.816	-106.22
185.036	-270.98
185.256	-140.69
185.475	-59.64
185.695	238.71
185.914	1277.42
186.134	183.77
186.353	105.28
186.572	69.04
186.792	69.72
187.011	66.98
187.231	74.02
187.45	69.78
187.67	68.52
187.889	91.08
188.108	101.11
188.328	120.8
188.547	195.96
188.766	173.17
188.986	171.81
189.205	257.88
189.424	246.42
189.644	804.74
189.863	-17529.41
190.082	407.63
190.302	322.55
190.521	392.58
190.74	2109
190.959	184.94
191.178	-34.11
191.398	0.73
191.617	0.24
191.836	94.41
192.055	69.98
192.274	41.18
192.494	986.67
192.713	258.3
192.932	-171.17
193.151	-98.31
193.37	32.79
193.589	-3.28
193.808	4.85
194.027	28.27
194.246	85.93
194.465	40.23
194.685	-45.31
194.904	-81.07
195.123	-137.88
195.342	-150.23
195.561	-266.14
195.78	-152.65
195.999	-450.46
196.218	-203.46
196.436	-137.82
196.655	844.61
196.874	279.41
197.093	210.57
197.312	180.61
197.531	226.35
197.75	180.87
197.969	43.74
198.188	-102.94
198.407	-127.92
198.625	-47.62
198.844	-25.67
199.063	-588.6
199.282	-282.9
199.501	-332.72
199.719	300.96
199.938	134.7
200.157	210.43
200.376	73.44
200.594	24.95
200.813	-35.43
201.032	51.86
201.251	8.51
201.469	-13.79
201.688	4.26
201.907	40.19
202.125	50.77
202.344	55.62
202.563	34.62
202.781	67.43
203	-12.65
203.218	34.8
203.437	35.68
203.656	69.09
203.874	10.97
204.093	13.99
204.311	95.24
204.53	3.45
204.748	41.21
204.967	59.2
205.185	114.9
205.404	101.94
205.622	-235.54
205.841	-320.31
206.059	-115.68
206.278	-89.39
206.496	-87.26
206.715	-759.41
206.933	-1251.06
207.151	-208.3
207.37	-136.1
207.588	-42
207.806	-198.15
208.025	-236.56
208.243	-76.03
208.461	-43.98
208.68	-159.71
208.898	-110.57
209.116	-22.94
209.335	82.39
209.553	75.08
209.771	164.41
209.989	347.05
210.208	-2148.67
210.426	83.57
210.644	-34.54
210.862	-15.56
211.081	23.86
211.299	27.91
211.517	-6.85
211.735	-22.78
211.953	-17.98
212.171	-56.21
212.39	-49.71
212.608	-48.05
212.826	-49.14
213.044	-61.7
213.262	-110.08
213.48	-246.31
213.698	-385.14
213.916	-192.4
214.134	-596.78
214.352	368.78
214.57	240.73
214.788	255.65
215.006	168.41
215.224	145.49
215.442	184.25
215.66	188.14
215.878	530.9
216.096	-665.79
216.314	933.6
216.532	1237.25
216.75	-216.71
216.968	-424.39
217.185	-213.47
217.403	-95.37
217.621	-152.19
217.839	-352.03
218.057	2020.28
218.275	361.95
218.492	200.4
218.71	156.72
218.928	209
219.146	750.1
219.363	-1011.99
219.581	-2103.61
219.799	-7271.43
220.017	-490.09
220.234	-484.83
220.452	-134.21
220.67	-131.34
220.887	-77.55
221.105	-190.46
221.323	-31.82
221.54	-66.83
221.758	-65.23
221.976	-2.95
222.193	79.77
222.411	68.76
222.629	54.03
222.846	3.32
223.064	14.23
223.281	-0.05
223.499	14.77
223.716	-5.89
223.934	-50.43
224.151	-50.88
224.369	-49.85
224.586	-56.58
224.804	-21.52
225.021	6.83
225.239	2.55
225.456	-3.44
225.674	-0.27
225.891	-16.67
226.108	-32.69
226.326	16.62
226.543	6.92
226.76	-8.27
226.978	-11.45
227.195	-5.99
227.413	-15.52
227.63	-6.19
227.847	-18.3
228.064	-6.32
228.282	-1.14
228.499	-2.27
228.716	-2.01
228.934	-2.08
229.151	-1.3
229.368	-1.98
229.585	-6.58
229.802	-7.21
230.02	-5.44
230.237	-0.82
230.454	-5.62
230.671	-10.02
230.888	-7.73
231.105	-14.24
231.323	-9.33
231.54	-14.18
231.757	-16.49
231.974	-8.21
232.191	-8.52
232.408	-11.96
232.625	-16.63
232.842	-15.29
233.059	-8.79
233.276	-21.57
233.493	-19.39
233.71	-14.47
233.927	-8.87
234.144	-12.05
234.361	-30.84
234.578	-31.13
234.795	-39.26
235.012	-33.65
235.229	-37.69
235.446	-42.67
235.663	-31.38
235.879	-31.35
236.096	-45.63
236.313	-43.81
236.53	-27.68
236.747	-8.38
236.964	-12.66
237.181	-6.36
237.397	-0.78
237.614	3.17
237.831	4.56
238.048	-6.49
238.264	-5.92
238.481	1.61
238.698	-3.13
238.915	-9.05
239.131	-10.83
239.348	-8.98
239.565	-9.95
239.781	-16.3
239.998	-12.67
240.215	-17.66
240.431	-7.88
240.648	-6.79
240.865	-9.63
241.081	-6.04
241.298	-0.8
241.514	-1.88
241.731	1.39
241.947	2.48
242.164	3.44
242.38	3.51
242.597	7.74
242.814	8.06
243.03	9.34
243.246	10.68
243.463	10.98
243.679	9.39
243.896	10.55
244.112	9.55
244.329	9.74
244.545	9.12
244.762	8.56
244.978	7.36
245.194	6.74
245.411	5.49
245.627	4.13
245.843	5.57
246.06	6.18
246.276	5.59
246.492	7.02
246.709	8.11
246.925	9.62
247.141	10.7
247.357	9.95
247.574	10.63
247.79	11.04
248.006	11.07
248.222	10.82
248.439	11.03
248.655	10.84
248.871	11.6
249.087	11.07
249.303	11.88
249.519	9.62
249.736	10.58
249.952	8.36
250.168	8.19
250.384	6.14
250.6	6.34
250.816	5.85
251.032	4.96
251.248	4.6
251.464	4.61
251.68	0.28
251.896	2.14
252.112	1.1
252.328	2.66
252.544	0.7
252.76	2.68
252.976	0.17
253.192	-1.41
253.408	0.31
253.624	-3.15
253.84	-8.29
254.056	-8.45
254.272	-6.39
254.487	-7.99
254.703	-11.97
254.919	-11.78
255.135	-9.48
255.351	-7.97
255.567	-9.12
255.782	-10.66
255.998	-9.88
256.214	-2.01
256.43	-4.98
256.646	-8.12
256.861	-8.39
257.077	-3.97
257.293	-2.17
257.508	-4.53
257.724	-0.9
257.94	1.08
258.155	-1.32
258.371	-0.35
258.587	0.79
258.802	3.58
259.018	4.19
259.234	5.57
259.449	5.51
259.665	4.62
259.88	5.14
260.096	3.7
260.312	3.41
260.527	3.75
260.743	4.48
260.958	3.4
261.174	3.31
261.389	3.01
261.605	0.96
261.82	-0.75
262.036	-0.81
262.251	-3.09
262.466	-2.07
262.682	-2.37
262.897	-1.77
263.113	-4.9
263.328	-6.62
263.543	-8.27
263.759	-8.1
263.974	-4.98
264.189	-2.71
264.405	-3.62
264.62	-6.23
264.835	-9.96
265.051	-12.35
265.266	-11.76
265.481	-8.73
265.696	-7.4
265.912	-7.17
266.127	-9.26
266.342	-10.2
266.557	-10.79
266.773	-9.42
266.988	-4.27
267.203	-3.07
267.418	-1.43
267.633	-1.27
267.848	-0.84
268.064	1.57
268.279	-0.8
268.494	-1.49
268.709	-0.45
268.924	0.91
269.139	-0.18
269.354	-1.68
269.569	-1.07
269.784	0.37
269.999	0.04
270.214	-0.27
270.429	-2.67
270.644	0.38
270.859	1.06
271.074	2.08
271.289	1.65
271.504	2.93
271.719	3.74
271.934	1.6
272.149	0.58
272.363	0.51
272.578	0.55
272.793	1.47
273.008	1.05
273.223	0.8
273.438	0.37
273.653	-0.85
273.867	-0.78
274.082	-1.94
274.297	0.28
274.512	2.38
274.726	2.35
274.941	0.31
275.156	-0.97
275.371	-1.01
275.585	-1.23
275.8	-1.72
276.015	-0.44
276.229	-1.36
276.444	-0.8
276.659	-1.37
276.873	-3.05
277.088	-2.97
277.302	-0.19
277.517	0.73
277.732	-0.02
277.946	-0.82
278.161	-1.5
278.375	-2.47
278.59	-1.77
278.804	-0.89
279.019	-0.93
279.233	-0.68
279.448	-2.95
279.662	-5.46
279.877	-8.58
280.091	-7.65
280.306	-3.74
280.52	-3.04
280.735	-2.35
280.949	-3.04
281.163	-3.74
281.378	-2.96
281.592	-4.46
281.806	-3.3
282.021	-2.51
282.235	-0.01
282.449	1.07
282.664	0.14
282.878	-0.06
283.092	-0.65
283.307	-0.52
283.521	-0.22
283.735	-0.37
283.949	-1.53
284.164	-0.4
284.378	-0.97
284.592	-1.39
284.806	-4.49
285.02	-3.54
285.234	-3.12
285.449	-2.95
285.663	-2.28
285.877	-2.49
286.091	-0.91
286.305	1.04
286.519	0.88
286.733	1.34
286.947	1.72
287.161	3.23
287.375	2.41
287.589	3.81
287.803	4.16
288.017	4.18
288.231	2.89
288.445	2.62
288.659	1.29
288.873	2.24
289.087	0.89
289.301	0.82
289.515	2.18
289.729	2.36
289.943	0.77
290.157	1.89
290.371	0.91
290.584	1.16
290.798	-1.68
291.012	-1.76
291.226	-2.31
291.44	-2.03
291.654	-3.19
291.867	-3.3
292.081	-4.23
292.295	-4.87
292.509	-6.82
292.722	-5.29
292.936	-6.4
293.15	-2.95
293.364	-2.43
293.577	-2.42
293.791	-2.03
294.005	-1.79
294.218	-1.71
294.432	0.28
294.645	1.57
294.859	2.9
295.073	2.48
295.286	3.23
295.5	3.35
295.713	4.57
295.927	3.29
296.14	5
296.354	5.56
296.568	4.97
296.781	4.97
296.994	4.26
297.208	2.69
297.421	2.7
297.635	5.28
297.848	4.53
298.062	4.14
298.275	4.34
298.489	3.03
298.702	4.1
298.915	4.47
299.129	2.49
299.342	2.1
299.555	4.56
299.769	4.73
299.982	3.64
300.195	3.75
300.409	4.45
300.622	3.5
300.835	4.64
301.048	3.76
301.262	3.38
301.475	4.62
301.688	5.78
301.901	3.55
302.115	3.02
302.328	2.3
302.541	2.14
302.754	2.61
302.967	7.32
303.18	6.63
303.393	6.19
303.607	5.88
303.82	6.91
304.033	7.28
304.246	8.57
304.459	8.53
304.672	7.85
304.885	9.5
305.098	9.42
305.311	5.18
305.524	6.11
305.737	7.39
305.95	9.35
306.163	8.58
306.376	7.31
306.589	6.34
306.802	8.72
307.015	9.52
307.228	6.95
307.44	7.78
307.653	8.87
307.866	9.35
308.079	8.65
308.292	6.66
308.505	8.98
308.718	9.83
308.93	10.87
309.143	9.5
309.356	8.23
309.569	8.56
309.781	7.36
309.994	8.1
310.207	8.6
310.42	8.34
310.632	8.21
310.845	7.28
311.058	6.97
311.27	5.69
311.483	4.03
311.696	4.02
311.908	5.2
312.121	5.45
312.333	4.08
312.546	2.53
312.759	2.17
312.971	3.16
313.184	1.89
313.396	2.67
313.609	2.64
313.821	5.48
314.034	5.25
314.246	4.25
314.459	3.4
314.671	4.94
314.884	4.6
315.096	4.07
315.309	3.12
315.521	4.78
315.733	2.07
315.946	3.15
316.158	1.4
316.371	3.3
316.583	3.07
316.795	1.36
317.008	1.79
317.22	3.34
317.432	6.74
317.644	8.87
317.857	7.54
318.069	10.04
318.281	11.71
318.494	12.94
318.706	11.51
318.918	11.29
319.13	12.94
319.342	12.89
319.555	12.46
319.767	9.67
319.979	8.27
320.191	9.07
320.403	7.32
320.615	5.34
320.827	4.28
321.039	4.64
321.252	5.15
321.464	8.22
321.676	8.61
321.888	10.27
322.1	11.31
322.312	10.85
322.524	10.58
322.736	11.46
322.948	12.43
323.16	14.52
323.372	15.61
323.584	16.14
323.796	13.79
324.007	12.69
324.219	11.42
324.431	12.13
324.643	12.25
324.855	12.52
325.067	12.51
325.279	10.86
325.491	9.42
325.702	10.63
325.914	9.82
326.126	10.14
326.338	11.77
326.55	11.66
326.761	11.36
326.973	11.76
327.185	11.33
327.396	12.26
327.608	13.88
327.82	14.31
328.032	12.38
328.243	12.92
328.455	11.71
328.666	11.04
328.878	11.78
329.09	10.72
329.301	10.78
329.513	12.1
329.725	12.27
329.936	14.05
330.148	14.95
330.359	15.72
330.571	16.83
330.782	15.94
330.994	17.61
331.205	16.02
331.417	16.2
331.628	15.85
331.84	14.85
332.051	13.04
332.262	11.52
332.474	10.34
332.685	8.92
332.897	9.79
333.108	11.33
333.319	10.73
333.531	9.49
333.742	8.78
333.953	9.64
334.165	8.53
334.376	9.23
334.587	10.82
334.799	10.81
335.01	11.63
335.221	10.26
335.432	10.18
335.644	8.48
335.855	8.53
336.066	9.02
336.277	7.65
336.488	9.81
336.7	9.63
336.911	7.67
337.122	8.46
337.333	9.3
337.544	11.29
337.755	11.7
337.966	14.09
338.177	15.14
338.388	14.85
338.599	15.78
338.811	14.55
339.022	14.69
339.233	15.02
339.444	14.86
339.655	14.42
339.866	13.94
340.076	14.58
340.287	11.82
340.498	11.89
340.709	13.97
340.92	14.32
341.131	14.95
341.342	15.63
341.553	15.21
341.764	14.22
341.975	13.2
342.185	12.68
342.396	11.27
342.607	13.03
342.818	13.14
343.029	13.84
343.239	13.7
343.45	12.15
343.661	11.37
343.872	10.98
344.082	10.92
344.293	12.74
344.504	11.78
344.714	13.09
344.925	11.27
345.136	13.49
345.346	12.79
345.557	14.15
345.768	14.66
345.978	15.1
346.189	16.31
346.399	15.88
346.61	15.69
346.821	16.34
347.031	15.66
347.242	16.48
347.452	14.79
347.663	13.1
347.873	12.05
348.084	12.36
348.294	11.76
348.504	11.02
348.715	12.62
348.925	13.25
349.136	12.86
349.346	12.4
349.557	12.01
349.767	11.92
349.977	11.4
350.188	10.92
350.398	9.5
350.608	8.92
350.819	8.17
351.029	7.38
351.239	6.56
351.449	5.98
351.66	5.52
351.87	6.25
352.08	5.73
352.29	8.5
352.501	8.56
352.711	8.45
352.921	10.57
353.131	10.94
353.341	10.62
353.552	10.13
353.762	10.2
353.972	11.03
354.182	10.81
354.392	12.07
354.602	11.28
354.812	11.31
355.022	11.99
355.232	10.93
355.442	11.07
355.652	10.55
355.862	10.19
356.072	10.28
356.282	10.45
356.492	10.5
356.702	9.75
356.912	9.28
357.122	8.48
357.332	8.67
357.542	8.56
357.752	9.32
357.962	10.53
358.171	10.37
358.381	11.34
358.591	10.4
358.801	10.25
359.011	10.12
359.221	10.62
359.43	11.25
359.64	11.72
359.85	12.12
360.06	12.33
360.269	11.22
360.479	12.52
360.689	11.5
360.899	12.46
361.108	12.59
361.318	12.74
361.528	12
361.737	11.65
361.947	11.06
362.156	10.8
362.366	9.67
362.576	9.96
362.785	8.53
362.995	9.09
363.204	8.66
363.414	8.49
363.623	8.64
363.833	9.1
364.042	8.61
364.252	8.92
364.461	8.62
364.671	8.29
364.88	8.45
365.09	9.17
365.299	9.36
365.509	8.57
365.718	8.83
365.927	7.78
366.137	7.62
366.346	8.07
366.555	8.93
366.765	8.94
366.974	9.86
367.183	9.62
367.393	10.37
367.602	8.58
367.811	8.85
368.021	7.99
368.23	8.11
368.439	8.2
368.648	8.75
368.857	7.26
369.067	7.23
369.276	7.16
369.485	7.48
369.694	6.22
369.903	7.52
370.112	7.21
370.321	7.37
370.531	7.74
370.74	7.35
370.949	7.96
371.158	9.26
371.367	8.22
371.576	7.73
371.785	7.88
371.994	7.92
372.203	8.06
372.412	9.26
372.621	9.83
372.83	9.67
373.039	10.2
373.248	9.38
373.457	8.49
373.666	9.51
373.874	8.56
374.083	8.07
374.292	7.55
374.501	7.01
374.71	6.18
374.919	5.07
375.128	4.74
375.336	4.74
375.545	3.35
375.754	3.07
375.963	3.07
376.171	2.89
376.38	3.27
376.589	4.51
376.798	4.27
377.006	5.15
377.215	5.22
377.424	5.53
377.632	5.68
377.841	6.63
378.05	7.26
378.258	7.25
378.467	8.59
378.675	8.52
378.884	8.28
379.093	9.08
379.301	8.59
379.51	9.68
379.718	9.76
379.927	9.66
380.135	9.74
380.344	8.97
380.552	9.75
380.761	9.93
380.969	9.86
381.177	9.58
381.386	8.57
381.594	8.08
381.803	8.07
382.011	7.47
382.219	7.62
382.428	7.07
382.636	7.54
382.845	6.96
383.053	6.56
383.261	6.98
383.469	6.56
383.678	6.47
383.886	6.68
384.094	6.73
384.302	7.89
384.511	7.06
384.719	6.52
384.927	6.73
385.135	6.2
385.343	5.31
385.552	4.19
385.76	4.08
385.968	4.67
386.176	4.68
386.384	4.23
386.592	3.84
386.8	3.94
387.008	4.54
387.216	3.87
387.424	4.18
387.633	4.65
387.841	5.4
388.049	6.14
388.257	6.04
388.465	5.62
388.672	5.85
388.88	5.56
389.088	5.58
389.296	5.66
389.504	5.79
389.712	5.68
389.92	5.58
390.128	5.26
390.336	4.66
390.544	4.12
390.751	4.35
390.959	4.25
391.167	4.11
391.375	3.95
391.583	3.94
391.79	3.86
391.998	3.96
392.206	3.75
392.414	3.91
392.621	4.42
392.829	4.57
393.037	4.79
393.244	4.64
393.452	4.61
393.66	5.02
393.867	4.7
394.075	4.68
394.283	4.01
394.49	4.38
394.698	3.89
394.905	3.1
395.113	3.34
395.32	3.06
395.528	3.05
395.735	3.15
395.943	3.09
396.15	3.78
396.358	3.41
396.565	3.52
396.773	3.26
396.98	3.5
397.188	3.66
397.395	3.67
397.602	3.63
397.81	3.28
398.017	3.22
398.225	2.92
398.432	2.09
398.639	2.38
398.847	2.3
399.054	2.41
399.261	2.37
399.468	2.67
399.676	2.45
399.883	2.52
400.09	2.83
400.297	2.89
400.505	2.69
400.712	3.22
400.919	3.34
401.126	4.13
401.333	4.15
401.54	3.93
401.748	4.22
401.955	4.3
402.162	4.2
402.369	3.98
402.576	4.03
402.783	4.29
402.99	4.05
403.197	3.79
403.404	3.71
403.611	4.03
403.818	4.28
404.025	3.7
404.232	3.66
404.439	3.56
404.646	3.16
404.853	3.27
405.06	3.1
405.267	3.22
405.474	3.63
405.681	3.31
405.887	3.16
406.094	3.45
406.301	3.69
406.508	3.65
406.715	3.6
406.922	4.13
407.128	3.86
407.335	4.03
407.542	3.69
407.749	3.26
407.955	2.96
408.162	2.84
408.369	2.38
408.575	2.05
408.782	1.94
408.989	2.05
409.195	1.81
409.402	2.01
409.609	1.79
409.815	2.09
410.022	2.28
410.228	2.18
410.435	2.2
410.642	2.58
410.848	2.97
411.055	2.88
411.261	2.65
411.468	2.59
411.674	2.58
411.881	2.8
412.087	2.78
412.294	2.9
412.5	3.56
412.706	3.47
412.913	3.32
413.119	3.25
413.326	3.2
413.532	3.47
413.738	3.71
413.945	3.79
414.151	3.73
414.357	3.77
414.564	3.64
414.77	3.53
414.976	3.61
415.182	3.63
415.389	3.09
415.595	3.17
415.801	2.95
416.007	3.02
416.214	2.78
416.42	2.8
416.626	2.6
416.832	2.58
417.038	2.6
417.244	2.67
417.45	2.64
417.657	3.02
417.863	3.27
418.069	3.51
418.275	3.45
418.481	3.62
418.687	3.68
418.893	3.64
419.099	3.7
419.305	3.61
419.511	3.48
419.717	3.42
419.923	3.38
420.129	3.33
420.335	3.31
420.541	3.31
420.746	3
420.952	2.96
421.158	3.05
421.364	3.01
421.57	2.81
421.776	2.94
421.982	3.03
422.187	3.11
422.393	3.32
422.599	3.27
422.805	3.2
423.01	3.29
423.216	3.19
423.422	3.18
423.628	3.05
423.833	3.27
424.039	3.17
424.245	3.17
424.45	3.09
424.656	2.67
424.862	2.81
425.067	2.92
425.273	3.15
425.478	3.22
425.684	3.19
425.889	3.19
426.095	3.19
426.301	3.26
426.506	2.98
426.712	3.11
426.917	3.26
427.123	2.9
427.328	2.7
427.533	2.6
427.739	2.48
427.944	2.52
428.15	2.85
428.355	2.78
428.561	2.56
428.766	2.93
428.971	2.6
429.177	2.72
429.382	3.06
429.587	3.2
429.793	2.98
429.998	3.2
430.203	2.85
430.408	2.84
430.614	2.97
430.819	3.22
431.024	2.83
431.229	2.52
431.434	2.47
431.64	2.48
431.845	2.64
432.05	2.73
432.255	2.59
432.46	2.99
432.665	2.62
432.87	2.68
433.076	2.65
433.281	2.95
433.486	3.5
433.691	3.39
433.896	3.22
434.101	3.14
434.306	2.99
434.511	3.12
434.716	3.19
434.921	3.57
435.126	3.52
435.331	3.45
435.535	3.25
435.74	2.88
435.945	3.16
436.15	3.3
436.355	3.33
436.56	3.39
436.765	3.3
436.97	3.04
437.174	3.05
437.379	2.8
437.584	2.76
437.789	2.78
437.993	2.98
438.198	2.74
438.403	2.77
438.608	2.64
438.812	2.76
439.017	2.81
439.222	2.98
439.426	3.01
439.631	3.32
439.836	3.28
440.04	3.26
440.245	3.34
440.45	3.44
440.654	3.48
440.859	3.62
441.063	3.4
441.268	3.4
441.472	3.38
441.677	3.3
441.881	3.25
442.086	3.3
442.29	3.51
442.495	3.26
442.699	3.3
442.904	3.09
443.108	2.8
443.312	3.06
443.517	2.98
443.721	2.95
443.925	2.87
444.13	2.76
444.334	2.68
444.538	2.52
444.743	2.82
444.947	3.01
445.151	3.03
445.356	3.25
445.56	3.21
445.764	3.27
445.968	3.35
446.173	3.26
446.377	3.15
446.581	3.15
446.785	3.2
446.989	3.17
447.193	3.12
447.398	3.29
447.602	3.38
447.806	3.16
448.01	3.09
448.214	2.92
448.418	3
448.622	3.11
448.826	3.02
449.03	2.99
449.234	3
449.438	2.79
449.642	2.75
449.846	2.61
450.05	2.98
450.254	3.17
450.458	3.21
450.662	3.23
450.866	3.35
451.069	3.58
451.273	3.65
451.477	3.54
451.681	3.58
451.885	3.29
452.089	3.32
452.292	3.03
452.496	3.22
452.7	3.33
452.904	3.3
453.107	3.2
453.311	3.39
453.515	3.36
453.719	3.35
453.922	3.42
454.126	3.64
454.33	3.62
454.533	3.97
454.737	3.53
454.94	3.59
455.144	3.63
455.348	3.82
455.551	3.8
455.755	3.67
455.958	3.65
456.162	3.4
456.365	3.33
456.569	3.44
456.772	3.07
456.976	3.22
457.179	3.03
457.383	2.87
457.586	3.03
457.79	2.94
457.993	2.93
458.196	2.94
458.4	3.23
458.603	3.22
458.807	2.91
459.01	3.07
459.213	3.02
459.417	3.12
459.62	3.28
459.823	3.2
460.026	3.24
460.23	3.35
460.433	3.5
460.636	3.33
460.839	3.57
461.042	3.9
461.246	3.88
461.449	3.74
461.652	3.83
461.855	3.8
462.058	3.43
462.261	3.52
462.464	3.54
462.668	3.44
462.871	3.47
463.074	3.18
463.277	2.8
463.48	2.94
463.683	3.36
463.886	3.42
464.089	3.24
464.292	3.59
464.495	3.33
464.698	3.42
464.901	3.57
465.104	3.73
465.306	3.94
465.509	4.08
465.712	4.14
465.915	4.02
466.118	3.82
466.321	4.14
466.524	4.06
466.726	4.15
466.929	3.95
467.132	3.65
467.335	3.39
467.538	3.15
467.74	3.26
467.943	3.01
468.146	3.13
468.348	3.18
468.551	3.04
468.754	2.94
468.956	3.04
469.159	3.06
469.362	3.29
469.564	3.3
469.767	3.23
469.969	3.08
470.172	3.2
470.375	2.97
470.577	2.85
470.78	2.87
470.982	3.1
471.185	2.98
471.387	3.18
471.59	3.15
471.792	3.36
471.995	3.6
472.197	3.61
472.399	3.48
472.602	3.55
472.804	3.79
473.007	3.81
473.209	3.6
473.411	3.55
473.614	3.52
473.816	3.55
474.018	3.64
474.22	3.52
474.423	3.51
474.625	3.7
474.827	3.82
475.03	3.53
475.232	3.59
475.434	3.65
475.636	3.63
475.838	3.54
476.04	3.49
476.243	3.39
476.445	3.52
476.647	3.62
476.849	3.71
477.051	3.8
477.253	3.91
477.455	3.82
477.657	3.72
477.859	3.8
478.061	3.88
478.263	3.99
478.465	4.07
478.667	3.78
478.869	3.69
479.071	3.58
479.273	3.33
479.475	3.34
479.677	3.44
479.879	3.74
480.081	3.78
480.283	3.58
480.485	3.25
480.686	3.17
480.888	3.31
481.09	3.27
481.292	3.43
481.494	3.57
481.695	3.59
481.897	3.52
482.099	3.4
482.301	3.44
482.502	3.59
482.704	3.71
482.906	3.75
483.107	3.84
483.309	3.89
483.511	3.84
483.712	3.84
483.914	3.9
484.115	3.99
484.317	3.91
484.519	3.91
484.72	3.87
484.922	3.87
485.123	3.84
485.325	3.87
485.526	3.87
485.728	3.89
485.929	3.87
486.131	3.81
486.332	3.75
486.534	3.84
486.735	3.91
486.936	3.93
487.138	3.95
487.339	4
487.541	4.02
487.742	4.09
487.943	4.06
488.144	4.06
488.346	4.11
488.547	4.06
488.748	4.04
488.95	4.02
489.151	3.97
489.352	4.01
489.553	3.9
489.755	3.75
489.956	3.65
490.157	3.58
490.358	3.6
490.559	3.51
490.76	3.47
490.961	3.52
491.163	3.45
491.364	3.48
491.565	3.48
491.766	3.46
491.967	3.52
492.168	3.49
492.369	3.6
492.57	3.59
492.771	3.7
492.972	3.72
493.173	3.67
493.374	3.69
493.575	3.75
493.776	3.72
493.976	3.86
494.177	3.87
494.378	3.93
494.579	3.73
494.78	3.67
494.981	3.61
495.182	3.78
495.382	3.84
495.583	3.74
495.784	3.78
495.985	3.75
496.185	3.61
496.386	3.55
496.587	3.59
496.788	3.64
496.988	3.68
497.189	3.54
497.39	3.47
497.59	3.44
497.791	3.56
497.992	3.49
498.192	3.55
498.393	3.58
498.593	3.7
498.794	3.85
498.994	3.87
499.195	3.87
499.395	3.99
499.596	3.98
499.796	4.07
499.997	3.99
500.197	4.19
500.398	4.16
500.598	4.38
500.799	4.29
500.999	4.17
501.199	4.33
501.4	4.45
501.6	4.49
501.801	4.42
502.001	4.45
502.201	4.25
502.402	4.06
502.602	4.11
502.802	4.1
503.002	4.03
503.203	4
503.403	3.65
503.603	3.72
503.803	3.57
504.003	3.64
504.204	3.64
504.404	3.86
504.604	3.87
504.804	3.9
505.004	3.85
505.204	4
505.404	3.91
505.604	4.04
505.804	3.82
506.005	3.81
506.205	3.76
506.405	3.71
506.605	3.85
506.805	4.05
507.005	3.96
507.204	3.87
507.404	3.9
507.604	4.09
507.804	4.23
508.004	4.2
508.204	4.37
508.404	4.44
508.604	4.47
508.804	4.51
509.003	4.37
509.203	4.43
509.403	4.57
509.603	4.46
509.803	4.34
510.002	4.42
510.202	4.6
510.402	4.63
510.602	4.56
510.801	4.64
511.001	4.46
511.201	4.65
511.4	4.65
511.6	4.53
511.8	4.73
511.999	4.85
512.199	4.88
512.398	4.87
512.598	4.88
512.797	5.1
512.997	5.08
513.197	5.11
513.396	4.92
513.596	4.82
513.795	4.91
513.994	4.83
514.194	4.74
514.393	4.57
514.593	4.58
514.792	4.64
514.992	4.63
515.191	4.63
515.39	4.73
515.59	4.93
515.789	5.11
515.988	5.06
516.188	5.22
516.387	5.48
516.586	5.59
516.786	5.65
516.985	5.53
517.184	5.5
517.383	5.6
517.582	5.53
517.782	5.54
517.981	5.56
518.18	5.74
518.379	5.54
518.578	5.45
518.777	5.5
518.976	5.44
519.176	5.54
519.375	5.62
519.574	5.7
519.773	5.84
519.972	5.72
520.171	5.69
520.37	5.59
520.569	5.71
520.768	5.77
520.967	5.86
521.166	5.73
521.365	5.67
521.564	5.65
521.762	5.53
521.961	5.35
522.16	5.49
522.359	5.63
522.558	5.55
522.757	5.47
522.956	5.48
523.154	5.43
523.353	5.53
523.552	5.64
523.751	5.5
523.949	5.68
524.148	5.82
524.347	5.75
524.546	5.83
524.744	5.95
524.943	6.06
525.142	6.01
525.34	6
525.539	6.19
525.737	6.15
525.936	6.27
526.135	6.2
526.333	6.26
526.532	6.26
526.73	6.12
526.929	6.13
527.127	6.19
527.326	6.31
527.524	6.39
527.723	6.37
527.921	6.48
528.12	6.51
528.318	6.48
528.516	6.46
528.715	6.54
528.913	6.66
529.112	6.72
529.31	6.67
529.508	6.64
529.707	6.58
529.905	6.54
530.103	6.52
530.301	6.51
530.5	6.6
530.698	6.58
530.896	6.43
531.094	6.34
531.293	6.35
531.491	6.37
531.689	6.43
531.887	6.53
532.085	6.61
532.283	6.54
532.481	6.56
532.68	6.53
532.878	6.61
533.076	6.77
533.274	6.77
533.472	6.74
533.67	6.86
533.868	6.88
534.066	6.86
534.264	6.83
534.462	6.8
534.66	6.79
534.858	6.79
535.056	6.78
535.253	6.78
535.451	6.78
535.649	6.77
535.847	6.73
536.045	6.68
536.243	6.65
536.441	6.76
536.638	6.93
536.836	7.12
537.034	7.17
537.232	7.19
537.43	7.17
537.627	7.17
537.825	7.22
538.023	7.15
538.22	7.14
538.418	7.16
538.616	7.05
538.813	6.89
539.011	6.87
539.209	7.04
539.406	7.22
539.604	7.3
539.801	7.35
539.999	7.37
540.196	7.54
540.394	7.61
540.591	7.68
540.789	7.76
540.986	7.88
541.184	7.9
541.381	7.92
541.579	7.82
541.776	7.82
541.974	7.86
542.171	7.89
542.368	7.81
542.566	7.75
542.763	7.72
542.96	7.72
543.158	7.75
543.355	7.58
543.552	7.42
543.75	7.44
543.947	7.42
544.144	7.42
544.341	7.4
544.539	7.51
544.736	7.7
544.933	7.6
545.13	7.43
545.327	7.33
545.524	7.44
545.722	7.47
545.919	7.46
546.116	7.51
546.313	7.43
546.51	7.58
546.707	7.56
546.904	7.49
547.101	7.6
547.298	7.85
547.495	7.86
547.692	7.71
547.889	7.88
548.086	7.96
548.283	7.93
548.48	7.88
548.677	7.6
548.874	7.55
549.07	7.59
549.267	7.71
549.464	7.59
549.661	7.74
549.858	8.01
550.055	8.01
550.251	7.93
550.448	8.1
550.645	8.35
550.842	8.62
551.038	8.76
551.235	9.05
551.432	9.06
551.628	9.01
551.825	8.76
552.022	8.72
552.218	8.57
552.415	8.71
552.612	9.03
552.808	9.13
553.005	9.1
553.201	9.14
553.398	8.8
553.594	8.81
553.791	8.91
553.987	9.12
554.184	9.31
554.38	9.3
554.577	9.38
554.773	9.03
554.97	9.04
555.166	9.07
555.362	9
555.559	9.11
555.755	9.09
555.952	9.3
556.148	9.62
556.344	9.48
556.541	9.71
556.737	9.65
556.933	9.71
557.129	9.62
557.326	9.62
557.522	9.61
557.718	9.81
557.914	9.95
558.11	9.63
558.307	9.49
558.503	9.67
558.699	9.84
558.895	10.07
559.091	10.27
559.287	10.42
559.483	10.38
559.679	10.71
559.876	10.46
560.072	10.71
560.268	11.38
560.464	11.5
560.66	11.63
560.856	11.49
561.052	11.3
561.247	11.12
561.443	11.17
561.639	11.28
561.835	11.12
562.031	11.4
562.227	11.17
562.423	10.88
562.619	10.79
562.815	10.78
563.01	10.93
563.206	11.04
563.402	11.26
563.598	11.31
563.793	11.5
563.989	11.58
564.185	11.77
564.381	11.9
564.576	11.77
564.772	11.89
564.968	11.94
565.163	12.02
565.359	12.1
565.555	11.94
565.75	12.18
565.946	12.19
566.141	12.5
566.337	12.49
566.532	12.59
566.728	12.81
566.923	12.81
567.119	13.04
567.314	13.01
567.51	13.1
567.705	13.42
567.901	13.39
568.096	13.34
568.292	13.34
568.487	13.37
568.682	13.32
568.878	13.38
569.073	13.38
569.268	13.11
569.464	13.17
569.659	13.34
569.854	13.35
570.05	13.33
570.245	13.49
570.44	13.32
570.635	13.27
570.831	13.29
571.026	13.37
571.221	13.48
571.416	13.67
571.611	13.64
571.806	13.58
572.002	13.42
572.197	13.24
572.392	13.5
572.587	13.68
572.782	13.77
572.977	13.83
573.172	13.71
573.367	13.69
573.562	13.67
573.757	13.85
573.952	13.92
574.147	13.96
574.342	14.2
574.537	14.11
574.732	14.2
574.927	14.11
575.121	14.19
575.316	14.23
575.511	14.22
575.706	14.11
575.901	13.94
576.096	13.74
576.29	13.75
576.485	13.69
576.68	13.46
576.875	13.25
577.069	13.19
577.264	13.15
577.459	13.2
577.654	13.2
577.848	13.3
578.043	13.23
578.238	13.44
578.432	13.47
578.627	13.72
578.821	13.83
579.016	13.86
579.21	13.75
579.405	13.79
579.6	13.75
579.794	13.7
579.989	13.62
580.183	13.59
580.378	13.34
580.572	13.49
580.766	13.3
580.961	13.27
581.155	13.11
581.35	13.25
581.544	13.21
581.738	12.99
581.933	13.15
582.127	13.57
582.321	13.74
582.516	14.13
582.71	13.96
582.904	14.04
583.099	14.15
583.293	14.37
583.487	14.5
583.681	14.5
583.875	15.1
584.07	14.96
584.264	14.58
584.458	14.62
584.652	14.82
584.846	15.27
585.04	15.19
585.234	15.14
585.428	15.03
585.623	15.21
585.817	15.16
586.011	14.93
586.205	14.97
586.399	15.22
586.593	15.3
586.787	15.11
586.981	15.04
587.174	15.26
587.368	15.18
587.562	15.41
587.756	15.38
587.95	15.81
588.144	16.15
588.338	16.29
588.532	16.66
588.725	16.76
588.919	17.13
589.113	17.25
589.307	17.35
589.501	17.62
589.694	17.63
589.888	17.98
590.082	17.9
590.275	17.93
590.469	18.15
590.663	18.04
590.856	18.1
591.05	17.97
591.244	17.88
591.437	17.87
591.631	18.02
591.824	18.12
592.018	17.87
592.212	18.13
592.405	17.89
592.599	17.74
592.792	17.7
592.986	17.47
593.179	17.43
593.372	17.62
593.566	17.71
593.759	17.6
593.953	17.71
594.146	17.85
594.339	17.63
594.533	17.92
594.726	18.52
594.92	18.26
595.113	18.77
595.306	18.95
595.499	18.88
595.693	18.92
595.886	19.13
596.079	19.06
596.272	18.98
596.466	19.32
596.659	19.31
596.852	19
597.045	19.22
597.238	19.31
597.431	19.22
597.624	19.42
597.818	19.46
598.011	19.42
598.204	19.4
598.397	19.54
598.59	19.67
598.783	19.64
598.976	19.57
599.169	19.66
599.362	19.63
599.555	19.69
599.748	19.39
599.941	19.31
600.134	18.97
600.326	19.09
600.519	18.86
600.712	18.62
600.905	18.67
601.098	18.6
601.291	18.68
601.483	18.49
601.676	18.31
601.869	18.49
602.062	18.65
602.255	19.16
602.447	19.12
602.64	19.5
602.833	19.55
603.025	19.55
603.218	19.91
603.411	19.93
603.603	19.9
603.796	20.18
603.989	20.21
604.181	19.98
604.374	20
604.566	20.21
604.759	20.1
604.951	20.01
605.144	20.04
605.336	20.05
605.529	19.81
605.721	19.82
605.914	19.62
606.106	19.66
606.299	19.61
606.491	19.4
606.683	19.19
606.876	19.05
607.068	19.06
607.26	19
607.453	18.74
607.645	19.14
607.837	19.35
608.03	19.51
608.222	19.49
608.414	19.75
608.606	19.47
608.799	19.53
608.991	19.68
609.183	19.69
609.375	19.63
609.567	19.61
609.759	19.58
609.952	19.31
610.144	19.18
610.336	19.16
610.528	19.34
610.72	19.64
610.912	19.42
611.104	19.39
611.296	19.31
611.488	19.3
611.68	19.32
611.872	19.05
612.064	19.09
612.256	19.01
612.448	18.75
612.64	18.49
612.832	18.66
613.023	18.97
613.215	18.71
613.407	18.81
613.599	18.6
613.791	19.01
613.983	19.23
614.174	19.4
614.366	19.44
614.558	19.58
614.75	19.43
614.941	19.48
615.133	19.5
615.325	19.58
615.516	19.42
615.708	19.77
615.9	19.08
616.091	19.13
616.283	19.16
616.475	19.18
616.666	19.47
616.858	19.77
617.049	19.56
617.241	19.74
617.432	20.06
617.624	20.18
617.815	20.24
618.007	20.64
618.198	20.76
618.39	20.9
618.581	20.6
618.773	20.33
618.964	20.54
619.155	20.38
619.347	19.57
619.538	19.28
619.729	19.18
619.921	19.22
620.112	18.91
620.303	18.57
620.494	18.25
620.686	18.83
620.877	18.93
621.068	18.73
621.259	19.16
621.451	19.48
621.642	19.68
621.833	19.79
622.024	20.03
622.215	20.24
622.406	20.56
622.597	20.37
622.788	20.06
622.98	19.77
623.171	19.39
623.362	19.15
623.553	19.55
623.744	19.71
623.935	19.73
624.126	19.5
624.317	19.68
624.508	19.81
624.698	20.08
624.889	20.44
625.08	20.68
625.271	21.17
625.462	20.99
625.653	21.09
625.844	21.1
626.034	21.19
626.225	21.4
626.416	21.32
626.607	21.33
626.798	21.56
626.988	21.56
627.179	22.05
627.37	22.13
627.56	22.29
627.751	22.06
627.942	22.2
628.132	22.16
628.323	22.23
628.514	22.26
628.704	21.89
628.895	21.73
629.085	21.59
629.276	20.94
629.466	20.5
629.657	20.59
629.847	20.75
630.038	20.32
630.228	20.18
630.419	20.13
630.609	20.1
630.8	20.36
630.99	20.29
631.181	20.42
631.371	20.71
631.561	21.15
631.752	20.82
631.942	21.02
632.132	21.28
632.323	21.62
632.513	21.27
632.703	21.22
632.893	21.27
633.084	21.19
633.274	21.13
633.464	20.9
633.654	20.65
633.844	20.84
634.034	20.78
634.225	20.67
634.415	20.72
634.605	20.78
634.795	20.82
634.985	20.72
635.175	20.8
635.365	20.76
635.555	20.85
635.745	21.16
635.935	21.14
636.125	20.78
636.315	20.92
636.505	20.6
636.695	20.79
636.885	20.94
637.075	20.87
637.265	21.06
637.455	21.15
637.644	21.4
637.834	21.17
638.024	21.2
638.214	21.13
638.404	21.26
638.593	21.26
638.783	21.22
638.973	21.1
639.163	21.09
639.352	20.75
639.542	20.71
639.732	20.64
639.921	20.58
640.111	20.14
640.301	20.51
640.49	20.34
640.68	20.35
640.87	19.98
641.059	19.83
641.249	20.07
641.438	20.07
641.628	20.16
641.817	20.32
642.007	20.36
642.196	20.61
642.386	20.78
642.575	20.94
642.764	21.24
642.954	21.65
643.143	21.14
643.333	20.76
643.522	21.16
643.711	21.41
643.901	21.39
644.09	21.04
644.279	20.84
644.469	20.51
644.658	20.36
644.847	20.39
645.036	20.48
645.226	21.74
645.415	21.89
645.604	21.86
645.793	21.13
645.982	20.81
646.171	21.26
646.361	22.14
646.55	22.1
646.739	22.32
646.928	22.13
647.117	22.05
647.306	21.14
647.495	21.4
647.684	21.71
647.873	21.66
648.062	21.98
648.251	21.77
648.44	21.57
648.629	21.74
648.818	21.84
649.007	21.79
649.196	21.69
649.384	21.95
649.573	21.68
649.762	21.51
649.951	21.86
650.14	21.77
650.328	21.89
650.517	21.7
650.706	21.99
650.895	21.77
651.083	22.19
651.272	22.21
651.461	22.33
651.65	22.29
651.838	22.27
652.027	22.27
652.216	22.49
652.404	22.37
652.593	22.74
652.781	22.49
652.97	22.25
653.158	22.07
653.347	22.61
653.535	22.2
653.724	22.3
653.912	22.21
654.101	22.51
654.289	21.93
654.478	22.52
654.666	22.44
654.855	21.97
655.043	22.3
655.231	22.07
655.42	21.4
655.608	21.81
655.796	21.81
655.985	21.51
656.173	21.21
656.361	21.66
656.55	21.21
656.738	20.92
656.926	21.18
657.114	20.92
657.302	21.47
657.491	21.8
657.679	21.65
657.867	21.59
658.055	22.11
658.243	22.4
658.431	22.61
658.619	22.46
658.807	22.55
658.996	23.06
659.184	23.56
659.372	23.03
659.56	22.91
659.748	22.93
659.936	23.43
660.124	23.25
660.311	23.11
660.499	22.61
660.687	23.05
660.875	22.93
661.063	22.32
661.251	22.19
661.439	22.16
661.627	22.47
661.814	22.57
662.002	22.31
662.19	22.45
662.378	22.33
662.565	22.47
662.753	22.7
662.941	22.83
663.129	23.25
663.316	23.02
663.504	22.8
663.692	22.57
663.879	22.44
664.067	22.25
664.254	22.41
664.442	22.74
664.63	23.14
664.817	22.27
665.005	22.16
665.192	21.88
665.38	21.41
665.567	21.83
665.755	21.73
665.942	21.84
666.13	21.7
666.317	21.36
666.504	21.05
666.692	20.58
666.879	20.96
667.067	21.04
667.254	21.35
667.441	21.64
667.629	22.02
667.816	22.42
668.003	22.25
668.19	22.23
668.378	22.34
668.565	22.45
668.752	22.88
668.939	23
669.127	23.36
669.314	22.87
669.501	23.31
669.688	23.03
669.875	22.78
670.062	23.52
670.249	23.59
670.436	23.41
670.623	23.27
670.81	23.33
670.997	22.91
671.184	22.88
671.371	22.97
671.558	22.63
671.745	22.48
671.932	22.69
672.119	21.98
672.306	22.33
672.493	22.5
672.68	22.3
672.867	22.25
673.054	22.33
673.24	22.05
673.427	22.45
673.614	21.93
673.801	22.15
673.988	21.45
674.174	21.72
674.361	21.64
674.548	21.71
674.734	22.09
674.921	22.13
675.108	22.25
675.294	22.08
675.481	21.77
675.668	22.82
675.854	22.56
676.041	22.79
676.227	23.39
676.414	23.3
676.601	23.41
676.787	23.55
676.974	23.18
677.16	23.14
677.347	23.48
677.533	23.95
677.719	23.44
677.906	23.73
678.092	23.81
678.279	23.39
678.465	22.93
678.651	23.22
678.838	23.36
679.024	23.41
679.21	23.59
679.397	23.62
679.583	23.8
679.769	23.98
679.955	24.07
680.142	24.39
680.328	24.48
680.514	24.62
680.7	24.46
680.886	24.71
681.073	24.89
681.259	24.46
681.445	24.43
681.631	24.11
681.817	24.49
682.003	24.35
682.189	24.42
682.375	24.28
682.561	24.49
682.747	24.49
682.933	24.08
683.119	24.26
683.305	25.09
683.491	24.92
683.677	24.85
683.863	24.68
684.049	24.37
684.235	24.08
684.42	24.21
684.606	24.48
684.792	24.16
684.978	24.57
685.164	24.58
685.349	23.47
685.535	23.56
685.721	23.13
685.907	22.66
686.092	23.76
686.278	23.55
686.464	23.73
686.649	23.58
686.835	23.77
687.021	23.83
687.206	23.56
687.392	24.31
687.577	24.59
687.763	25.38
687.948	25.26
688.134	24.42
688.319	24.81
688.505	24.82
688.69	24.68
688.876	25.05
689.061	24.61
689.247	24.51
689.432	23.33
689.618	23.85
689.803	23.84
689.988	24.23
690.174	24.86
690.359	24.67
690.544	24.58
690.73	24.5
690.915	24.19
691.1	24.18
691.285	24.89
691.471	26.08
691.656	25.35
691.841	24.85
692.026	24.71
692.211	23.58
692.396	23.58
692.582	23.89
692.767	23.59
692.952	22.73
693.137	22.97
693.322	22.56
693.507	22.6
693.692	22.82
693.877	23.33
694.062	23.76
694.247	24.61
694.432	24.41
694.617	23.74
694.802	24.76
694.987	24.86
695.172	24.64
695.357	24.84
695.541	25.47
695.726	26.04
695.911	26.18
696.096	25.46
696.281	25.52
696.466	26.02
696.65	26.51
696.835	26.04
697.02	26.68
697.204	27.02
697.389	27.39
697.574	27.06
697.759	27.16
697.943	27.16
698.128	27.46
698.312	27.6
698.497	27.74
698.682	27.99
698.866	28.22
699.051	28.29
699.235	28.3
699.42	27.75
699.604	27.5
699.789	26.8
699.973	26.85
700.158	27.09
700.342	27.12
700.527	26.69
700.711	26.33
700.895	26.51
701.08	27.05
701.264	26.92
701.448	27.19
701.633	27.78
701.817	28.13
702.001	27.94
702.186	28.05
702.37	27.18
702.554	27.18
702.738	27
702.923	26.31
703.107	25.42
703.291	26.32
703.475	26.2
703.659	25.74
703.843	25.6
704.027	25.67
704.212	25.08
704.396	25.23
704.58	25.65
704.764	25.12
704.948	25.8
705.132	25.81
705.316	25.41
705.5	25.12
705.684	25.67
705.868	26.2
706.052	26.97
706.235	26.86
706.419	28.14
706.603	27.67
706.787	27.56
706.971	27.46
707.155	27.26
707.339	27.31
707.522	27.12
707.706	26.52
707.89	26.26
708.074	25.35
708.257	25.54
708.441	24.63
708.625	25.2
708.808	25.01
708.992	24.2
709.176	24.45
709.359	23.49
709.543	24.01
709.727	24.42
709.91	24.59
710.094	24.87
710.277	24.67
710.461	24.2
710.644	23.16
710.828	24.82
711.011	25.37
711.195	25.49
711.378	25.15
711.562	25.51
711.745	24.9
711.928	23.68
712.112	23.28
712.295	23.61
712.478	24.44
712.662	24.94
712.845	23.59
713.028	24.37
713.212	24.5
713.395	25.18
713.578	24.46
713.761	24.94
713.945	26.18
714.128	25.91
714.311	25.56
714.494	24.25
714.677	24.71
714.86	25.68
715.043	24.46
715.227	24.89
715.41	25.4
715.593	26.37
715.776	26.95
715.959	26.44
716.142	27.83
716.325	28.38
716.508	29.19
716.691	29.01
716.874	28.7
717.057	29.01
717.239	28.44
717.422	27.34
717.605	27.29
717.788	26.13
717.971	26.59
718.154	25.66
718.337	25.85
718.519	26.44
718.702	25.84
718.885	25.75
719.068	25.82
719.25	25.43
719.433	25.55
719.616	24.67
719.798	24.85
719.981	23.94
720.164	23.27
720.346	21.85
720.529	21.01
720.712	21.13
720.894	20.7
721.077	20.54
721.259	21.32
721.442	22.21
721.624	22.97
721.807	23.21
721.989	22.75
722.172	22.86
722.354	24.22
722.537	25.05
722.719	25.5
722.901	26.23
723.084	27.21
723.266	26.43
723.448	26.54
723.631	26.58
723.813	27.19
723.995	28.99
724.178	30.6
724.36	30.38
724.542	29.33
724.724	29.32
724.907	28.05
725.089	28.04
725.271	28.04
725.453	27.02
725.635	26.24
725.817	25.4
725.999	24.56
726.181	23.32
726.364	23.23
726.546	23.77
726.728	23.92
726.91	24.89
727.092	25.09
727.274	25.27
727.456	24.52
727.638	24.98
727.819	25.25
728.001	26.02
728.183	26.54
728.365	27.27
728.547	26.22
728.729	26.44
728.911	26.2
729.093	24.76
729.274	26.24
729.456	27.51
729.638	26.85
729.82	28.36
730.001	27.76
730.183	27.21
730.365	25.95
730.546	27.89
730.728	26.95
730.91	26.15
731.091	26.7
731.273	25.24
731.455	24.63
731.636	24.66
731.818	23.84
731.999	24.19
732.181	24.26
732.362	25.15
732.544	24.87
732.725	24.92
732.907	25.59
733.088	25.29
733.27	25.48
733.451	25.93
733.633	25.97
733.814	25.55
733.995	25.88
734.177	26.51
734.358	25.14
734.539	24.34
734.721	24.84
734.902	24.36
735.083	24.57
735.264	24.32
735.446	23.63
735.627	22.74
735.808	22.22
735.989	21.35
736.17	21.08
736.351	21.95
736.533	23.13
736.714	23.1
736.895	23.64
737.076	23.63
737.257	23.31
737.438	25.13
737.619	26.26
737.8	27.09
737.981	27.94
738.162	26.89
738.343	27.38
738.524	27.17
738.705	26.74
738.886	27.22
739.067	28.37
739.247	28.83
739.428	27.4
739.609	27.16
739.79	26.93
739.971	26.29
740.151	25.63
740.332	24.26
740.513	23.17
740.694	25.46
740.874	25.44
741.055	23.65
741.236	22.71
741.417	22.6
741.597	23.32
741.778	22.9
741.958	22.98
742.139	24.24
742.32	26.11
742.5	26.58
742.681	24.04
742.861	22.61
743.042	22.82
743.222	24.43
743.403	24.79
743.583	23.37
743.764	23.18
743.944	23.19
744.124	23.16
744.305	21.53
744.485	21.26
744.666	20.75
744.846	21.41
745.026	23.59
745.207	21.89
745.387	21.71
745.567	21.43
745.747	21.21
745.928	22.01
746.108	22.62
746.288	24.45
746.468	25.83
746.648	26.99
746.829	27.87
747.009	27.43
747.189	28.66
747.369	29.38
747.549	30.3
747.729	31.21
747.909	31.7
748.089	29.82
748.269	27.87
748.449	27.75
748.629	27.07
748.809	27.28
748.989	26.07
749.169	25.12
749.349	26.46
749.529	26.03
749.709	25.49
749.889	23.67
750.068	23.54
750.248	25.53
750.428	23.95
750.608	24.83
750.788	24.8
750.967	25.98
751.147	26.36
751.327	25.2
751.507	25.37
751.686	24.58
751.866	25.29
752.046	26.98
752.225	24.98
752.405	27.01
752.585	25.56
752.764	24.89
752.944	24.43
753.123	24.39
753.303	24.28
753.482	23.97
753.662	24.44
753.841	22.75
754.021	20.83
754.2	22.35
754.38	22.64
754.559	25.5
754.739	25.45
754.918	25.66
755.097	27.03
755.277	26.39
755.456	26.35
755.635	26.99
755.815	27.25
755.994	28.72
756.173	29.89
756.352	27.6
756.532	26.67
756.711	26.91
756.89	26.38
757.069	24.87
757.248	24.05
757.427	23.87
757.607	24.7
757.786	26.95
757.965	27.08
758.144	25.9
758.323	26.23
758.502	25.42
758.681	25.56
758.86	26.14
759.039	27.21
759.218	28.36
759.397	28.75
759.576	26.51
759.755	26.15
759.934	27.67
760.113	26.9
760.291	28.43
760.47	29.28
760.649	29.21
760.828	26.96
761.007	26.11
761.186	26.66
761.364	27.31
761.543	28.11
761.722	28.99
761.901	27.2
762.079	29.11
762.258	28.79
762.437	28.07
762.615	27.83
762.794	29.33
762.972	29.36
763.151	29.83
763.33	30.38
763.508	30.09
763.687	29.79
763.865	31.42
764.044	30.92
764.222	31.36
764.401	31.17
764.579	31.45
764.758	31.16
764.936	32.2
765.114	30.99
765.293	30.21
765.471	31.57
765.65	30.32
765.828	28.69
766.006	28.53
766.184	27.23
766.363	27.72
766.541	26.79
766.719	26.82
766.898	25.49
767.076	25.88
767.254	26.7
767.432	24.29
767.61	25.18
767.788	24.61
767.967	24.97
768.145	25.16
768.323	26.23
768.501	26.5
768.679	26.21
768.857	26.67
769.035	26.23
769.213	25.27
769.391	26.92
769.569	28.71
769.747	30.02
769.925	29.03
770.103	28.96
770.281	27.97
770.459	27.37
770.636	28.98
770.814	28.07
770.992	27.59
771.17	26.29
771.348	26.54
771.525	23.47
771.703	22.57
771.881	22.29
772.059	22.78
772.236	22.49
772.414	23.35
772.592	22.64
772.769	22.15
772.947	20.05
773.125	18.84
773.302	18.63
773.48	21.05
773.657	21.09
773.835	21.33
774.013	21.57
774.19	17.2
774.368	15.66
774.545	15
774.723	17.43
774.9	21.13
775.077	22.78
775.255	20.36
775.432	17.64
775.61	14.55
775.787	13.76
775.964	13.17
776.142	17.18
776.319	18.94
776.496	17.8
776.674	14.55
776.851	15.98
777.028	16.52
777.205	18.16
777.382	22.11
777.56	26.59
777.737	25.84
777.914	26.35
778.091	28.14
778.268	27.87
778.445	30.98
778.622	31.35
778.8	31.3
778.977	33.2
779.154	31.57
779.331	29.04
779.508	26.58
779.685	26.44
779.862	27.62
780.038	26.06
780.215	25.68
780.392	22.41
780.569	19.94
780.746	18.08
780.923	16.35
781.1	16.8
781.277	17.42
781.453	18.01
781.63	18.9
781.807	19.83
781.984	21.25
782.16	22.19
782.337	24.15
782.514	29.82
782.691	29.66
782.867	28.2
783.044	28.46
783.221	28.98
783.397	28.38
783.574	29.23
783.75	27.83
783.927	24.94
784.103	23.19
784.28	22.22
784.456	20.31
784.633	21.07
784.809	24.24
784.986	25.34
785.162	26.26
785.339	26.87
785.515	29.35
785.692	25.66
785.868	27.58
786.044	27.57
786.221	26.53
786.397	27.26
786.573	29.12
786.749	28.47
786.926	27.9
787.102	26.76
787.278	30.06
787.454	26.66
787.631	28.33
787.807	27.69
787.983	27.8
788.159	30.53
788.335	31.28
788.511	26.86
788.687	27.13
788.863	25.68
789.039	25.28
789.216	20.19
789.392	19.16
789.568	21.62
789.744	23.45
789.919	25.06
790.095	25.74
790.271	24.66
790.447	24.94
790.623	23.66
790.799	25.74
790.975	25.79
791.151	24.51
791.327	27.44
791.502	26.47
791.678	21.25
791.854	19.05
792.03	17.76
792.205	18.16
792.381	19.57
792.557	21.78
792.733	20.84
792.908	17.9
793.084	24.32
793.259	22.84
793.435	23.21
793.611	25.98
793.786	26.19
793.962	24.96
794.137	22.66
794.313	23.25
794.488	18.89
794.664	18.57
794.839	20.72
795.015	17.9
795.19	18.52
795.366	17.51
795.541	14.83
795.716	14.65
795.892	11.37
796.067	12.47
796.242	13.48
796.418	16.96
796.593	19.77
796.768	19.62
796.944	19.12
797.119	19.84
797.294	19.06
797.469	22.37
797.644	25.41
797.82	29.88
797.995	31.58
798.17	27.38
798.345	24.18
798.52	20.84
798.695	21.85
798.87	20.72
799.045	15.41
799.22	15.91
799.395	11.24
799.57	12.35
799.745	10.3
799.92	8.65
800.095	11.88
800.27	12.68
800.445	16.38
800.62	15.49
800.795	15.06
800.97	18.37
801.145	19.27
801.319	22.58
801.494	23.66
801.669	25.79
801.844	25.98
802.018	23.3
802.193	20.77
802.368	19.52
802.543	21.69
802.717	23.67
802.892	24.72
803.067	24.52
803.241	24.12
803.416	16.63
803.59	17
803.765	19.06
803.94	23.49
804.114	26.69
804.289	27.29
804.463	24.6
804.638	22.92
804.812	24.94
804.986	27.85
805.161	30.82
805.335	33.57
805.51	33.06
805.684	32.72
805.858	34.85
806.033	36.44
806.207	34.3
806.381	34.77
806.556	35.02
806.73	33.99
806.904	32.44
807.078	26.18
807.253	24.26
807.427	25.29
807.601	20.32
807.775	19.47
807.949	24.73
808.123	21.43
808.298	23.23
808.472	22.79
808.646	23.48
808.82	20.25
808.994	24.52
809.168	23.92
809.342	17.93
809.516	21.55
809.69	21.71
809.864	11.17
810.038	12.11
810.212	14.17
810.385	15.96
810.559	14.1
810.733	14.76
810.907	14.53
811.081	17.92
811.255	18.69
811.428	21.28
811.602	22.42
811.776	27.63
811.95	30.67
812.123	25.27
812.297	29.51
812.471	33.13
812.644	34.4
812.818	34.09
812.992	28.61
813.165	31.51
813.339	32.44
813.512	33.06
813.686	26.48
813.86	29.83
814.033	30.93
814.207	30.86
814.38	31.82
814.554	36.56
814.727	37.95
814.9	42.64
815.074	44.3
815.247	42.18
815.421	41.07
815.594	48.9
815.767	49.83
815.941	56
816.114	56.11
816.287	50.63
816.46	47.5
816.634	43.18
816.807	41.15
816.98	36.32
817.153	37.43
817.327	35.78
817.5	30.77
817.673	33.83
817.846	31.59
818.019	23.95
818.192	26.24
818.365	18.52
818.538	20.27
818.711	18.3
818.884	20.64
819.057	20.65
819.23	20.35
819.403	20.47
819.576	14.36
819.749	13.73
819.922	18.45
820.095	17.57
820.268	20.98
820.441	21.75
820.614	25.02
820.786	27.17
820.959	25
821.132	25.09
821.305	28.38
821.477	29.45
821.65	30.76
821.823	31.73
821.996	33.9
822.168	33.17
822.341	31.93
822.514	32.41
822.686	31.31
822.859	34.08
823.031	34.61
823.204	33.61
823.376	34.16
823.549	34.51
823.722	34.44
823.894	33.13
824.067	33.73
824.239	34.58
824.411	33.46
824.584	33.81
824.756	31.87
824.929	31.41
825.101	33.47
825.273	31.64
825.446	30.72
825.618	29.62
825.79	29.88
825.963	30.7
826.135	29.93
826.307	30.62
826.479	31.21
826.652	31.44
826.824	32.1
826.996	31.06
827.168	31.32
827.34	29.69
827.512	30.62
827.684	29.45
827.856	28.72
828.029	29.47
828.201	28.34
828.373	28.64
828.545	28.32
828.717	28.1
828.889	25.26
829.061	22.39
829.232	22.76
829.404	20.29
829.576	22.16
829.748	22.02
829.92	22.99
830.092	22.51
830.264	20.32
830.436	16.17
830.607	15.89
830.779	17.3
830.951	21.77
831.123	26.05
831.294	28.89
831.466	25.17
831.638	25.82
831.809	22.1
831.981	23.03
832.153	24.81
832.324	27.95
832.496	24.2
832.667	26.68
832.839	26.38
833.011	22.33
833.182	22.06
833.354	27.96
833.525	26.24
833.697	26.92
833.868	31
834.039	30.07
834.211	26.32
834.382	27.2
834.554	26.25
834.725	26.64
834.896	26.31
835.068	24.3
835.239	21.74
835.41	20.92
835.581	24.47
835.753	22.06
835.924	21.81
836.095	27.22
836.266	26.63
836.438	27.31
836.609	22.86
836.78	22.05
836.951	26.09
837.122	27.25
837.293	24.43
837.464	17.55
837.635	12.59
837.806	12.18
837.977	6.54
838.148	7.47
838.319	6.68
838.49	7.86
838.661	6.41
838.832	1.99
839.003	-5.11
839.174	2.07
839.345	5.68
839.516	9.5
839.687	6.12
839.857	6.54
840.028	-1.32
840.199	-6.83
840.37	-1.29
840.54	3.96
840.711	2.43
840.882	9.91
841.053	8.09
841.223	8.3
841.394	10.6
841.564	15.05
841.735	20.6
841.906	26.3
842.076	28.27
842.247	28.85
842.417	26.31
842.588	31.96
842.758	31.68
842.929	28.76
843.099	41.17
843.27	25.23
843.44	23.3
843.611	12.72
843.781	18.35
843.951	25.65
844.122	31.73
844.292	26.98
844.462	13
844.633	10.76
844.803	3.17
844.973	-8.31
845.144	8.94
845.314	15.11
845.484	22.57
845.654	32.99
845.824	25.77
845.995	8.42
846.165	19.66
846.335	27.86
846.505	29.11
846.675	35.1
846.845	25.83
847.015	26.51
847.185	20.97
847.355	21.81
847.525	1.45
847.695	-6.3
847.865	6.11
848.035	-9.39
848.205	-1.88
848.375	-9.91
848.545	12.81
848.715	22.4
848.884	40.31
849.054	17.25
849.224	9.39
849.394	39.4
849.564	19.27
849.733	17.83
849.903	39.8
850.073	8.2
850.243	17.04
850.412	-13.21
850.582	8.32
850.752	-14.45
850.921	-11.77
851.091	-12.16
851.26	-18.91
851.43	-12.59
851.599	-1.29
851.769	-23.39
851.939	5.2
852.108	-3.66
852.278	-13.51
852.447	-22.86
852.616	-0.31
852.786	13.45
852.955	24.84
853.125	11.26
853.294	6.48
853.463	3.55
853.633	-25.13
853.802	-36.74
853.971	7.62
854.141	16
854.31	-3.39
854.479	-9.47
854.648	5.41
854.818	19.14
854.987	12.93
855.156	26.83
855.325	26.74
855.494	47
855.663	46.71
855.832	36.96
856.001	27.77
856.171	36.53
856.34	36.22
856.509	26.64
856.678	-6.55
856.847	8.68
857.016	19.62
857.185	10.9
857.353	13.83
857.522	14.83
857.691	-6.94
857.86	2.3
858.029	9.26
858.198	11.43
858.367	5.19
858.535	9.49
858.704	24.53
858.873	9.03
859.042	7.92
859.21	5.54
859.379	6.86
859.548	8.14
859.717	5.51
859.885	-3.35
860.054	-8.62
860.222	-14.62
860.391	-13.34
860.56	-29.99
860.728	-18.9
860.897	-7.18
861.065	-0.92
861.234	-3.51
861.402	0.32
861.571	11.8
861.739	20.75
861.908	16.39
862.076	11.08
862.244	3.49
862.413	-2.79
862.581	-2.43
862.749	-1.15
862.918	-17.71
863.086	-35.31
863.254	-55.9
863.423	-261.64
863.591	-423.25
863.759	-116.54
863.927	-55.64
864.096	-19.43
864.264	-37.53
864.432	-25.04
864.6	-36.52
864.768	-45.88
864.936	-33.5
865.104	-48.15
865.272	-86.23
865.44	-188.34
865.608	-625.08
865.776	-974.96
865.944	-465.49
866.112	-5996.34
866.28	-353.54
866.448	-1713.45
866.616	-165.19
866.784	-519.44
866.952	-285.75
867.12	-39.76
867.288	-42.73
867.455	-30.23
867.623	-43.05
867.791	-71.58
867.959	-66.02
868.127	-57.22
868.294	-42.85
868.462	-47.07
868.63	-17.09
868.797	-11.74
868.965	-32.9
869.133	4.18
869.3	9.97
869.468	7.71
869.636	29.6
869.803	43.32
869.971	43.37
870.138	57.64
870.306	71.19
870.473	51.61
870.641	41.79
870.808	46.35
870.975	9.96
871.143	10.96
871.31	24.35
871.478	11.26
871.645	-2.51
871.812	-20.28
871.98	-26.19
872.147	-18.09
872.314	-10.02
872.482	5.53
872.649	20.74
872.816	33.74
872.983	25.08
873.15	20.96
873.318	17.99
873.485	11.8
873.652	5.59
873.819	1.03
873.986	11.78
874.153	5.54
874.32	1.91
874.487	-33.3
874.654	-68.54
874.821	-60.62
874.988	-130.45
875.155	-122.25
875.322	-519.14
875.489	-330.43
875.656	-252.85
875.823	-742.62
875.99	-1391.29
876.157	683.79
876.324	932.6
876.49	-1580.92
876.657	-217.19
876.824	-60.41
876.991	-82.95
877.157	-37.37
877.324	-10.38
877.491	3.46
877.658	38.76
877.824	48.93
877.991	94.31
878.157	71.81
878.324	82.3
878.491	83.87
878.657	40.12
878.824	68.79
878.99	39.29
879.157	45.41
879.323	59.78
879.49	37.08
879.656	9.69
879.823	-0.24
879.989	-2.53
880.156	12.04
880.322	25.4
880.488	29.46
880.655	21.86
880.821	15.7
880.987	15.52
881.154	2.38
881.32	8.29
881.486	17.7
881.652	22.57
881.819	23.75
881.985	21.1
882.151	15.98
882.317	16.67
882.483	22.89
882.649	30.77
882.816	28.73
882.982	32.71
883.148	30.28
883.314	29.68
883.48	26.53
883.646	27.31
883.812	27.94
883.978	31.37
884.144	33.54
884.31	33.78
884.476	32.16
884.642	29.45
884.807	26.94
884.973	24.37
885.139	25.64
885.305	30.11
885.471	27.77
885.637	23.6
885.802	27.9
885.968	15.84
886.134	7.48
886.3	7.66
886.465	14.39
886.631	15.1
886.797	21.7
886.962	14.61
887.128	7.72
887.293	13.85
887.459	16.66
887.625	9.02
887.79	22.62
887.956	29.76
888.121	28.07
888.287	22.36
888.452	14.14
888.618	15.97
888.783	29.69
