Data from 2937821_Reflection_2.txt Node
Date: Wed Jul 15 17:18:13 EDT 2015
User: robert
Spectrometer: USB4E03001
Autoset integration time: false
Trigger mode: 4
Integration Time (sec): 1.000000E-1
Scans to average: 10
Electric dark correction enabled: true
Nonlinearity correction enabled: false
Boxcar width: 5
Stray light correction enabled: false
XAxis mode: Wavelengths
Stop averaging: false
Number of Pixels in Spectrum: 3648
>>>>>Begin Spectral Data<<<<<
177.566	31.34
177.785	41.86
178.005	17.72
178.225	42.36
178.445	106.76
178.665	-9.26
178.885	284.83
179.105	79.59
179.324	129.61
179.544	71.18
179.764	54.52
179.984	40.23
180.204	64.13
180.423	112.43
180.643	85.22
180.863	105.39
181.083	560.08
181.302	193.95
181.522	281.1
181.742	240.33
181.961	289.39
182.181	825.4
182.401	727.22
182.621	412.78
182.84	215.83
183.06	251.36
183.279	289.07
183.499	298.17
183.719	377.54
183.938	631.84
184.158	375.41
184.377	295.16
184.597	116.24
184.816	21.79
185.036	279.14
185.256	94.33
185.475	78.69
185.695	79.78
185.914	92.36
186.134	85.24
186.353	68.73
186.572	35.91
186.792	-3.97
187.011	-51.38
187.231	-93.47
187.45	-1070.04
187.67	2471.03
187.889	268.71
188.108	243.11
188.328	190.3
188.547	102.83
188.766	110.36
188.986	132.94
189.205	105.43
189.424	82.14
189.644	94.32
189.863	140.35
190.082	188.37
190.302	-3116.44
190.521	140.4
190.74	187.36
190.959	384.39
191.178	-57.19
191.398	-202.25
191.617	-393.54
191.836	-90.84
192.055	13.64
192.274	-135.11
192.494	84.09
192.713	94.8
192.932	-20.96
193.151	0.48
193.37	-251.91
193.589	-2739.29
193.808	2514.75
194.027	219.46
194.246	208.99
194.465	2155.26
194.685	656.22
194.904	2629.43
195.123	-1474.69
195.342	-1133.41
195.561	860.2
195.78	-139.08
195.999	-318.37
196.218	-1781.48
196.436	10488.64
196.655	5145.83
196.874	148.82
197.093	453.69
197.312	363.09
197.531	112.68
197.75	59.33
197.969	94.03
198.188	160.09
198.407	129.04
198.625	79.94
198.844	93.49
199.063	96.16
199.282	267.77
199.501	269.1
199.719	149.77
199.938	436.7
200.157	224.66
200.376	490.74
200.594	88.59
200.813	99.74
201.032	184.07
201.251	1636.21
201.469	-89.87
201.688	88.82
201.907	110.43
202.125	-1.22
202.344	-1.16
202.563	-49.68
202.781	-52.91
203	-24.12
203.218	-122.9
203.437	-27.08
203.656	9.06
203.874	3.33
204.093	3.05
204.311	-19.47
204.53	-184.37
204.748	-104.6
204.967	-162.86
205.185	197.1
205.404	-270.24
205.622	15.23
205.841	7.39
206.059	-564.65
206.278	90.29
206.496	60.19
206.715	-245.22
206.933	516.44
207.151	-48.59
207.37	573.12
207.588	209.42
207.806	575.88
208.025	495.95
208.243	-67.18
208.461	-11.63
208.68	-401.23
208.898	232.1
209.116	2414.29
209.335	564.59
209.553	168.16
209.771	287.97
209.989	-45.75
210.208	209.98
210.426	10.54
210.644	409.59
210.862	608.35
211.081	85.58
211.299	61.35
211.517	68.91
211.735	21.99
211.953	-406.25
212.171	219.25
212.39	79.21
212.608	267.94
212.826	365.81
213.044	-170.79
213.262	-129.89
213.48	-23.05
213.698	-26.04
213.916	-193.05
214.134	-146.78
214.352	-49.91
214.57	5.56
214.788	-10.3
215.006	-63.55
215.224	-63.5
215.442	-20.65
215.66	29.16
215.878	2.76
216.096	4.86
216.314	1.25
216.532	42.41
216.75	19.31
216.968	-28.06
217.185	-83.34
217.403	-34.82
217.621	38.06
217.839	-209.64
218.057	-315.08
218.275	1529.41
218.492	232.97
218.71	166.32
218.928	594.78
219.146	-1863.1
219.363	-182.15
219.581	-144.03
219.799	-87.89
220.017	-180.42
220.234	-187.88
220.452	-517.99
220.67	-76.31
220.887	-36.85
221.105	-74.8
221.323	-213.73
221.54	2436.42
221.758	143.9
221.976	168.8
222.193	55.01
222.411	32.36
222.629	-35.14
222.846	-508.52
223.064	-147.98
223.281	-165.58
223.499	45.37
223.716	33.99
223.934	44.12
224.151	25.06
224.369	34.94
224.586	30.17
224.804	27.55
225.021	24.07
225.239	36.86
225.456	21.66
225.674	26.51
225.891	21.53
226.108	36.41
226.326	25.93
226.543	52.41
226.76	39.89
226.978	27.05
227.195	12.04
227.413	16.38
227.63	14.94
227.847	18.64
228.064	25.11
228.282	23.37
228.499	23.07
228.716	25.24
228.934	20.86
229.151	18.55
229.368	22.73
229.585	30.18
229.802	34.31
230.02	36.14
230.237	34.66
230.454	27.32
230.671	28.2
230.888	26.33
231.105	28.46
231.323	29.45
231.54	32.03
231.757	28.27
231.974	19.54
232.191	5.72
232.408	6.31
232.625	8.52
232.842	10.64
233.059	9.05
233.276	12.66
233.493	10.34
233.71	9.45
233.927	5.23
234.144	6.85
234.361	8.56
234.578	21.93
234.795	17.05
235.012	12.89
235.229	22.14
235.446	19.93
235.663	13.88
235.879	13.12
236.096	16.99
236.313	24.8
236.53	28.86
236.747	32.78
236.964	24.36
237.181	32.88
237.397	27.22
237.614	23.24
237.831	15.26
238.048	23.8
238.264	24.97
238.481	25.29
238.698	17.91
238.915	16.41
239.131	12.06
239.348	15.5
239.565	6.8
239.781	13.97
239.998	16.8
240.215	24.83
240.431	17.72
240.648	14.48
240.865	11.24
241.081	14.02
241.298	12.84
241.514	16.17
241.731	16.48
241.947	17.62
242.164	16.99
242.38	16.52
242.597	15.96
242.814	15.62
243.03	16.28
243.246	16.14
243.463	16.15
243.679	19.28
243.896	21.08
244.112	22.44
244.329	22.8
244.545	22.78
244.762	22.92
244.978	21.63
245.194	23.46
245.411	21.99
245.627	22.66
245.843	21.34
246.06	18.75
246.276	17.32
246.492	16.54
246.709	16.86
246.925	16.32
247.141	17.3
247.357	17.45
247.574	17.57
247.79	18.46
248.006	17.52
248.222	17.56
248.439	18.06
248.655	17.23
248.871	17.26
249.087	16.46
249.303	17.33
249.519	18.51
249.736	19.12
249.952	18.93
250.168	18.69
250.384	18.19
250.6	16.47
250.816	15.05
251.032	16.81
251.248	15.68
251.464	16.65
251.68	17.89
251.896	15.55
252.112	14.81
252.328	14.13
252.544	13.55
252.76	15.4
252.976	18.47
253.192	16.53
253.408	15.93
253.624	16.88
253.84	17.17
254.056	15.09
254.272	13.49
254.487	14.3
254.703	12.53
254.919	13.28
255.135	15.23
255.351	11.64
255.567	13.88
255.782	13.48
255.998	14.89
256.214	14.69
256.43	15.41
256.646	15.24
256.861	13.97
257.077	17.28
257.293	15.43
257.508	14.98
257.724	15.55
257.94	15.96
258.155	13.72
258.371	13.27
258.587	12.17
258.802	11.62
259.018	11.42
259.234	11.48
259.449	10.22
259.665	10.67
259.88	9.84
260.096	10.43
260.312	10.2
260.527	10.77
260.743	11.2
260.958	10.84
261.174	10.73
261.389	10.63
261.605	11.25
261.82	10.4
262.036	11.17
262.251	12.07
262.466	11.4
262.682	11.53
262.897	10.87
263.113	8.24
263.328	10.23
263.543	11.08
263.759	11.41
263.974	9.31
264.189	12.02
264.405	11.83
264.62	11.33
264.835	11.81
265.051	12.15
265.266	12.09
265.481	13.36
265.696	10.01
265.912	9.5
266.127	9.78
266.342	11.06
266.557	11.29
266.773	10.8
266.988	8.31
267.203	7.37
267.418	8.07
267.633	8.36
267.848	9.15
268.064	9.79
268.279	10.5
268.494	9.9
268.709	11.13
268.924	12
269.139	13.71
269.354	15.49
269.569	15.22
269.784	13.54
269.999	16.39
270.214	16.12
270.429	17.04
270.644	16.79
270.859	16.43
271.074	14.27
271.289	12.69
271.504	10.47
271.719	12.14
271.934	11.97
272.149	11.78
272.363	10.4
272.578	10.11
272.793	9.26
273.008	9.1
273.223	9.73
273.438	10.22
273.653	11.45
273.867	9.28
274.082	7.84
274.297	6.99
274.512	8.18
274.726	8.32
274.941	8.53
275.156	9.59
275.371	10.11
275.585	9.84
275.8	10.53
276.015	9.35
276.229	13.77
276.444	13.66
276.659	14.71
276.873	12.03
277.088	10.73
277.302	11.29
277.517	9.27
277.732	6.75
277.946	5.09
278.161	3.14
278.375	4.1
278.59	3.01
278.804	2.88
279.019	3.07
279.233	3.97
279.448	3.78
279.662	3.16
279.877	6.03
280.091	9.28
280.306	10.99
280.52	12.13
280.735	12.83
280.949	11.84
281.163	11.38
281.378	11.65
281.592	11.82
281.806	11.63
282.021	12.24
282.235	11.41
282.449	10.63
282.664	9.87
282.878	10.34
283.092	9.85
283.307	9.89
283.521	11.12
283.735	11.52
283.949	11.96
284.164	12.28
284.378	10.98
284.592	11.67
284.806	11.52
285.02	13.59
285.234	12.77
285.449	11.34
285.663	11.56
285.877	11.5
286.091	11.35
286.305	11.98
286.519	12.64
286.733	12.74
286.947	11.66
287.161	10.65
287.375	9.7
287.589	9.43
287.803	10.52
288.017	10.7
288.231	11.21
288.445	11.04
288.659	12.01
288.873	11.5
289.087	10.51
289.301	11.21
289.515	12.34
289.729	11.42
289.943	11.57
290.157	12.86
290.371	12.99
290.584	11.87
290.798	13.61
291.012	13.86
291.226	13.39
291.44	14.63
291.654	15.32
291.867	15.46
292.081	16.51
292.295	18.49
292.509	17.71
292.722	18.5
292.936	17.22
293.15	16.79
293.364	15.16
293.577	16.29
293.791	17.54
294.005	17.1
294.218	16.68
294.432	14.84
294.645	13.64
294.859	13.13
295.073	12.89
295.286	14.27
295.5	13.4
295.713	14.34
295.927	14.67
296.14	13.45
296.354	13.75
296.568	14.28
296.781	15.32
296.994	15.48
297.208	16.78
297.421	17.06
297.635	16.83
297.848	17.28
298.062	17.34
298.275	17.08
298.489	16.65
298.702	16.71
298.915	15.94
299.129	15.62
299.342	16.37
299.555	15.32
299.769	14.56
299.982	14.87
300.195	15.23
300.409	15.47
300.622	16.73
300.835	16.58
301.048	17.18
301.262	18.07
301.475	18.42
301.688	17.45
301.901	17.39
302.115	16.61
302.328	15.9
302.541	15.39
302.754	14.23
302.967	11.97
303.18	14.4
303.393	13.63
303.607	13.98
303.82	13.69
304.033	13.82
304.246	13.67
304.459	14.57
304.672	15.11
304.885	13.66
305.098	14.74
305.311	15.71
305.524	14.3
305.737	13.63
305.95	13.81
306.163	15.33
306.376	14.31
306.589	14.42
306.802	14.02
307.015	15.71
307.228	15.44
307.44	14.26
307.653	15.39
307.866	17.67
308.079	18.66
308.292	18.89
308.505	19.04
308.718	20.01
308.93	19.37
309.143	19.28
309.356	18.77
309.569	18.98
309.781	19.41
309.994	19.25
310.207	17.43
310.42	16.88
310.632	15.96
310.845	14.2
311.058	14.02
311.27	13.29
311.483	13.86
311.696	13.01
311.908	13.91
312.121	13.24
312.333	11.64
312.546	11.88
312.759	11.24
312.971	10.31
313.184	11.15
313.396	10.91
313.609	11.39
313.821	10.21
314.034	10.86
314.246	10.73
314.459	10.24
314.671	11.96
314.884	10.1
315.096	10.31
315.309	11.21
315.521	10.96
315.733	10.55
315.946	10.58
316.158	11.86
316.371	11.29
316.583	11.54
316.795	11.51
317.008	10.81
317.22	11.33
317.432	11.82
317.644	11.83
317.857	11.4
318.069	11.31
318.281	12.23
318.494	10.36
318.706	11.4
318.918	12.66
319.13	13.59
319.342	13.07
319.555	13.63
319.767	14.64
319.979	13.56
320.191	13.27
320.403	12.12
320.615	13.32
320.827	14.46
321.039	13.12
321.252	12.2
321.464	12.01
321.676	12.16
321.888	11.65
322.1	10.1
322.312	10.44
322.524	11.84
322.736	13.93
322.948	11.83
323.16	12.81
323.372	13.69
323.584	12.9
323.796	12.19
324.007	13
324.219	13.34
324.431	14.16
324.643	14.12
324.855	13.5
325.067	13.95
325.279	15.02
325.491	15.01
325.702	14.38
325.914	15.54
326.126	16.56
326.338	16.23
326.55	17.35
326.761	17.37
326.973	19.16
327.185	19.63
327.396	19.61
327.608	19.01
327.82	17.5
328.032	17.51
328.243	15.43
328.455	14.23
328.666	14.57
328.878	14.73
329.09	14.16
329.301	13.66
329.513	11.98
329.725	9.32
329.936	10.75
330.148	11.31
330.359	10.81
330.571	12.18
330.782	13.65
330.994	13.16
331.205	12.82
331.417	13.93
331.628	13.54
331.84	13.52
332.051	16.57
332.262	15.63
332.474	16.82
332.685	18.22
332.897	17.29
333.108	17.75
333.319	18.41
333.531	17.35
333.742	16.73
333.953	15.7
334.165	17.41
334.376	16.58
334.587	16.74
334.799	16.51
335.01	15.33
335.221	15.66
335.432	13.73
335.644	13.4
335.855	14.26
336.066	14.5
336.277	15.64
336.488	16.48
336.7	16.34
336.911	16.77
337.122	17.5
337.333	18.11
337.544	18.74
337.755	20.17
337.966	19.18
338.177	19.59
338.388	19.61
338.599	19.2
338.811	17.13
339.022	17.83
339.233	16.69
339.444	15.65
339.655	17.15
339.866	17.22
340.076	17.18
340.287	17.98
340.498	16.64
340.709	15.57
340.92	16.48
341.131	16.74
341.342	17.06
341.553	18.43
341.764	18.48
341.975	16.33
342.185	16
342.396	15.92
342.607	16.06
342.818	17.32
343.029	18.65
343.239	17.81
343.45	18.43
343.661	17.87
343.872	18.26
344.082	17.44
344.293	17.96
344.504	17.7
344.714	16.09
344.925	17.09
345.136	17.53
345.346	16.63
345.557	15.67
345.768	14.55
345.978	14
346.189	13.92
346.399	13.47
346.61	13.66
346.821	13.72
347.031	15
347.242	13.89
347.452	13.04
347.663	14.63
347.873	16.49
348.084	17.58
348.294	18.31
348.504	16.67
348.715	17.41
348.925	16.99
349.136	17
349.346	17.72
349.557	18.08
349.767	16.79
349.977	15.94
350.188	14.68
350.398	14.46
350.608	12.84
350.819	13.68
351.029	13.66
351.239	14.59
351.449	14.46
351.66	12.42
351.87	12.18
352.08	11.56
352.29	10.6
352.501	10.75
352.711	11.56
352.921	11.38
353.131	10.82
353.341	11.48
353.552	10.5
353.762	11.22
353.972	11.61
354.182	11.16
354.392	12.86
354.602	12.54
354.812	13.14
355.022	13.29
355.232	13.32
355.442	13.72
355.652	13.28
355.862	13.71
356.072	12.44
356.282	13.75
356.492	14.4
356.702	14.52
356.912	15.58
357.122	15.3
357.332	15.1
357.542	16.42
357.752	16.82
357.962	17.46
358.171	16.98
358.381	17.4
358.591	17.6
358.801	16.3
359.011	15.7
359.221	15.36
359.43	15.32
359.64	15.56
359.85	14.3
360.06	14.25
360.269	13.44
360.479	13.47
360.689	13.48
360.899	13.02
361.108	13.76
361.318	13.76
361.528	14.64
361.737	14.37
361.947	13.52
362.156	14.51
362.366	13.85
362.576	14.22
362.785	14.32
362.995	14.06
363.204	13.79
363.414	13.39
363.623	13.75
363.833	12.99
364.042	13.38
364.252	14.09
364.461	12.81
364.671	12.57
364.88	12.16
365.09	12.01
365.299	12.22
365.509	11.67
365.718	11.7
365.927	10.94
366.137	10.53
366.346	9.56
366.555	9.26
366.765	9.84
366.974	10.45
367.183	11.34
367.393	10.68
367.602	11.08
367.811	11.52
368.021	11.81
368.23	11.93
368.439	11.37
368.648	12.38
368.857	12.46
369.067	11.88
369.276	12.09
369.485	10.39
369.694	10.48
369.903	10.43
370.112	10.17
370.321	9.99
370.531	9.9
370.74	10.57
370.949	10.82
371.158	10.47
371.367	11.12
371.576	11.24
371.785	11.02
371.994	11.75
372.203	12.1
372.412	12.92
372.621	12.55
372.83	12.84
373.039	12.49
373.248	11.61
373.457	11.88
373.666	12.03
373.874	11.37
374.083	12.09
374.292	12.32
374.501	11.54
374.71	11.01
374.919	11.13
375.128	11.14
375.336	11.6
375.545	11.92
375.754	11.63
375.963	11.35
376.171	11.96
376.38	12.25
376.589	12.35
376.798	12.44
377.006	12.18
377.215	12.54
377.424	12.42
377.632	12.51
377.841	12.27
378.05	12.74
378.258	12.73
378.467	12.57
378.675	12.53
378.884	11.9
379.093	12.2
379.301	12.37
379.51	12.13
379.718	12.54
379.927	12.17
380.135	12.25
380.344	11.78
380.552	11.84
380.761	11.3
380.969	10.8
381.177	10.65
381.386	10.42
381.594	9.83
381.803	9.99
382.011	9.77
382.219	9.6
382.428	9.53
382.636	9.41
382.845	9.11
383.053	8.88
383.261	9.45
383.469	9.81
383.678	9.99
383.886	9.91
384.094	9.19
384.302	8.8
384.511	8.66
384.719	8.64
384.927	8.67
385.135	8.36
385.343	8.29
385.552	7.84
385.76	8
385.968	7.54
386.176	7.92
386.384	8.47
386.592	8.74
386.8	9.37
387.008	9.2
387.216	9.64
387.424	9.26
387.633	9.57
387.841	9.29
388.049	8.54
388.257	8.47
388.465	8.61
388.672	8.76
388.88	8.61
389.088	7.59
389.296	7.68
389.504	7.16
389.712	7.46
389.92	7.41
390.128	7.42
390.336	7.47
390.544	7.27
390.751	6.92
390.959	6.55
391.167	6.54
391.375	6.67
391.583	6.46
391.79	6.59
391.998	6.88
392.206	6.52
392.414	6.37
392.621	6.53
392.829	6.52
393.037	7.2
393.244	7.29
393.452	7.21
393.66	7.18
393.867	6.94
394.075	6.84
394.283	6.59
394.49	6.78
394.698	7.07
394.905	7.15
395.113	7.23
395.32	6.43
395.528	6.47
395.735	6.36
395.943	6.59
396.15	6.78
396.358	6.55
396.565	6.45
396.773	6.36
396.98	6.09
397.188	5.91
397.395	5.74
397.602	6.11
397.81	6.35
398.017	6.36
398.225	6.32
398.432	6.57
398.639	6.68
398.847	7.08
399.054	6.99
399.261	7.04
399.468	6.75
399.676	6.91
399.883	6.71
400.09	6.21
400.297	6.41
400.505	6.18
400.712	6.26
400.919	6.2
401.126	5.81
401.333	5.88
401.54	6
401.748	6.04
401.955	5.97
402.162	5.91
402.369	6.19
402.576	6.02
402.783	6.18
402.99	5.97
403.197	6.17
403.404	6.07
403.611	6.13
403.818	6.28
404.025	6.46
404.232	6.65
404.439	6.56
404.646	6.23
404.853	6.2
405.06	6.44
405.267	6.42
405.474	6.34
405.681	6.49
405.887	6.57
406.094	6.53
406.301	6.52
406.508	6.25
406.715	6.54
406.922	6.71
407.128	6.82
407.335	6.63
407.542	6.49
407.749	6.66
407.955	7.04
408.162	7.03
408.369	6.98
408.575	7.19
408.782	7.47
408.989	7.2
409.195	7.14
409.402	6.88
409.609	6.9
409.815	6.73
410.022	6.63
410.228	6.61
410.435	6.38
410.642	6.34
410.848	6.36
411.055	6.34
411.261	6.43
411.468	6.6
411.674	6.68
411.881	6.36
412.087	6.65
412.294	6.57
412.5	6.01
412.706	5.97
412.913	5.69
413.119	5.42
413.326	5.66
413.532	5.67
413.738	5.52
413.945	5.47
414.151	5.43
414.357	5.6
414.564	5.58
414.77	5.94
414.976	6.16
415.182	6.49
415.389	6.25
415.595	5.88
415.801	5.68
416.007	5.5
416.214	5.4
416.42	5.85
416.626	5.91
416.832	6.01
417.038	5.82
417.244	5.61
417.45	5.52
417.657	5.64
417.863	5.68
418.069	5.75
418.275	5.96
418.481	6.16
418.687	6
418.893	5.83
419.099	5.63
419.305	5.71
419.511	5.76
419.717	5.81
419.923	5.8
420.129	5.82
420.335	5.94
420.541	5.84
420.746	5.81
420.952	5.8
421.158	5.89
421.364	6.08
421.57	5.92
421.776	6.1
421.982	6.1
422.187	6.21
422.393	6.18
422.599	6.18
422.805	6.26
423.01	6.16
423.216	6.16
423.422	6.03
423.628	5.97
423.833	6.15
424.039	5.93
424.245	5.76
424.45	5.67
424.656	5.67
424.862	5.64
425.067	5.64
425.273	5.67
425.478	5.6
425.684	5.72
425.889	5.76
426.095	5.67
426.301	5.82
426.506	5.86
426.712	5.87
426.917	5.96
427.123	5.88
427.328	5.82
427.533	5.92
427.739	5.91
427.944	5.75
428.15	5.67
428.355	5.54
428.561	5.42
428.766	5.3
428.971	5.53
429.177	5.46
429.382	5.53
429.587	5.56
429.793	5.51
429.998	5.66
430.203	5.76
430.408	5.74
430.614	5.88
430.819	5.66
431.024	6.01
431.229	6.02
431.434	5.8
431.64	5.94
431.845	5.97
432.05	5.86
432.255	5.87
432.46	5.67
432.665	5.59
432.87	5.7
433.076	5.95
433.281	5.86
433.486	5.89
433.691	6.16
433.896	6.1
434.101	6.11
434.306	6.12
434.511	5.95
434.716	6.23
434.921	6.26
435.126	6.03
435.331	6.03
435.535	6.04
435.74	5.62
435.945	5.36
436.15	5.09
436.355	5.09
436.56	5.11
436.765	5.2
436.97	5.08
437.174	5.23
437.379	5.33
437.584	5.27
437.789	5.38
437.993	5.67
438.198	5.72
438.403	5.93
438.608	5.77
438.812	5.73
439.017	5.79
439.222	5.9
439.426	5.89
439.631	5.81
439.836	5.91
440.04	5.78
440.245	5.84
440.45	5.98
440.654	5.97
440.859	6.1
441.063	6.26
441.268	6.23
441.472	6.14
441.677	6.15
441.881	6.26
442.086	6.04
442.29	6.26
442.495	6.19
442.699	6.02
442.904	5.77
443.108	5.81
443.312	5.56
443.517	5.64
443.721	5.62
443.925	5.42
444.13	5.46
444.334	5.62
444.538	5.31
444.743	5.22
444.947	5.26
445.151	5.41
445.356	5.44
445.56	5.45
445.764	5.36
445.968	5.36
446.173	5.33
446.377	5.21
446.581	5.22
446.785	5.18
446.989	5.14
447.193	5.21
447.398	5.11
447.602	4.92
447.806	5.08
448.01	5.21
448.214	5.17
448.418	5.29
448.622	5.43
448.826	5.4
449.03	5.57
449.234	5.72
449.438	5.59
449.642	5.76
449.846	6
450.05	5.84
450.254	5.71
450.458	5.69
450.662	5.64
450.866	5.34
451.069	5.27
451.273	5.23
451.477	5
451.681	5.23
451.885	5.16
452.089	5
452.292	5.08
452.496	4.98
452.7	5.06
452.904	4.98
453.107	5.26
453.311	5.42
453.515	5.35
453.719	5.48
453.922	5.34
454.126	5.21
454.33	5.18
454.533	5.32
454.737	5.39
454.94	5.35
455.144	5.53
455.348	5.45
455.551	5.45
455.755	5.54
455.958	5.61
456.162	5.6
456.365	5.64
456.569	5.69
456.772	5.54
456.976	5.55
457.179	5.45
457.383	5.39
457.586	5.55
457.79	5.4
457.993	5.26
458.196	5.15
458.4	5.15
458.603	5.25
458.807	5.18
459.01	5.14
459.213	5.13
459.417	5.11
459.62	4.99
459.823	4.86
460.026	4.94
460.23	5.01
460.433	5.15
460.636	5.2
460.839	5.34
461.042	5.47
461.246	5.59
461.449	5.66
461.652	5.73
461.855	5.81
462.058	5.81
462.261	5.79
462.464	5.84
462.668	5.86
462.871	5.84
463.074	5.68
463.277	5.64
463.48	5.5
463.683	5.38
463.886	5.34
464.089	5.31
464.292	5.43
464.495	5.29
464.698	5.16
464.901	5.02
465.104	5.04
465.306	5.04
465.509	4.95
465.712	4.99
465.915	4.91
466.118	4.86
466.321	4.94
466.524	4.86
466.726	4.99
466.929	5.07
467.132	4.93
467.335	4.89
467.538	4.89
467.74	4.99
467.943	4.91
468.146	5.05
468.348	5.25
468.551	5.31
468.754	5.31
468.956	5.44
469.159	5.55
469.362	5.5
469.564	5.48
469.767	5.49
469.969	5.52
470.172	5.48
470.375	5.41
470.577	5.47
470.78	5.52
470.982	5.55
471.185	5.53
471.387	5.39
471.59	5.53
471.792	5.51
471.995	5.55
472.197	5.39
472.399	5.46
472.602	5.68
472.804	5.58
473.007	5.42
473.209	5.3
473.411	5.21
473.614	5.12
473.816	5.17
474.018	5.28
474.22	5.04
474.423	5.09
474.625	5.36
474.827	5.2
475.03	5.1
475.232	5.08
475.434	5.02
475.636	5.08
475.838	5.15
476.04	5.13
476.243	5.05
476.445	5.17
476.647	5.11
476.849	4.93
477.051	4.85
477.253	5.11
477.455	5.16
477.657	5.4
477.859	5.38
478.061	5.44
478.263	5.37
478.465	5.37
478.667	5.32
478.869	5.48
479.071	5.47
479.273	5.56
479.475	5.43
479.677	5.33
479.879	5.2
480.081	5.17
480.283	5.12
480.485	5.2
480.686	5.2
480.888	5.26
481.09	5.26
481.292	5.2
481.494	5.19
481.695	5.17
481.897	5.21
482.099	5.2
482.301	5.15
482.502	5.26
482.704	5.17
482.906	5.14
483.107	5.16
483.309	5.09
483.511	5.1
483.712	5.13
483.914	5.12
484.115	5.13
484.317	5.12
484.519	5.15
484.72	5.14
484.922	5.18
485.123	5.19
485.325	5.14
485.526	5.2
485.728	5.21
485.929	5.19
486.131	5.17
486.332	5.19
486.534	5.2
486.735	5.17
486.936	5.17
487.138	5.15
487.339	5.14
487.541	5.18
487.742	5.16
487.943	5.17
488.144	5.2
488.346	5.21
488.547	5.17
488.748	5.27
488.95	5.26
489.151	5.16
489.352	5.18
489.553	5.16
489.755	5.13
489.956	5.15
490.157	5.11
490.358	4.97
490.559	5.01
490.76	5.11
490.961	5.08
491.163	5.13
491.364	5.15
491.565	5.16
491.766	5.27
491.967	5.3
492.168	5.22
492.369	5.22
492.57	5.39
492.771	5.44
492.972	5.38
493.173	5.38
493.374	5.48
493.575	5.52
493.776	5.57
493.976	5.52
494.177	5.49
494.378	5.63
494.579	5.73
494.78	5.65
494.981	5.55
495.182	5.68
495.382	5.63
495.583	5.5
495.784	5.48
495.985	5.48
496.185	5.48
496.386	5.62
496.587	5.58
496.788	5.56
496.988	5.57
497.189	5.7
497.39	5.62
497.59	5.65
497.791	5.62
497.992	5.69
498.192	5.63
498.393	5.65
498.593	5.64
498.794	5.58
498.994	5.76
499.195	5.7
499.395	5.54
499.596	5.56
499.796	5.44
499.997	5.62
500.197	5.63
500.398	5.52
500.598	5.34
500.799	5.24
500.999	5.32
501.199	5.12
501.4	5.17
501.6	5.24
501.801	5.17
502.001	5.27
502.201	5.14
502.402	5.19
502.602	5.31
502.802	5.47
503.002	5.61
503.203	5.71
503.403	5.77
503.603	5.78
503.803	5.72
504.003	5.89
504.204	5.78
504.404	5.74
504.604	5.71
504.804	5.73
505.004	5.78
505.204	5.74
505.404	5.64
505.604	5.67
505.804	5.69
506.005	5.89
506.205	5.97
506.405	6.11
506.605	6.06
506.805	5.95
507.005	5.94
507.204	5.88
507.404	5.85
507.604	5.88
507.804	5.94
508.004	5.87
508.204	5.68
508.404	5.59
508.604	5.38
508.804	5.4
509.003	5.52
509.203	5.68
509.403	5.82
509.603	5.84
509.803	5.87
510.002	5.86
510.202	5.86
510.402	5.97
510.602	5.81
510.801	6.09
511.001	6.14
511.201	6.2
511.4	6.12
511.6	6.12
511.8	6.07
511.999	6.02
512.199	6.05
512.398	6.07
512.598	5.97
512.797	6.16
512.997	6.1
513.197	6.22
513.396	6.17
513.596	6.16
513.795	6.04
513.994	6.03
514.194	5.99
514.393	5.81
514.593	5.81
514.792	6.1
514.992	6.03
515.191	5.83
515.39	5.72
515.59	5.71
515.789	5.78
515.988	5.87
516.188	6.03
516.387	6.13
516.586	6.2
516.786	6.23
516.985	6.08
517.184	6.22
517.383	6.4
517.582	6.4
517.782	6.34
517.981	6.38
518.18	6.3
518.379	6.25
518.578	6.25
518.777	6.19
518.976	6.11
519.176	6.07
519.375	6.02
519.574	5.95
519.773	6
519.972	6.17
520.171	6.19
520.37	6.17
520.569	6.09
520.768	6.19
520.967	6.27
521.166	6.29
521.365	6.39
521.564	6.36
521.762	6.52
521.961	6.46
522.16	6.35
522.359	6.44
522.558	6.63
522.757	6.86
522.956	6.76
523.154	6.71
523.353	6.72
523.552	6.65
523.751	6.68
523.949	6.63
524.148	6.68
524.347	6.5
524.546	6.44
524.744	6.33
524.943	6.37
525.142	6.37
525.34	6.48
525.539	6.61
525.737	6.66
525.936	6.64
526.135	6.58
526.333	6.57
526.532	6.67
526.73	6.62
526.929	6.64
527.127	6.61
527.326	6.76
527.524	6.75
527.723	6.72
527.921	6.75
528.12	6.8
528.318	6.84
528.516	6.8
528.715	6.91
528.913	6.95
529.112	7.02
529.31	7.05
529.508	7
529.707	7
529.905	7.06
530.103	7.04
530.301	7.07
530.5	7.15
530.698	7.26
530.896	7.2
531.094	7.2
531.293	7.24
531.491	7.3
531.689	7.31
531.887	7.39
532.085	7.32
532.283	7.28
532.481	7.25
532.68	7.12
532.878	7.05
533.076	7.1
533.274	7.12
533.472	7.1
533.67	7.1
533.868	7.15
534.066	7.11
534.264	7.21
534.462	7.38
534.66	7.39
534.858	7.54
535.056	7.69
535.253	7.65
535.451	7.67
535.649	7.6
535.847	7.59
536.045	7.58
536.243	7.65
536.441	7.58
536.638	7.55
536.836	7.6
537.034	7.59
537.232	7.55
537.43	7.69
537.627	7.73
537.825	7.73
538.023	7.73
538.22	7.79
538.418	7.89
538.616	7.92
538.813	7.88
539.011	7.93
539.209	7.9
539.406	7.89
539.604	7.91
539.801	7.88
539.999	7.93
540.196	7.91
540.394	7.93
540.591	7.91
540.789	7.94
540.986	8.01
541.184	8.06
541.381	8.07
541.579	8.07
541.776	8.01
541.974	8.08
542.171	8.14
542.368	8.18
542.566	8.22
542.763	8.23
542.96	8.27
543.158	8.31
543.355	8.25
543.552	8.31
543.75	8.31
543.947	8.33
544.144	8.35
544.341	8.32
544.539	8.4
544.736	8.44
544.933	8.48
545.13	8.49
545.327	8.5
545.524	8.5
545.722	8.56
545.919	8.63
546.116	8.8
546.313	8.74
546.51	8.83
546.707	8.73
546.904	8.73
547.101	8.72
547.298	8.75
547.495	8.7
547.692	8.74
547.889	8.69
548.086	8.74
548.283	8.72
548.48	8.77
548.677	8.82
548.874	8.93
549.07	8.92
549.267	9.06
549.464	9.13
549.661	9.26
549.858	9.42
550.055	9.57
550.251	9.57
550.448	9.6
550.645	9.74
550.842	9.65
551.038	9.62
551.235	9.67
551.432	9.45
551.628	9.4
551.825	9.35
552.022	9.42
552.218	9.3
552.415	9.62
552.612	9.71
552.808	9.65
553.005	9.79
553.201	9.77
553.398	9.89
553.594	9.93
553.791	10.18
553.987	10.39
554.184	10.29
554.38	10.44
554.577	10.32
554.773	10.3
554.97	10.27
555.166	10.46
555.362	10.59
555.559	10.57
555.755	10.75
555.952	10.66
556.148	10.73
556.344	10.8
556.541	11
556.737	11.18
556.933	11.18
557.129	11.33
557.326	11.32
557.522	11.55
557.718	11.53
557.914	11.43
558.11	11.39
558.307	11.2
558.503	11.39
558.699	11.28
558.895	11.24
559.091	11.26
559.287	11.4
559.483	11.46
559.679	11.52
559.876	11.49
560.072	11.4
560.268	11.63
560.464	11.81
560.66	11.93
560.856	11.95
561.052	11.86
561.247	12.06
561.443	11.92
561.639	11.85
561.835	11.71
562.031	11.84
562.227	12.14
562.423	12.07
562.619	12.16
562.815	12.01
563.01	12.2
563.206	12.38
563.402	12.3
563.598	12.53
563.793	12.49
563.989	12.46
564.185	12.51
564.381	12.81
564.576	12.68
564.772	12.64
564.968	12.77
565.163	12.65
565.359	12.66
565.555	12.78
565.75	12.79
565.946	12.82
566.141	12.87
566.337	12.92
566.532	12.77
566.728	13
566.923	12.99
567.119	13.02
567.314	13.07
567.51	13.07
567.705	13.18
567.901	13.08
568.096	13.22
568.292	13.33
568.487	13.34
568.682	13.48
568.878	13.35
569.073	13.34
569.268	13.23
569.464	13.21
569.659	13.34
569.854	13.37
570.05	13.72
570.245	13.79
570.44	13.84
570.635	14.08
570.831	14.11
571.026	14.42
571.221	14.63
571.416	14.74
571.611	14.82
571.806	14.73
572.002	14.67
572.197	14.5
572.392	14.35
572.587	14.43
572.782	14.31
572.977	14.33
573.172	14.14
573.367	14.07
573.562	14.21
573.757	14.32
573.952	14.4
574.147	14.36
574.342	14.44
574.537	14.45
574.732	14.56
574.927	14.72
575.121	14.63
575.316	14.81
575.511	14.84
575.706	14.76
575.901	14.72
576.096	14.6
576.29	14.73
576.485	14.88
576.68	15.19
576.875	15.07
577.069	14.95
577.264	14.95
577.459	14.87
577.654	14.98
577.848	14.96
578.043	15
578.238	15.02
578.432	15.01
578.627	14.96
578.821	14.67
579.016	14.89
579.21	14.97
579.405	14.96
579.6	15.17
579.794	15.16
579.989	15.35
580.183	15.54
580.378	15.84
580.572	15.88
580.766	15.87
580.961	16.09
581.155	15.99
581.35	16
581.544	16.27
581.738	15.97
581.933	15.92
582.127	16.12
582.321	16.21
582.516	16.05
582.71	16.06
582.904	16.02
583.099	16.2
583.293	16.15
583.487	16.3
583.681	16.44
583.875	16.48
584.07	16.65
584.264	16.56
584.458	16.33
584.652	16.38
584.846	16.35
585.04	16.49
585.234	16.46
585.428	16.21
585.623	16.11
585.817	16.16
586.011	16.25
586.205	16.38
586.399	16.31
586.593	16.25
586.787	16.33
586.981	16.21
587.174	16.17
587.368	16.23
587.562	16.51
587.756	16.38
587.95	16.18
588.144	16.28
588.338	16.15
588.532	16.16
588.725	16.26
588.919	16.09
589.113	16.24
589.307	16.29
589.501	15.89
589.694	15.89
589.888	15.94
590.082	16.07
590.275	16.1
590.469	16.09
590.663	16.36
590.856	16.42
591.05	16.47
591.244	16.54
591.437	16.61
591.631	16.81
591.824	17.03
592.018	16.9
592.212	16.8
592.405	16.64
592.599	16.51
592.792	16.4
592.986	16.46
593.179	16.63
593.372	16.48
593.566	16.55
593.759	16.87
593.953	17.05
594.146	17.12
594.339	17.01
594.533	16.95
594.726	17.3
594.92	17.34
595.113	17.34
595.306	17.32
595.499	17.7
595.693	17.64
595.886	17.62
596.079	17.61
596.272	17.75
596.466	17.92
596.659	18.25
596.852	18.25
597.045	17.91
597.238	18.03
597.431	18.26
597.624	18.18
597.818	18.06
598.011	17.9
598.204	17.59
598.397	17.76
598.59	17.65
598.783	17.47
598.976	17.18
599.169	17.32
599.362	16.99
599.555	16.73
599.748	16.55
599.941	16.48
600.134	16.75
600.326	16.76
600.519	16.64
600.712	16.59
600.905	16.48
601.098	16.41
601.291	16.45
601.483	16.65
601.676	16.85
601.869	17.15
602.062	17.35
602.255	17.18
602.447	17.34
602.64	17.46
602.833	17.77
603.025	18.09
603.218	18.17
603.411	18.46
603.603	18.47
603.796	18.6
603.989	18.51
604.181	18.6
604.374	18.31
604.566	18.53
604.759	18.41
604.951	18.29
605.144	18.28
605.336	18.4
605.529	18.2
605.721	18.21
605.914	18.17
606.106	18.05
606.299	17.86
606.491	18.16
606.683	17.99
606.876	17.89
607.068	17.67
607.26	17.46
607.453	17.35
607.645	17.42
607.837	17.45
608.03	17.14
608.222	17.13
608.414	17.15
608.606	17.12
608.799	17.22
608.991	17.46
609.183	17.55
609.375	17.65
609.567	17.65
609.759	17.57
609.952	17.52
610.144	17.62
610.336	17.68
610.528	17.66
610.72	17.67
610.912	17.44
611.104	17.55
611.296	17.94
611.488	17.95
611.68	18.09
611.872	18.21
612.064	18.07
612.256	18.19
612.448	18.12
612.64	18.32
612.832	18.52
613.023	18.4
613.215	18.5
613.407	18.11
613.599	18.06
613.791	18.08
613.983	18.32
614.174	18.3
614.366	18.22
614.558	18.16
614.75	18.15
614.941	18.01
615.133	18.32
615.325	17.81
615.516	17.92
615.708	18.08
615.9	17.8
616.091	17.58
616.283	17.86
616.475	17.96
616.666	18.39
616.858	18.36
617.049	18.38
617.241	18.36
617.432	18.67
617.624	18.89
617.815	18.38
618.007	18.68
618.198	18.52
618.39	18.63
618.581	18.75
618.773	18.46
618.964	18.35
619.155	18.44
619.347	18.48
619.538	18.4
619.729	18.14
619.921	18.77
620.112	18.74
620.303	19.17
620.494	18.67
620.686	18.8
620.877	19.1
621.068	19.37
621.259	19.35
621.451	19.23
621.642	19.07
621.833	19.22
622.024	18.91
622.215	18.58
622.406	17.93
622.597	18.62
622.788	18.32
622.98	18.07
623.171	18.18
623.362	18.02
623.553	17.95
623.744	18.14
623.935	17.99
624.126	17.94
624.317	18.49
624.508	19.24
624.698	19.05
624.889	19.38
625.08	19.33
625.271	19.04
625.462	19.34
625.653	19.17
625.844	18.98
626.034	18.99
626.225	19.19
626.416	19.06
626.607	18.95
626.798	18.75
626.988	18.71
627.179	18.83
627.37	19.13
627.56	18.92
627.751	19.45
627.942	19.41
628.132	19.39
628.323	19.47
628.514	19.42
628.704	19.01
628.895	18.97
629.085	19
629.276	18.91
629.466	18.7
629.657	19.11
629.847	18.67
630.038	18.88
630.228	18.99
630.419	18.83
630.609	18.86
630.8	18.79
630.99	18.85
631.181	18.56
631.371	18.79
631.561	18.46
631.752	18.22
631.942	18.33
632.132	18.17
632.323	18.19
632.513	18.1
632.703	18.3
632.893	18.44
633.084	18.32
633.274	18.23
633.464	18.09
633.654	18.23
633.844	18.21
634.034	18.39
634.225	18.66
634.415	18.72
634.605	18.86
634.795	18.76
634.985	18.95
635.175	19.47
635.365	19.64
635.555	19.83
635.745	20.16
635.935	20.06
636.125	20.12
636.315	20.13
636.505	20.09
636.695	20.06
636.885	20.11
637.075	19.92
637.265	19.73
637.455	19.92
637.644	19.77
637.834	19.79
638.024	19.59
638.214	19.29
638.404	19.35
638.593	19.34
638.783	19.31
638.973	19.02
639.163	19.75
639.352	19.47
639.542	19.35
639.732	19.31
639.921	19.19
640.111	19.49
640.301	19.86
640.49	20.11
640.68	20.01
640.87	20.24
641.059	20.45
641.249	19.95
641.438	20.78
641.628	20.81
641.817	20.53
642.007	20.63
642.196	20.57
642.386	20.06
642.575	19.96
642.764	20.18
642.954	20.03
643.143	20.08
643.333	19.5
643.522	19.1
643.711	18.68
643.901	18.99
644.09	18.92
644.279	18.85
644.469	19.06
644.658	18.79
644.847	18.33
645.036	18.32
645.226	18.15
645.415	19.17
645.604	18.75
645.793	19.05
645.982	18.83
646.171	18.78
646.361	19
646.55	18.76
646.739	18.62
646.928	18.96
647.117	19.23
647.306	19.39
647.495	18.86
647.684	18.9
647.873	18.99
648.062	19.24
648.251	19.32
648.44	19.55
648.629	20.26
648.818	20.58
649.007	20.96
649.196	20.74
649.384	20.68
649.573	20.77
649.762	20.96
649.951	20.65
650.14	20.58
650.328	20.7
650.517	20.11
650.706	19.99
650.895	19.79
651.083	19.4
651.272	19.77
651.461	19.46
651.65	19.65
651.838	19.43
652.027	19.52
652.216	19.78
652.404	19.81
652.593	20.24
652.781	19.96
652.97	20.18
653.158	20.52
653.347	20.27
653.535	20.54
653.724	20.87
653.912	21.06
654.101	21.52
654.289	21.38
654.478	21.05
654.666	21.15
654.855	21.22
655.043	21.19
655.231	20.68
655.42	20.77
655.608	20.58
655.796	20.21
655.985	20.5
656.173	20.27
656.361	20.18
656.55	20.28
656.738	20.18
656.926	20.61
657.114	20.47
657.302	20.59
657.491	20.23
657.679	20.64
657.867	20.86
658.055	20.72
658.243	20.57
658.431	20.66
658.619	20.72
658.807	20.53
658.996	19.93
659.184	20.02
659.372	20.17
659.56	20.3
659.748	20.52
659.936	20.24
660.124	20.1
660.311	20.32
660.499	20.43
660.687	20.09
660.875	20.21
661.063	20.41
661.251	20.32
661.439	20
661.627	19.86
661.814	19.61
662.002	19.88
662.19	20.21
662.378	20.23
662.565	20.2
662.753	20.34
662.941	20.3
663.129	20.22
663.316	20.17
663.504	20.7
663.692	21.08
663.879	21.26
664.067	21.46
664.254	21.21
664.442	20.5
664.63	20.69
664.817	21.31
665.005	21.72
665.192	22.06
665.38	22.56
665.567	22.37
665.755	22.36
665.942	22.23
666.13	21.59
666.317	21.72
666.504	21.98
666.692	21.51
666.879	21.1
667.067	20.65
667.254	20.57
667.441	20.48
667.629	20.68
667.816	20.41
668.003	20.73
668.19	20.86
668.378	20.37
668.565	20.81
668.752	21.44
668.939	21.71
669.127	21.63
669.314	21.99
669.501	21.63
669.688	21.15
669.875	21.44
670.062	20.87
670.249	21.11
670.436	21.36
670.623	21.4
670.81	20.61
670.997	20.5
671.184	20.39
671.371	19.63
671.558	19.27
671.745	19.86
671.932	19.87
672.119	19.46
672.306	18.92
672.493	19.07
672.68	19.08
672.867	19.7
673.054	19.33
673.24	19.56
673.427	19.92
673.614	20.5
673.801	20.65
673.988	20.65
674.174	21.09
674.361	21.6
674.548	21.67
674.734	21.5
674.921	20.96
675.108	21.21
675.294	21.03
675.481	21.06
675.668	21.55
675.854	21.09
676.041	20.87
676.227	21.39
676.414	20.76
676.601	20.76
676.787	20.9
676.974	20.86
677.16	21.11
677.347	21.31
677.533	21.65
677.719	21.27
677.906	21.48
678.092	21.41
678.279	21.03
678.465	21.83
678.651	22.07
678.838	21.87
679.024	22.12
679.21	21.95
679.397	22.16
679.583	21.9
679.769	21.89
679.955	21.53
680.142	21.21
680.328	21.23
680.514	20.96
680.7	21.27
680.886	20.86
681.073	20.99
681.259	20.88
681.445	20.64
681.631	20.48
681.817	20.16
682.003	20.43
682.189	20.73
682.375	20.67
682.561	20.56
682.747	20.02
682.933	20.1
683.119	19.73
683.305	19.77
683.491	19.72
683.677	19.68
683.863	20.1
684.049	20
684.235	20.44
684.42	20.63
684.606	20.66
684.792	20.06
684.978	20.79
685.164	20.8
685.349	20.88
685.535	21.06
685.721	20.85
685.907	20.6
686.092	21.1
686.278	20.33
686.464	20.8
686.649	21.14
686.835	21.49
687.021	20.62
687.206	21.14
687.392	21.4
687.577	22.14
687.763	22.17
687.948	22.49
688.134	21.92
688.319	22.03
688.505	21.51
688.69	21.17
688.876	21.23
689.061	22.37
689.247	22.26
689.432	22.46
689.618	21.77
689.803	22.01
689.988	21.72
690.174	22.11
690.359	22.48
690.544	22.17
690.73	22.01
690.915	22.1
691.1	21.37
691.285	21.48
691.471	21.15
691.656	20.99
691.841	21.65
692.026	21.37
692.211	20.98
692.396	20.91
692.582	21.26
692.767	21.56
692.952	21.46
693.137	20.96
693.322	20.51
693.507	20.3
693.692	20.27
693.877	19.44
694.062	19.87
694.247	20.28
694.432	20.81
694.617	20.91
694.802	20.44
694.987	20.91
695.172	21.86
695.357	22.15
695.541	21.79
695.726	21.97
695.911	22.38
696.096	22.26
696.281	21.67
696.466	20.85
696.65	20.49
696.835	20.88
697.02	20.74
697.204	20.3
697.389	20.64
697.574	21.14
697.759	21.46
697.943	21.5
698.128	21.7
698.312	21.68
698.497	21.8
698.682	22.07
698.866	21.93
699.051	21.65
699.235	21.87
699.42	21.73
699.604	21.65
699.789	21.25
699.973	21.6
700.158	21.06
700.342	21.57
700.527	21.8
700.711	22.1
700.895	21.99
701.08	21.93
701.264	21.69
701.448	21.57
701.633	21.38
701.817	21.48
702.001	21
702.186	20.99
702.37	20.6
702.554	20.49
702.738	20.31
702.923	21.2
703.107	21.87
703.291	22.49
703.475	22.24
703.659	22.9
703.843	22.88
704.027	22.23
704.212	23.05
704.396	23.17
704.58	23.21
704.764	22.89
704.948	22.64
705.132	22.25
705.316	21.91
705.5	22.61
705.684	22.26
705.868	22.67
706.052	23.01
706.235	23.28
706.419	23.67
706.603	23.42
706.787	23.29
706.971	22.47
707.155	22.87
707.339	23.04
707.522	23.16
707.706	23
707.89	22.72
708.074	23.57
708.257	22.98
708.441	22.6
708.625	22.51
708.808	22.17
708.992	23.07
709.176	22.78
709.359	22.59
709.543	22.16
709.727	22.35
709.91	22.17
710.094	21.39
710.277	21.19
710.461	21.5
710.644	21.99
710.828	22.7
711.011	22.06
711.195	21.53
711.378	21.93
711.562	22.34
711.745	22.37
711.928	22.07
712.112	22.63
712.295	23.5
712.478	23.22
712.662	23.02
712.845	22.22
713.028	22.93
713.212	23.41
713.395	22.56
713.578	21.57
713.761	21.45
713.945	21.14
714.128	20.56
714.311	20.62
714.494	20.93
714.677	20.43
714.86	21.37
715.043	21.39
715.227	22.09
715.41	23.09
715.593	23.37
715.776	23.14
715.959	23.61
716.142	23.8
716.325	23.53
716.508	23.03
716.691	23.35
716.874	23.8
717.057	23.63
717.239	23.2
717.422	23.05
717.605	23.72
717.788	24.05
717.971	24.49
718.154	24.1
718.337	23.26
718.519	23.91
718.702	24.48
718.885	23.52
719.068	23.5
719.25	23.99
719.433	23.23
719.616	22.48
719.798	23.41
719.981	22.34
720.164	22.71
720.346	23.27
720.529	21.83
720.712	21.23
720.894	21.14
721.077	21.52
721.259	21.12
721.442	21.15
721.624	21.51
721.807	20.57
721.989	21.23
722.172	21.3
722.354	22.47
722.537	24.11
722.719	24.39
722.901	24.68
723.084	24.29
723.266	24.11
723.448	24.83
723.631	24.96
723.813	25.13
723.995	25.15
724.178	24.2
724.36	23.62
724.542	22.85
724.724	22.56
724.907	22.24
725.089	21.43
725.271	21.22
725.453	20.39
725.635	20.32
725.817	20.1
725.999	20.69
726.181	21.56
726.364	20.9
726.546	21.72
726.728	21.92
726.91	22.52
727.092	23.66
727.274	23.65
727.456	24
727.638	23.92
727.819	24.36
728.001	24.39
728.183	23.62
728.365	23.82
728.547	22.77
728.729	22.33
728.911	21.46
729.093	20.49
729.274	20.79
729.456	20.34
729.638	20.24
729.82	20.33
730.001	20.03
730.183	21.39
730.365	22.02
730.546	22.84
730.728	23.14
730.91	24.06
731.091	24.04
731.273	23.63
731.455	24.56
731.636	24.84
731.818	24.72
731.999	25.69
732.181	25.28
732.362	24.55
732.544	23.28
732.725	24.1
732.907	23.91
733.088	24.04
733.27	24.87
733.451	24.7
733.633	24.54
733.814	24.15
733.995	23.19
734.177	23.69
734.358	23.83
734.539	24.56
734.721	23.37
734.902	23.59
735.083	24.73
735.264	25.2
735.446	25.76
735.627	25.39
735.808	25.45
735.989	25
736.17	24.72
736.351	24.87
736.533	24.68
736.714	24.74
736.895	23.58
737.076	22.17
737.257	20.93
737.438	20.7
737.619	21.13
737.8	20.97
737.981	22.07
738.162	21.95
738.343	22.34
738.524	22.98
738.705	23.01
738.886	23.7
739.067	24.59
739.247	24.55
739.428	23.38
739.609	23.09
739.79	24.28
739.971	24.99
740.151	23.74
740.332	23.11
740.513	23.2
740.694	23.77
740.874	23.37
741.055	23.54
741.236	23.25
741.417	24.57
741.597	24.49
741.778	23.09
741.958	22.38
742.139	22.93
742.32	23.15
742.5	23.71
742.681	22.67
742.861	23.59
743.042	23.8
743.222	24.63
743.403	24.58
743.583	25.07
743.764	25.07
743.944	24.33
744.124	24.9
744.305	24.36
744.485	22.6
744.666	24.88
744.846	25.92
745.026	25.63
745.207	25.04
745.387	24.06
745.567	24.34
745.747	24.86
745.928	26.11
746.108	25.61
746.288	25.87
746.468	27.53
746.648	26.38
746.829	25.25
747.009	24.62
747.189	23.75
747.369	24.19
747.549	24.07
747.729	24.57
747.909	22.8
748.089	22.34
748.269	22.63
748.449	22.87
748.629	22.96
748.809	23.63
748.989	23.28
749.169	23.33
749.349	23.44
749.529	22.81
749.709	21.47
749.889	22.4
750.068	22.63
750.248	22.42
750.428	22.42
750.608	22.8
750.788	20.83
750.967	21.59
751.147	22.73
751.327	23.37
751.507	22.99
751.686	24.86
751.866	25.34
752.046	26.28
752.225	25
752.405	23.93
752.585	23.19
752.764	24.31
752.944	23.72
753.123	23.21
753.303	22.16
753.482	23.1
753.662	20.84
753.841	20.87
754.021	19.82
754.2	20.45
754.38	21.89
754.559	22.71
754.739	22.05
754.918	22.91
755.097	23.78
755.277	23.66
755.456	22.88
755.635	24.26
755.815	23.56
755.994	23.47
756.173	24.62
756.352	23.32
756.532	22.55
756.711	23.27
756.89	22.03
757.069	21.04
757.248	21.47
757.427	23.61
757.607	23.74
757.786	24.29
757.965	25.84
758.144	25.54
758.323	24.82
758.502	25.3
758.681	25.05
758.86	27.21
759.039	26.67
759.218	27.04
759.397	26.33
759.576	27.29
759.755	27.04
759.934	26.43
760.113	27.31
760.291	28.5
760.47	28.61
760.649	28.9
760.828	28.65
761.007	30.08
761.186	29.32
761.364	29.49
761.543	28.56
761.722	27.04
761.901	26.27
762.079	25.02
762.258	24.98
762.437	25.03
762.615	24.29
762.794	23.27
762.972	22.91
763.151	22.84
763.33	22.26
763.508	22.48
763.687	23.36
763.865	23.9
764.044	23.97
764.222	23.91
764.401	23.1
764.579	23.12
764.758	23.13
764.936	22.59
765.114	22.67
765.293	22.42
765.471	21.84
765.65	22.69
765.828	22.09
766.006	23.94
766.184	23.55
766.363	23.54
766.541	22.87
766.719	23.84
766.898	23.6
767.076	24.81
767.254	25.24
767.432	25.66
767.61	25.34
767.788	26.19
767.967	24.35
768.145	23.64
768.323	24.13
768.501	23.77
768.679	21.76
768.857	23.78
769.035	22.93
769.213	22.87
769.391	23.09
769.569	22.5
769.747	21.64
769.925	22.31
770.103	24.09
770.281	24.3
770.459	27.01
770.636	28.4
770.814	25.19
770.992	25.16
771.17	23.77
771.348	22.05
771.525	22.95
771.703	23.53
771.881	24.4
772.059	24.75
772.236	24.36
772.414	25.26
772.592	25.97
772.769	27.61
772.947	27.74
773.125	27.57
773.302	26.46
773.48	26.59
773.657	27.28
773.835	24.75
774.013	22.54
774.19	22.29
774.368	21.4
774.545	20.88
774.723	22.41
774.9	22.75
775.077	24.66
775.255	26.75
775.432	28.22
775.61	26.69
775.787	28.79
775.964	29.78
776.142	28.62
776.319	26.83
776.496	28.76
776.674	29.05
776.851	28.8
777.028	26.7
777.205	26.6
777.382	22.91
777.56	26.43
777.737	22.82
777.914	20.63
778.091	21.53
778.268	22.48
778.445	22.8
778.622	19.32
778.8	20.2
778.977	23.48
779.154	21.61
779.331	24.19
779.508	22.73
779.685	24.7
779.862	26.76
780.038	28.4
780.215	27.2
780.392	23.85
780.569	25.86
780.746	23.49
780.923	21.17
781.1	23.99
781.277	22.53
781.453	20.83
781.63	20.15
781.807	20.76
781.984	22.99
782.16	25.36
782.337	27.46
782.514	30.38
782.691	31.58
782.867	32.81
783.044	32.03
783.221	32.6
783.397	30.74
783.574	30.6
783.75	30.55
783.927	25.96
784.103	27.16
784.28	26.6
784.456	24.26
784.633	26.26
784.809	25.54
784.986	24.31
785.162	25.05
785.339	25.72
785.515	28.2
785.692	28.5
785.868	28.5
786.044	25.65
786.221	23.57
786.397	22.92
786.573	22.84
786.749	22.48
786.926	23.28
787.102	22.36
787.278	23.72
787.454	21.12
787.631	20.73
787.807	24
787.983	26.11
788.159	26.85
788.335	26.23
788.511	24.55
788.687	25.04
788.863	26.14
789.039	24.94
789.216	23.71
789.392	23.01
789.568	23.81
789.744	23.88
789.919	22.5
790.095	22.54
790.271	22.05
790.447	23.44
790.623	25.23
790.799	24.41
790.975	26.34
791.151	29.48
791.327	32.04
791.502	32.46
791.678	31.87
791.854	32.69
792.03	33.06
792.205	32.71
792.381	30.44
792.557	30.92
792.733	31.06
792.908	27.97
793.084	24.11
793.259	24.31
793.435	20.3
793.611	17.84
793.786	19.36
793.962	22.08
794.137	24.16
794.313	25.38
794.488	22.94
794.664	23.15
794.839	23.24
795.015	23.32
795.19	23.69
795.366	25.74
795.541	26.94
795.716	24.12
795.892	20.48
796.067	20.87
796.242	18.02
796.418	16.54
796.593	17.32
796.768	17
796.944	19.52
797.119	18.65
797.294	17.49
797.469	18.49
797.644	20.56
797.82	19.59
797.995	18
798.17	18.66
798.345	19.3
798.52	16.07
798.695	20.42
798.87	21.67
799.045	19.93
799.22	23.66
799.395	22.48
799.57	20.84
799.745	24.86
799.92	25.39
800.095	28.93
800.27	28.52
800.445	29.66
800.62	25.59
800.795	23.8
800.97	25.86
801.145	22.12
801.319	25.97
801.494	28.26
801.669	29.8
801.844	28.34
802.018	26.07
802.193	27.01
802.368	24.61
802.543	25.76
802.717	25.5
802.892	21.79
803.067	23.47
803.241	23.01
803.416	17.56
803.59	12.74
803.765	11.05
803.94	12.01
804.114	13.08
804.289	14.88
804.463	18.51
804.638	14.79
804.812	22.42
804.986	24.59
805.161	19.8
805.335	23.96
805.51	20.23
805.684	28.6
805.858	27.57
806.033	25.05
806.207	26.61
806.381	26.87
806.556	29.49
806.73	23.78
806.904	21.66
807.078	21.61
807.253	22.31
807.427	26.18
807.601	22.43
807.775	21.93
807.949	24.97
808.123	21.94
808.298	22.13
808.472	20.15
808.646	21.39
808.82	25.54
808.994	30.68
809.168	28.13
809.342	27.53
809.516	25.48
809.69	29.49
809.864	29.16
810.038	32.14
810.212	30.44
810.385	34.16
810.559	35.94
810.733	32.77
810.907	28.46
811.081	24.6
811.255	24.07
811.428	26.31
811.602	24.64
811.776	24.65
811.95	23.45
812.123	25.59
812.297	23.62
812.471	21.28
812.644	18.98
812.818	23.44
812.992	31.01
813.165	30.74
813.339	31.72
813.512	27.07
813.686	26.05
813.86	26.39
814.033	24.18
814.207	22.24
814.38	22.42
814.554	20.96
814.727	16.69
814.9	16.49
815.074	20.73
815.247	20.27
815.421	22.74
815.594	19.61
815.767	20.37
815.941	19.82
816.114	22.61
816.287	23.3
816.46	22.51
816.634	21.87
816.807	18.5
816.98	15.72
817.153	16.45
817.327	15.99
817.5	18.66
817.673	19.33
817.846	21.03
818.019	18.12
818.192	16.38
818.365	23
818.538	21.56
818.711	18.95
818.884	21.86
819.057	25.01
819.23	24.88
819.403	28.46
819.576	31.01
819.749	25.96
819.922	27.62
820.095	29.37
820.268	28.5
820.441	28.45
820.614	32.18
820.786	29.27
820.959	25.8
821.132	26.1
821.305	25
821.477	23.58
821.65	26.88
821.823	25.97
821.996	25.9
822.168	25.64
822.341	26.17
822.514	26.37
822.686	26.38
822.859	26.61
823.031	26.01
823.204	26.05
823.376	26.28
823.549	25.06
823.722	24.62
823.894	24.63
824.067	25.06
824.239	25.09
824.411	24.6
824.584	25.2
824.756	25.04
824.929	25.72
825.101	26.13
825.273	25.21
825.446	25.94
825.618	25.75
825.79	26.3
825.963	25.11
826.135	24.42
826.307	24.34
826.479	22.47
826.652	22.3
826.824	21.92
826.996	22.39
827.168	23.55
827.34	23.26
827.512	25.03
827.684	22.97
827.856	22.65
828.029	24.32
828.201	24.31
828.373	24.53
828.545	24.73
828.717	24.87
828.889	21.57
829.061	21.75
829.232	21.28
829.404	20.21
829.576	20.16
829.748	20.37
829.92	17.24
830.092	16.35
830.264	19.63
830.436	18.69
830.607	17.52
830.779	21.99
830.951	22.18
831.123	23.95
831.294	25.54
831.466	25.13
831.638	25.26
831.809	28.76
831.981	27.32
832.153	19.93
832.324	26.18
832.496	27.6
832.667	23.71
832.839	23.34
833.011	25.56
833.182	24.49
833.354	24.46
833.525	24.7
833.697	23.39
833.868	23.59
834.039	26.34
834.211	22.18
834.382	20.68
834.554	21.77
834.725	22.33
834.896	19.28
835.068	20.34
835.239	20.8
835.41	21.47
835.581	22.84
835.753	23.2
835.924	21.8
836.095	22.26
836.266	24.03
836.438	21.33
836.609	19.22
836.78	18.37
836.951	16.58
837.122	19.29
837.293	16
837.464	17.36
837.635	19.73
837.806	21.93
837.977	16.44
838.148	15.75
838.319	18.21
838.49	15.2
838.661	21.89
838.832	25.12
839.003	22.53
839.174	29.62
839.345	27.17
839.516	22.39
839.687	22.4
839.857	28.68
840.028	31.27
840.199	29.85
840.37	28.73
840.54	23.79
840.711	24.1
840.882	27.23
841.053	19.13
841.223	19.1
841.394	23.02
841.564	23.27
841.735	27.37
841.906	20.08
842.076	24.28
842.247	28.29
842.417	25.89
842.588	20
842.758	13.11
842.929	11.23
843.099	9.5
843.27	6.94
843.44	14.24
843.611	6.37
843.781	16.69
843.951	20.02
844.122	17.98
844.292	26.78
844.462	24.22
844.633	19.64
844.803	34.18
844.973	39.68
845.144	44.42
845.314	41.57
845.484	42.36
845.654	36.36
845.824	28.75
845.995	31.77
846.165	19.35
846.335	24.78
846.505	33.64
846.675	25.16
846.845	23.74
847.015	25.63
847.185	20.64
847.355	23.74
847.525	32.28
847.695	33.29
847.865	26.44
848.035	38.14
848.205	47.8
848.375	35.74
848.545	42.51
848.715	26.56
848.884	26.12
849.054	29.3
849.224	35.49
849.394	47.53
849.564	46.39
849.733	50.38
849.903	43.74
850.073	40.03
850.243	44.23
850.412	46.41
850.582	49.9
850.752	31.76
850.921	19.52
851.091	-6.7
851.26	-17.13
851.43	-23.13
851.599	-24.69
851.769	-7.77
851.939	-22.08
852.108	-16.49
852.278	-17.86
852.447	0.49
852.616	13.74
852.786	39.74
852.955	52.45
853.125	59.5
853.294	50.53
853.463	55.52
853.633	49.86
853.802	47.89
853.971	52.4
854.141	67.81
854.31	52.07
854.479	60.46
854.648	40.21
854.818	32.5
854.987	26.4
855.156	37.84
855.325	35.1
855.494	37.18
855.663	31.19
855.832	36.62
856.001	16.63
856.171	23.84
856.34	14.67
856.509	34.04
856.678	34.76
856.847	32.38
857.016	40.78
857.185	39.14
857.353	52.66
857.522	54.74
857.691	48.48
857.86	51.2
858.029	53.62
858.198	62.36
858.367	55.29
858.535	61.46
858.704	58.16
858.873	48.98
859.042	27.91
859.21	1.56
859.379	31.56
859.548	36.86
859.717	48.92
859.885	60.28
860.054	53.05
860.222	18.95
860.391	25.82
860.56	55.69
860.728	50.05
860.897	92.42
861.065	94.13
861.234	58.53
861.402	30.21
861.571	15.53
861.739	25.63
861.908	21.29
862.076	41.51
862.244	41.63
862.413	22.95
862.581	14.99
862.749	5.2
862.918	4.53
863.086	8.82
863.254	24.18
863.423	24.09
863.591	10.02
863.759	2.75
863.927	-4.51
864.096	-1.5
864.264	-5.1
864.432	14.52
864.6	26.41
864.768	22.22
864.936	31.82
865.104	48.17
865.272	59.4
865.44	69.46
865.608	71.44
865.776	66.76
865.944	62.9
866.112	70.83
866.28	66.62
866.448	57.97
866.616	55.05
866.784	44.98
866.952	33.12
867.12	15.59
867.288	5.11
867.455	-1.25
867.623	9.31
867.791	17.36
867.959	-0.84
868.127	9.46
868.294	20.63
868.462	57.23
868.63	40.45
868.797	14.92
868.965	92.76
869.133	125.56
869.3	146.72
869.468	77.96
869.636	62.09
869.803	47.1
869.971	29.29
870.138	33.86
870.306	26.55
870.473	40.93
870.641	50.04
870.808	34.91
870.975	11.83
871.143	28.6
871.31	37.45
871.478	30.61
871.645	45.4
871.812	36.77
871.98	39.98
872.147	43.83
872.314	42.12
872.482	35.74
872.649	38.08
872.816	53.68
872.983	56.23
873.15	64.6
873.318	74.01
873.485	64.01
873.652	65.24
873.819	60.91
873.986	52.26
874.153	34.17
874.32	39.25
874.487	40.27
874.654	27.11
874.821	10.47
874.988	-5.21
875.155	-28.24
875.322	-41.45
875.489	-17.34
875.656	-23.91
875.823	-5.02
875.99	15.82
876.157	9.32
876.324	11.87
876.49	23.67
876.657	49.16
876.824	60.46
876.991	76.67
877.157	76.56
877.324	52.15
877.491	52.38
877.658	47.8
877.824	65.62
877.991	65.88
878.157	62.46
878.324	78.09
878.491	66.4
878.657	72.5
878.824	70.6
878.99	61.04
879.157	71.36
879.323	67.79
879.49	41.52
879.656	47.11
879.823	33.07
879.989	24.82
880.156	17.3
880.322	19.95
880.488	15.97
880.655	2.46
880.821	6.03
880.987	18.07
881.154	20.84
881.32	32.2
881.486	23.46
881.652	33.31
881.819	33.66
881.985	36.25
882.151	30.19
882.317	25.05
882.483	28.8
882.649	31.26
882.816	28.83
882.982	28.41
883.148	27.13
883.314	28.29
883.48	24.22
883.646	24.03
883.812	22.98
883.978	25.71
884.144	27.73
884.31	26.32
884.476	24.43
884.642	23.48
884.807	23.15
884.973	20.69
885.139	22.8
885.305	24.59
885.471	25.89
885.637	24.12
885.802	25.36
885.968	20.1
886.134	22.23
886.3	20.12
886.465	21.87
886.631	19.59
886.797	23.25
886.962	17.28
887.128	21.24
887.293	18.72
887.459	20.75
887.625	17.24
887.79	20.44
887.956	19.75
888.121	33.28
888.287	30.43
888.452	46.66
888.618	83.62
888.783	81.91
