Data from 2937817_Reflection_1.txt Node
Date: Wed Jul 15 17:29:11 EDT 2015
User: robert
Spectrometer: USB4E03001
Autoset integration time: false
Trigger mode: 4
Integration Time (sec): 1.000000E-1
Scans to average: 10
Electric dark correction enabled: true
Nonlinearity correction enabled: false
Boxcar width: 5
Stray light correction enabled: false
XAxis mode: Wavelengths
Stop averaging: false
Number of Pixels in Spectrum: 3648
>>>>>Begin Spectral Data<<<<<
177.566	-16.82
177.785	138.12
178.005	-109.09
178.225	-131.25
178.445	71.76
178.665	122.19
178.885	126.86
179.105	453.35
179.324	269.44
179.544	159.33
179.764	1246.77
179.984	73.89
180.204	165.86
180.423	121.15
180.643	132.85
180.863	158.45
181.083	112.73
181.302	91.78
181.522	101.15
181.742	93.48
181.961	77.25
182.181	102.96
182.401	69.3
182.621	6.68
182.84	-48.41
183.06	-68.32
183.279	-168.83
183.499	-203.75
183.719	-226.05
183.938	-715.92
184.158	-66.57
184.377	-333.3
184.597	-12880.43
184.816	666.71
185.036	227.92
185.256	-1930.67
185.475	-182.89
185.695	-267.06
185.914	-1004.39
186.134	840.96
186.353	-501.59
186.572	-565.2
186.792	-354.58
187.011	-171.37
187.231	-100.06
187.45	-98.81
187.67	-45.98
187.889	-75.8
188.108	-55.96
188.328	-34.97
188.547	2.22
188.766	-18.68
188.986	-47.65
189.205	-59.04
189.424	-152.34
189.644	-692.7
189.863	-2204.29
190.082	240.17
190.302	371.76
190.521	538.5
190.74	366.34
190.959	452.14
191.178	567.43
191.398	549.04
191.617	961.9
191.836	1688.11
192.055	-940.55
192.274	-459.5
192.494	-1260.78
192.713	-183.88
192.932	689.34
193.151	288.37
193.37	224.75
193.589	170.78
193.808	146.65
194.027	121.36
194.246	247.1
194.465	367.06
194.685	312.41
194.904	16768.75
195.123	1254.23
195.342	-3957.65
195.561	-158.33
195.78	1448.03
195.999	-279.67
196.218	-1526.2
196.436	-73.62
196.655	-96.09
196.874	16.73
197.093	11.78
197.312	-9.16
197.531	-56.22
197.75	-237.41
197.969	-455.53
198.188	-190.02
198.407	-64.39
198.625	-34.11
198.844	-149.64
199.063	-665.55
199.282	644.83
199.501	223.07
199.719	405.17
199.938	455.98
200.157	978.66
200.376	-4974.77
200.594	544.53
200.813	200.47
201.032	429.05
201.251	419.4
201.469	-174.34
201.688	-101.84
201.907	-21.29
202.125	-53.85
202.344	-54.34
202.563	-34.31
202.781	-101.63
203	-387.56
203.218	-156.68
203.437	-185.83
203.656	-32.47
203.874	-68.63
204.093	-692.99
204.311	667.42
204.53	-97.73
204.748	-112.38
204.967	-103.34
205.185	-44.17
205.404	-26.1
205.622	-6.83
205.841	-3.73
206.059	-66.76
206.278	-116.39
206.496	-122.22
206.715	-73.16
206.933	-209.38
207.151	-242.65
207.37	-283.56
207.588	-91.26
207.806	6562.07
208.025	272.03
208.243	337.83
208.461	-43.73
208.68	-141.11
208.898	-131.25
209.116	-63.95
209.335	-9.36
209.553	7.97
209.771	10.34
209.989	2.17
210.208	6.02
210.426	-10.52
210.644	-23.14
210.862	-47.98
211.081	-91.7
211.299	-55.67
211.517	-40.92
211.735	-72.27
211.953	482.37
212.171	230.84
212.39	115.95
212.608	64.85
212.826	56.42
213.044	28.67
213.262	16.38
213.48	-75.14
213.698	-71.54
213.916	-22.28
214.134	-10.51
214.352	-24.02
214.57	109.75
214.788	111.92
215.006	122.2
215.224	-15.39
215.442	61.6
215.66	151.48
215.878	426.16
216.096	914.24
216.314	-216.92
216.532	-247.31
216.75	-185.6
216.968	-51.16
217.185	-52.65
217.403	-39.78
217.621	-35.92
217.839	-8.19
218.057	8.4
218.275	12.16
218.492	28.2
218.71	33.61
218.928	27.51
219.146	-4.52
219.363	-226.51
219.581	-4327.42
219.799	-2948.65
220.017	132.56
220.234	171.42
220.452	648.2
220.67	2155.14
220.887	-3148.96
221.105	726.44
221.323	1107.78
221.54	341.86
221.758	-2336.4
221.976	-899.8
222.193	2460.78
222.411	5146.29
222.629	-1183.11
222.846	330.29
223.064	209.88
223.281	84.98
223.499	102.79
223.716	151.28
223.934	67.75
224.151	-12.1
224.369	-12.52
224.586	-6.95
224.804	-31.53
225.021	-59.14
225.239	-31.21
225.456	-15.3
225.674	-63.34
225.891	-21.75
226.108	-7.63
226.326	6.25
226.543	4.53
226.76	35.54
226.978	31.23
227.195	37.7
227.413	49.03
227.63	55.48
227.847	51.97
228.064	45.02
228.282	37.84
228.499	38.45
228.716	39.07
228.934	38.76
229.151	32.35
229.368	31.2
229.585	23.16
229.802	21.56
230.02	21.29
230.237	19.32
230.454	18.66
230.671	20.4
230.888	19.2
231.105	18.35
231.323	15.68
231.54	15.5
231.757	15.49
231.974	26.51
232.191	25.5
232.408	21.7
232.625	21.29
232.842	32.15
233.059	29.99
233.276	31.81
233.493	43.98
233.71	41.32
233.927	38.95
234.144	36.09
234.361	33.33
234.578	35.95
234.795	31.78
235.012	30.18
235.229	28.23
235.446	30.12
235.663	36.48
235.879	41.15
236.096	42.49
236.313	45.94
236.53	38.12
236.747	34.34
236.964	26.95
237.181	27.72
237.397	28.01
237.614	30.79
237.831	37.01
238.048	24.95
238.264	6.49
238.481	18.1
238.698	23.7
238.915	31.14
239.131	28.73
239.348	36.09
239.565	37.72
239.781	38.04
239.998	36.49
240.215	29.21
240.431	27.63
240.648	26.22
240.865	21.44
241.081	20.8
241.298	19.31
241.514	19.46
241.731	15.35
241.947	14.08
242.164	13.97
242.38	15.15
242.597	14.9
242.814	17.22
243.03	16.92
243.246	17.13
243.463	17.74
243.679	19.59
243.896	19.25
244.112	18.17
244.329	20.59
244.545	22.18
244.762	21.19
244.978	23.43
245.194	20.13
245.411	22.39
245.627	21.37
245.843	18.33
246.06	19.14
246.276	19.39
246.492	19.44
246.709	20.11
246.925	19.59
247.141	18.5
247.357	17.19
247.574	17.37
247.79	16.47
248.006	17.9
248.222	17.76
248.439	17.65
248.655	16.97
248.871	17.73
249.087	17.08
249.303	15.73
249.519	16.1
249.736	16.89
249.952	14.93
250.168	14.31
250.384	12.18
250.6	15.59
250.816	14.63
251.032	14.84
251.248	15.03
251.464	14.53
251.68	16.12
251.896	14.44
252.112	13.03
252.328	16.65
252.544	15.93
252.76	15.71
252.976	14.93
253.192	13.01
253.408	14.36
253.624	12.92
253.84	12.87
254.056	12.1
254.272	12.58
254.487	13.95
254.703	13.57
254.919	16.52
255.135	16.86
255.351	11.82
255.567	8.94
255.782	9.3
255.998	11.26
256.214	12.56
256.43	12.2
256.646	16.59
256.861	19.21
257.077	20.6
257.293	21.56
257.508	19.78
257.724	18.1
257.94	20.14
258.155	18.96
258.371	19.56
258.587	17.29
258.802	17.22
259.018	15.34
259.234	13.99
259.449	13.01
259.665	11.77
259.88	13.08
260.096	14.2
260.312	14.78
260.527	14.8
260.743	14.32
260.958	14.1
261.174	13.92
261.389	13.49
261.605	13.96
261.82	13.47
262.036	13.34
262.251	13.14
262.466	13.51
262.682	10.89
262.897	9.59
263.113	8.93
263.328	10.11
263.543	11.58
263.759	10.65
263.974	10.03
264.189	10.99
264.405	14.78
264.62	12.76
264.835	11.33
265.051	10.3
265.266	12.6
265.481	14.78
265.696	13.21
265.912	12.92
266.127	15.35
266.342	12.87
266.557	13.57
266.773	11.09
266.988	10.99
267.203	12.46
267.418	14.78
267.633	14.42
267.848	13.16
268.064	14.26
268.279	14.45
268.494	13.76
268.709	14.34
268.924	12.34
269.139	11.61
269.354	11.6
269.569	11.16
269.784	10.23
269.999	7.66
270.214	8.56
270.429	9.31
270.644	7.81
270.859	8.84
271.074	9.51
271.289	11.69
271.504	13.51
271.719	12.92
271.934	12.02
272.149	13.46
272.363	15.2
272.578	13.59
272.793	11.4
273.008	12.44
273.223	12.95
273.438	13.6
273.653	11.7
273.867	9.84
274.082	10.22
274.297	9.18
274.512	6.96
274.726	6.52
274.941	8.99
275.156	9.2
275.371	9.32
275.585	7.35
275.8	7.58
276.015	9.53
276.229	11.17
276.444	13.14
276.659	15.94
276.873	18.21
277.088	15.91
277.302	13.6
277.517	14.23
277.732	14.16
277.946	13.99
278.161	12.47
278.375	11.12
278.59	8.35
278.804	7.69
279.019	6.17
279.233	4.12
279.448	5.74
279.662	7.53
279.877	8.35
280.091	9.45
280.306	7.21
280.52	6.77
280.735	8.55
280.949	8.86
281.163	8.97
281.378	10.33
281.592	10.9
281.806	14.47
282.021	14.76
282.235	15.54
282.449	14.24
282.664	16.12
282.878	17.75
283.092	16.15
283.307	18.96
283.521	18.35
283.735	16.69
283.949	15.96
284.164	14.13
284.378	13.34
284.592	13.68
284.806	13.83
285.02	13.84
285.234	14.19
285.449	15.18
285.663	14.75
285.877	14.68
286.091	15.35
286.305	15.05
286.519	15.47
286.733	15.25
286.947	14.61
287.161	14.89
287.375	14.8
287.589	13.92
287.803	14.4
288.017	12.2
288.231	12.82
288.445	13.7
288.659	14.34
288.873	12.78
289.087	12.94
289.301	11.68
289.515	10.54
289.729	10.66
289.943	10.19
290.157	9.28
290.371	9.36
290.584	8.8
290.798	7.6
291.012	7.31
291.226	7.72
291.44	7.67
291.654	9.66
291.867	10.18
292.081	10.23
292.295	8.83
292.509	9.29
292.722	11.91
292.936	12.33
293.15	13.58
293.364	13.49
293.577	14.5
293.791	13.98
294.005	14.73
294.218	15.08
294.432	14.22
294.645	17.57
294.859	16.44
295.073	15.05
295.286	13.19
295.5	12.73
295.713	12.56
295.927	11.28
296.14	14.31
296.354	13.61
296.568	13.65
296.781	14.84
296.994	14.41
297.208	14.55
297.421	15.2
297.635	16.3
297.848	17.55
298.062	17.77
298.275	18.77
298.489	16.46
298.702	16.03
298.915	16.58
299.129	16.29
299.342	15.9
299.555	17.69
299.769	17.8
299.982	17.57
300.195	16.79
300.409	16.87
300.622	18.74
300.835	19.44
301.048	19.95
301.262	21.51
301.475	22.27
301.688	22.61
301.901	21.38
302.115	20.93
302.328	21.97
302.541	20.15
302.754	22.06
302.967	18.81
303.18	18.96
303.393	18.49
303.607	16.82
303.82	14.75
304.033	14.94
304.246	14.89
304.459	15.66
304.672	16.05
304.885	16.79
305.098	16.53
305.311	17.41
305.524	16.84
305.737	16.82
305.95	17.82
306.163	18.67
306.376	17.43
306.589	18.07
306.802	16.48
307.015	14.59
307.228	15.41
307.44	16.1
307.653	17.03
307.866	18.41
308.079	18.74
308.292	17.16
308.505	15.79
308.718	17.65
308.93	17.7
309.143	18.35
309.356	19.64
309.569	20.01
309.781	18.02
309.994	18.46
310.207	18.03
310.42	18.26
310.632	18.72
310.845	21.17
311.058	20.3
311.27	19.68
311.483	19.2
311.696	19.7
311.908	19.15
312.121	19.44
312.333	17.04
312.546	18.15
312.759	18.34
312.971	17.57
313.184	17.21
313.396	17.48
313.609	17.71
313.821	18.51
314.034	17.18
314.246	16.19
314.459	14.56
314.671	18.33
314.884	16.7
315.096	15.3
315.309	15.52
315.521	14.3
315.733	13.86
315.946	12.2
316.158	14.04
316.371	14.32
316.583	14.23
316.795	16.34
317.008	15.28
317.22	15.33
317.432	17.31
317.644	17.5
317.857	17.67
318.069	19.01
318.281	19.13
318.494	18
318.706	17.73
318.918	17.1
319.13	16.59
319.342	15.24
319.555	14.78
319.767	15.27
319.979	13.99
320.191	13.01
320.403	11.16
320.615	11.55
320.827	12.47
321.039	11.03
321.252	13.33
321.464	14.24
321.676	16.07
321.888	18.22
322.1	14.89
322.312	15.18
322.524	16.45
322.736	17.13
322.948	18.85
323.16	16.79
323.372	19
323.584	16.32
323.796	15.77
324.007	15.83
324.219	14.19
324.431	15.97
324.643	17.19
324.855	15.6
325.067	16.97
325.279	16.9
325.491	15.08
325.702	15.07
325.914	16.66
326.126	17.22
326.338	15.54
326.55	15.61
326.761	14.71
326.973	13.85
327.185	16.3
327.396	13.57
327.608	13.92
327.82	15.32
328.032	13.28
328.243	13.01
328.455	12.63
328.666	14.14
328.878	15.44
329.09	16.67
329.301	17.7
329.513	15.12
329.725	16.78
329.936	16.9
330.148	18.57
330.359	20.14
330.571	20.63
330.782	20.08
330.994	19.69
331.205	18.55
331.417	19.24
331.628	16.34
331.84	17.65
332.051	18.39
332.262	17.91
332.474	16.45
332.685	16.12
332.897	15.37
333.108	17.11
333.319	14.13
333.531	14.09
333.742	13.62
333.953	15.2
334.165	15.39
334.376	13.27
334.587	13.16
334.799	13.31
335.01	12.81
335.221	13.56
335.432	11.82
335.644	15.78
335.855	15.24
336.066	15.84
336.277	16.29
336.488	15.37
336.7	16.72
336.911	16.38
337.122	16.26
337.333	17.26
337.544	17.04
337.755	18.1
337.966	16.54
338.177	17.26
338.388	17.42
338.599	17.19
338.811	17.49
339.022	16.14
339.233	15.82
339.444	16.33
339.655	14.77
339.866	14.69
340.076	13.87
340.287	15.09
340.498	14.01
340.709	12.85
340.92	13.43
341.131	12.53
341.342	13.32
341.553	13.76
341.764	14.19
341.975	16.2
342.185	15.6
342.396	16.34
342.607	16.21
342.818	15.95
343.029	16.48
343.239	16.92
343.45	18.78
343.661	18.4
343.872	18.46
344.082	18.44
344.293	17.61
344.504	18.96
344.714	17.27
344.925	15.37
345.136	15.95
345.346	16.29
345.557	14.51
345.768	14.13
345.978	16.03
346.189	16.64
346.399	15.45
346.61	16.06
346.821	16.61
347.031	18.44
347.242	19.59
347.452	19.97
347.663	18.88
347.873	21.48
348.084	21.87
348.294	21.09
348.504	19.86
348.715	21.43
348.925	20.79
349.136	18.06
349.346	17.78
349.557	19.61
349.767	20.12
349.977	19.96
350.188	18.16
350.398	16.78
350.608	17.21
350.819	18.07
351.029	15.98
351.239	16.3
351.449	16.89
351.66	16.5
351.87	14.45
352.08	13.71
352.29	15.51
352.501	17.85
352.711	18.73
352.921	16.89
353.131	16.69
353.341	17.88
353.552	16.94
353.762	18.36
353.972	18.88
354.182	18.29
354.392	18.01
354.602	18.18
354.812	15.87
355.022	17.41
355.232	19.21
355.442	18.79
355.652	19.05
355.862	19.11
356.072	19.01
356.282	18.93
356.492	19.39
356.702	18.86
356.912	17.58
357.122	18.35
357.332	16.98
357.542	16.41
357.752	16.08
357.962	16
358.171	16.17
358.381	15.42
358.591	14.54
358.801	14.68
359.011	15.14
359.221	16.04
359.43	15.08
359.64	15.14
359.85	13.57
360.06	13.61
360.269	14.11
360.479	14.26
360.689	14.16
360.899	13.75
361.108	13.88
361.318	14.54
361.528	14.09
361.737	15
361.947	14.57
362.156	15.13
362.366	14.81
362.576	13.48
362.785	13.41
362.995	14.06
363.204	14.24
363.414	13.18
363.623	13.1
363.833	13
364.042	11.7
364.252	12.49
364.461	12.16
364.671	12.97
364.88	13.9
365.09	14.39
365.299	13.35
365.509	14.24
365.718	15.33
365.927	14.55
366.137	14.49
366.346	14.49
366.555	14.53
366.765	14.38
366.974	14.38
367.183	13.79
367.393	12.96
367.602	13.35
367.811	12.62
368.021	11.81
368.23	11.68
368.439	11.09
368.648	11.07
368.857	11.44
369.067	11.59
369.276	12.82
369.485	12.98
369.694	13.29
369.903	13.1
370.112	12.95
370.321	14.07
370.531	14.42
370.74	15.03
370.949	15.59
371.158	14.51
371.367	15.38
371.576	14.47
371.785	14.98
371.994	13.81
372.203	14.28
372.412	15.13
372.621	14.6
372.83	14.59
373.039	14.73
373.248	14.49
373.457	14.25
373.666	13.87
373.874	12.98
374.083	12.13
374.292	13.55
374.501	13.39
374.71	13.01
374.919	12.94
375.128	13.32
375.336	12.06
375.545	11.95
375.754	12.42
375.963	12.12
376.171	11.91
376.38	12.17
376.589	11.14
376.798	10.57
377.006	10.84
377.215	11.02
377.424	10.4
377.632	10.81
377.841	10.93
378.05	11.1
378.258	10.52
378.467	10.61
378.675	10.73
378.884	10.65
379.093	10.2
379.301	9.27
379.51	8.83
379.718	8.7
379.927	8.91
380.135	8.01
380.344	7.36
380.552	7.03
380.761	7.6
380.969	7.17
381.177	7.64
381.386	7.96
381.594	8.38
381.803	8.3
382.011	7.93
382.219	7.35
382.428	7.97
382.636	7.78
382.845	8.28
383.053	7.23
383.261	7.39
383.469	6.66
383.678	6.98
383.886	6.79
384.094	7.11
384.302	7.37
384.511	7.29
384.719	7.65
384.927	8.1
385.135	8.23
385.343	8.53
385.552	8.57
385.76	8.52
385.968	8.56
386.176	8.31
386.384	8.11
386.592	8.34
386.8	8.71
387.008	8.39
387.216	8.22
387.424	8.45
387.633	8.42
387.841	8.13
388.049	7.89
388.257	7.41
388.465	7.64
388.672	7.53
388.88	7.39
389.088	7.43
389.296	7.23
389.504	6.95
389.712	6.26
389.92	6.25
390.128	6.03
390.336	6.69
390.544	6.91
390.751	7.11
390.959	7.11
391.167	6.98
391.375	6.66
391.583	6.48
391.79	6.09
391.998	6.4
392.206	6.53
392.414	6.93
392.621	6.97
392.829	6.85
393.037	6.7
393.244	6.56
393.452	6.47
393.66	6.59
393.867	7.07
394.075	7.45
394.283	7.4
394.49	7.27
394.698	7.31
394.905	7.09
395.113	6.94
395.32	6.67
395.528	6.75
395.735	6.56
395.943	6.24
396.15	5.66
396.358	5.46
396.565	5.56
396.773	5.88
396.98	5.65
397.188	5.9
397.395	5.82
397.602	5.85
397.81	5.89
398.017	6.13
398.225	6.47
398.432	6.75
398.639	6.89
398.847	6.76
399.054	6.37
399.261	6.45
399.468	6.21
399.676	6.79
399.883	6.82
400.09	6.5
400.297	6.6
400.505	6.41
400.712	6.35
400.919	6.45
401.126	6.27
401.333	6.25
401.54	6.22
401.748	6.2
401.955	5.96
402.162	5.72
402.369	6.08
402.576	5.97
402.783	5.78
402.99	5.69
403.197	5.66
403.404	5.6
403.611	5.9
403.818	5.77
404.025	5.9
404.232	6.04
404.439	6.55
404.646	6.37
404.853	6.21
405.06	6.42
405.267	6.38
405.474	6.62
405.681	6.66
405.887	6.35
406.094	5.86
406.301	5.58
406.508	5.21
406.715	4.62
406.922	4.47
407.128	4.27
407.335	4.46
407.542	4.45
407.749	4.3
407.955	4.27
408.162	4.38
408.369	5.04
408.575	4.84
408.782	4.96
408.989	5.12
409.195	5.61
409.402	5.79
409.609	5.48
409.815	5.64
410.022	5.47
410.228	5.49
410.435	5.31
410.642	5.15
410.848	5.91
411.055	6.12
411.261	6.06
411.468	5.89
411.674	5.97
411.881	6.25
412.087	6.09
412.294	6.2
412.5	6.32
412.706	6.43
412.913	6.35
413.119	5.62
413.326	5.4
413.532	5.53
413.738	5.34
413.945	5.14
414.151	4.85
414.357	5
414.564	4.57
414.77	4.38
414.976	4.31
415.182	4.54
415.389	4.64
415.595	4.6
415.801	4.69
416.007	4.63
416.214	4.75
416.42	4.95
416.626	4.68
416.832	4.83
417.038	4.73
417.244	4.61
417.45	4.54
417.657	4.78
417.863	4.81
418.069	4.93
418.275	4.71
418.481	4.76
418.687	4.72
418.893	4.89
419.099	4.89
419.305	5.03
419.511	5.27
419.717	5.25
419.923	5.1
420.129	4.97
420.335	4.91
420.541	5.22
420.746	5.14
420.952	5.04
421.158	4.97
421.364	4.89
421.57	4.85
421.776	4.5
421.982	4.63
422.187	4.69
422.393	4.74
422.599	4.52
422.805	4.16
423.01	4.34
423.216	4.42
423.422	4.32
423.628	4.45
423.833	4.52
424.039	4.78
424.245	4.57
424.45	4.46
424.656	4.5
424.862	4.6
425.067	4.92
425.273	4.85
425.478	4.78
425.684	4.89
425.889	4.87
426.095	4.77
426.301	4.93
426.506	4.96
426.712	5.01
426.917	4.96
427.123	4.92
427.328	4.81
427.533	4.56
427.739	4.68
427.944	4.68
428.15	4.56
428.355	4.59
428.561	4.42
428.766	4.31
428.971	4.47
429.177	4.39
429.382	4.32
429.587	4.2
429.793	4.54
429.998	4.34
430.203	4.15
430.408	4.28
430.614	4.13
430.819	4.07
431.024	4.23
431.229	4.16
431.434	4.4
431.64	4.62
431.845	4.92
432.05	4.65
432.255	4.59
432.46	4.79
432.665	4.62
432.87	4.62
433.076	4.59
433.281	4.55
433.486	4.54
433.691	4.49
433.896	4.37
434.101	3.97
434.306	4.14
434.511	4.31
434.716	4.24
434.921	4.28
435.126	4.35
435.331	4.4
435.535	4.47
435.74	4.49
435.945	4.36
436.15	4.39
436.355	4.65
436.56	4.74
436.765	4.67
436.97	4.64
437.174	4.76
437.379	5
437.584	4.87
437.789	4.78
437.993	4.74
438.198	4.87
438.403	4.9
438.608	4.92
438.812	4.75
439.017	4.65
439.222	4.7
439.426	4.6
439.631	4.66
439.836	4.84
440.04	4.81
440.245	4.84
440.45	4.76
440.654	4.97
440.859	4.91
441.063	5
441.268	4.95
441.472	5.07
441.677	5.15
441.881	5.02
442.086	5.01
442.29	5.16
442.495	5.08
442.699	5.26
442.904	5.15
443.108	5.1
443.312	5.03
443.517	5.32
443.721	5.28
443.925	5.29
444.13	5.24
444.334	5.16
444.538	4.95
444.743	5.14
444.947	5.06
445.151	5.01
445.356	5.11
445.56	5.1
445.764	4.97
445.968	4.89
446.173	4.78
446.377	4.81
446.581	4.78
446.785	4.81
446.989	4.66
447.193	4.6
447.398	4.48
447.602	4.36
447.806	4.3
448.01	4.16
448.214	4.07
448.418	4.19
448.622	4.14
448.826	4.08
449.03	4.14
449.234	4.03
449.438	4.02
449.642	4.08
449.846	4.21
450.05	4.18
450.254	4.22
450.458	4.39
450.662	4.2
450.866	4.18
451.069	4.06
451.273	4.13
451.477	4.25
451.681	4.1
451.885	3.88
452.089	3.73
452.292	3.85
452.496	3.95
452.7	3.61
452.904	3.67
453.107	3.68
453.311	3.82
453.515	3.73
453.719	3.83
453.922	3.88
454.126	4
454.33	3.99
454.533	3.92
454.737	3.79
454.94	4.13
455.144	4.09
455.348	3.92
455.551	3.97
455.755	4.11
455.958	3.92
456.162	3.81
456.365	3.81
456.569	3.97
456.772	3.94
456.976	4.13
457.179	4.14
457.383	4.18
457.586	4.46
457.79	4.29
457.993	4.16
458.196	4.25
458.4	4.34
458.603	4.46
458.807	4.4
459.01	4.44
459.213	4.38
459.417	4.25
459.62	4.19
459.823	4.08
460.026	4.19
460.23	4.31
460.433	4.26
460.636	4.23
460.839	4.23
461.042	4.19
461.246	4.19
461.449	4.17
461.652	4.3
461.855	4.5
462.058	4.6
462.261	4.64
462.464	4.4
462.668	4.54
462.871	4.68
463.074	4.61
463.277	4.66
463.48	4.68
463.683	4.64
463.886	4.62
464.089	4.48
464.292	4.29
464.495	4.13
464.698	4.3
464.901	4.02
465.104	4.15
465.306	4.01
465.509	3.94
465.712	3.92
465.915	3.85
466.118	3.95
466.321	3.98
466.524	3.93
466.726	4.08
466.929	4.1
467.132	4.15
467.335	3.9
467.538	4.04
467.74	4.02
467.943	4.02
468.146	4.16
468.348	4.07
468.551	4
468.754	4.12
468.956	3.98
469.159	3.87
469.362	4.05
469.564	4.13
469.767	4.24
469.969	4.27
470.172	4.4
470.375	4.4
470.577	4.29
470.78	4.34
470.982	4.42
471.185	4.3
471.387	4.18
471.59	4.09
471.792	4.15
471.995	3.99
472.197	3.88
472.399	3.54
472.602	3.45
472.804	3.67
473.007	3.66
473.209	3.53
473.411	3.63
473.614	3.86
473.816	3.85
474.018	3.8
474.22	3.73
474.423	3.74
474.625	4.04
474.827	4.14
475.03	3.94
475.232	3.91
475.434	4.02
475.636	4.06
475.838	3.97
476.04	4.09
476.243	4.13
476.445	4.33
476.647	4.4
476.849	4.37
477.051	4.25
477.253	4.21
477.455	4.41
477.657	4.37
477.859	4.29
478.061	4.18
478.263	4.03
478.465	4.08
478.667	4.05
478.869	3.95
479.071	3.84
479.273	4.08
479.475	4.13
479.677	4.14
479.879	3.97
480.081	3.96
480.283	4.13
480.485	4.23
480.686	4.2
480.888	4.09
481.09	4.32
481.292	4.32
481.494	4.35
481.695	4.27
481.897	4.11
482.099	4.26
482.301	4.31
482.502	4.18
482.704	4.1
482.906	4.09
483.107	4.06
483.309	4.02
483.511	4.04
483.712	3.94
483.914	3.96
484.115	3.99
484.317	3.96
484.519	3.97
484.72	4.01
484.922	4.04
485.123	3.96
485.325	4.03
485.526	4.09
485.728	4.03
485.929	4.08
486.131	4.11
486.332	4.11
486.534	4.08
486.735	4.13
486.936	4.1
487.138	4.07
487.339	4.1
487.541	4.08
487.742	3.97
487.943	4.05
488.144	4.01
488.346	4.04
488.547	3.96
488.748	4.02
488.95	4.02
489.151	4.08
489.352	4.11
489.553	4.18
489.755	4.15
489.956	4.25
490.157	4.22
490.358	4.18
490.559	4.07
490.76	4.17
490.961	4.15
491.163	4.12
491.364	4.09
491.565	4.09
491.766	4.07
491.967	4.16
492.168	4.02
492.369	3.99
492.57	4.03
492.771	3.98
492.972	3.89
493.173	3.79
493.374	3.76
493.575	3.81
493.776	3.64
493.976	3.7
494.177	3.56
494.378	3.7
494.579	3.76
494.78	3.8
494.981	3.9
495.182	4.1
495.382	4.21
495.583	4.25
495.784	4.21
495.985	4.41
496.185	4.37
496.386	4.29
496.587	4.25
496.788	4.3
496.988	4.09
497.189	4.12
497.39	4.04
497.59	3.9
497.791	3.98
497.992	3.89
498.192	3.77
498.393	3.76
498.593	3.79
498.794	3.64
498.994	3.58
499.195	3.86
499.395	3.93
499.596	3.88
499.796	4.09
499.997	4.02
500.197	4.14
500.398	4.26
500.598	4.14
500.799	4.13
500.999	4.23
501.199	4.03
501.4	3.83
501.6	3.98
501.801	4.08
502.001	4.09
502.201	3.95
502.402	3.92
502.602	3.86
502.802	3.98
503.002	4.03
503.203	4.22
503.403	4.4
503.603	4.65
503.803	4.38
504.003	4.34
504.204	4.15
504.404	4.2
504.604	4.07
504.804	4.11
505.004	4.15
505.204	4.23
505.404	4.18
505.604	4.23
505.804	4.22
506.005	4.3
506.205	4.37
506.405	4.58
506.605	4.53
506.805	4.73
507.005	4.7
507.204	4.66
507.404	4.64
507.604	4.56
507.804	4.55
508.004	4.46
508.204	4.55
508.404	4.64
508.604	4.62
508.804	4.79
509.003	4.79
509.203	4.89
509.403	4.9
509.603	4.96
509.803	5.01
510.002	4.98
510.202	4.96
510.402	4.95
510.602	4.8
510.801	4.91
511.001	5.09
511.201	5.15
511.4	5.33
511.6	5.32
511.8	5.26
511.999	5.38
512.199	5.36
512.398	5.41
512.598	5.43
512.797	5.47
512.997	5.47
513.197	5.1
513.396	5
513.596	4.77
513.795	4.78
513.994	4.9
514.194	4.88
514.393	5.15
514.593	5.18
514.792	5.25
514.992	5.28
515.191	5.46
515.39	5.57
515.59	5.73
515.789	5.89
515.988	5.9
516.188	5.95
516.387	5.99
516.586	5.9
516.786	5.9
516.985	5.83
517.184	5.89
517.383	5.84
517.582	5.91
517.782	5.89
517.981	5.94
518.18	6.11
518.379	6.16
518.578	6.19
518.777	6.17
518.976	6.32
519.176	6.43
519.375	6.61
519.574	6.56
519.773	6.52
519.972	6.54
520.171	6.57
520.37	6.4
520.569	6.47
520.768	6.42
520.967	6.48
521.166	6.49
521.365	6.46
521.564	6.22
521.762	6.19
521.961	6.24
522.16	6.33
522.359	6.23
522.558	6.39
522.757	6.35
522.956	6.47
523.154	6.47
523.353	6.52
523.552	6.46
523.751	6.62
523.949	6.7
524.148	6.79
524.347	6.76
524.546	6.7
524.744	6.78
524.943	6.84
525.142	6.8
525.34	6.94
525.539	6.81
525.737	6.95
525.936	6.98
526.135	7.05
526.333	7.08
526.532	7.19
526.73	7.43
526.929	7.41
527.127	7.47
527.326	7.6
527.524	7.52
527.723	7.69
527.921	7.75
528.12	7.72
528.318	7.75
528.516	7.83
528.715	7.79
528.913	7.72
529.112	7.78
529.31	7.74
529.508	7.71
529.707	7.75
529.905	7.69
530.103	7.73
530.301	7.8
530.5	7.83
530.698	7.85
530.896	7.88
531.094	8.05
531.293	8.04
531.491	8.12
531.689	8.24
531.887	8.35
532.085	8.48
532.283	8.47
532.481	8.49
532.68	8.51
532.878	8.58
533.076	8.65
533.274	8.63
533.472	8.72
533.67	8.8
533.868	8.74
534.066	8.78
534.264	8.73
534.462	8.8
534.66	8.83
534.858	8.83
535.056	8.78
535.253	8.96
535.451	8.99
535.649	9.05
535.847	9.06
536.045	9.17
536.243	9.21
536.441	9.4
536.638	9.36
536.836	9.44
537.034	9.54
537.232	9.59
537.43	9.45
537.627	9.46
537.825	9.48
538.023	9.48
538.22	9.53
538.418	9.61
538.616	9.52
538.813	9.57
539.011	9.63
539.209	9.9
539.406	9.93
539.604	10.08
539.801	10.22
539.999	10.3
540.196	10.38
540.394	10.39
540.591	10.29
540.789	10.33
540.986	10.44
541.184	10.51
541.381	10.54
541.579	10.55
541.776	10.58
541.974	10.67
542.171	10.68
542.368	10.73
542.566	10.8
542.763	10.88
542.96	11
543.158	11
543.355	11.07
543.552	11.08
543.75	11.12
543.947	11.17
544.144	11.09
544.341	11.2
544.539	11.3
544.736	11.32
544.933	11.51
545.13	11.52
545.327	11.74
545.524	11.71
545.722	11.65
545.919	11.84
546.116	12.09
546.313	12.16
546.51	12.18
546.707	12.21
546.904	12.22
547.101	12.29
547.298	12.29
547.495	12.19
547.692	12.4
547.889	12.5
548.086	12.54
548.283	12.4
548.48	12.53
548.677	12.6
548.874	12.53
549.07	12.72
549.267	12.72
549.464	12.8
549.661	13.03
549.858	12.91
550.055	12.98
550.251	12.99
550.448	13.06
550.645	13.2
550.842	13.3
551.038	13.37
551.235	13.31
551.432	13.44
551.628	13.59
551.825	13.42
552.022	13.49
552.218	13.59
552.415	13.77
552.612	13.76
552.808	13.68
553.005	13.71
553.201	13.87
553.398	14.06
553.594	14.02
553.791	14.16
553.987	14.45
554.184	14.47
554.38	14.51
554.577	14.51
554.773	14.77
554.97	14.94
555.166	14.96
555.362	15.15
555.559	15.14
555.755	15.17
555.952	15.25
556.148	15.26
556.344	15.54
556.541	15.61
556.737	15.48
556.933	15.47
557.129	15.6
557.326	15.86
557.522	15.93
557.718	16.08
557.914	16.21
558.11	16.33
558.307	16.21
558.503	16.2
558.699	16.38
558.895	16.71
559.091	16.71
559.287	16.8
559.483	16.95
559.679	16.84
559.876	17.13
560.072	17.11
560.268	17.19
560.464	17.45
560.66	17.53
560.856	17.4
561.052	17.35
561.247	17.51
561.443	17.31
561.639	17.22
561.835	17.46
562.031	17.36
562.227	17.41
562.423	17.48
562.619	17.49
562.815	17.47
563.01	17.74
563.206	17.73
563.402	17.64
563.598	17.95
563.793	17.94
563.989	18.1
564.185	18.28
564.381	18.42
564.576	18.29
564.772	18.32
564.968	18.6
565.163	18.68
565.359	18.98
565.555	19.21
565.75	19.26
565.946	19.38
566.141	19.17
566.337	19.16
566.532	19.3
566.728	19.41
566.923	19.44
567.119	19.35
567.314	19.41
567.51	19.54
567.705	19.64
567.901	19.72
568.096	20.05
568.292	20.26
568.487	20.34
568.682	20.27
568.878	20.21
569.073	20.37
569.268	20.58
569.464	20.63
569.659	20.76
569.854	20.64
570.05	20.73
570.245	20.49
570.44	20.58
570.635	20.75
570.831	20.94
571.026	21.17
571.221	21.38
571.416	21.34
571.611	21.34
571.806	21.2
572.002	21.07
572.197	21.13
572.392	21.32
572.587	21.37
572.782	21.19
572.977	21.2
573.172	21.48
573.367	21.42
573.562	21.45
573.757	21.54
573.952	21.6
574.147	21.92
574.342	21.89
574.537	21.91
574.732	22.03
574.927	22.26
575.121	22.39
575.316	22.29
575.511	22.47
575.706	22.57
575.901	22.53
576.096	22.77
576.29	22.75
576.485	22.8
576.68	22.77
576.875	22.69
577.069	22.72
577.264	22.75
577.459	22.77
577.654	22.55
577.848	22.7
578.043	22.85
578.238	22.67
578.432	22.87
578.627	23.14
578.821	23.15
579.016	23.27
579.21	23.24
579.405	23.13
579.6	23.36
579.794	23.56
579.989	23.59
580.183	23.74
580.378	23.92
580.572	23.9
580.766	23.71
580.961	23.84
581.155	23.76
581.35	23.76
581.544	24.01
581.738	24.16
581.933	24.4
582.127	24.34
582.321	24.09
582.516	24.07
582.71	23.91
582.904	24.09
583.099	24.16
583.293	24.43
583.487	24.4
583.681	24.58
583.875	24.13
584.07	23.96
584.264	23.66
584.458	23.84
584.652	23.95
584.846	24.1
585.04	24.05
585.234	24.13
585.428	24.01
585.623	24.22
585.817	24.14
586.011	24.35
586.205	24.25
586.399	24.65
586.593	24.72
586.787	24.68
586.981	24.62
587.174	25.04
587.368	25.06
587.562	25.16
587.756	25.16
587.95	25.24
588.144	25.41
588.338	25.52
588.532	25.51
588.725	25.45
588.919	25.23
589.113	25.29
589.307	25.04
589.501	24.93
589.694	25.04
589.888	24.99
590.082	24.74
590.275	24.74
590.469	24.8
590.663	24.8
590.856	24.97
591.05	25.3
591.244	25.55
591.437	25.5
591.631	25.85
591.824	25.65
592.018	26.01
592.212	26.2
592.405	26.25
592.599	26.08
592.792	26.08
592.986	26.08
593.179	26.22
593.372	26.01
593.566	26.26
593.759	26.11
593.953	26.45
594.146	26.36
594.339	26.18
594.533	26.09
594.726	26.34
594.92	26.37
595.113	26.38
595.306	26.18
595.499	26.66
595.693	26.61
595.886	26.63
596.079	26.33
596.272	26.33
596.466	26.66
596.659	26.69
596.852	26.73
597.045	26.78
597.238	26.61
597.431	26.53
597.624	26.13
597.818	25.98
598.011	25.97
598.204	26.1
598.397	26.06
598.59	26.08
598.783	26.12
598.976	25.93
599.169	25.83
599.362	25.92
599.555	26.01
599.748	26.17
599.941	26.3
600.134	26.14
600.326	26.31
600.519	26.57
600.712	26.12
600.905	26.12
601.098	26.48
601.291	26.65
601.483	26.66
601.676	26.7
601.869	26.66
602.062	26.68
602.255	27.05
602.447	27.01
602.64	26.67
602.833	26.88
603.025	27.13
603.218	27.07
603.411	26.88
603.603	26.98
603.796	26.96
603.989	27
604.181	26.99
604.374	27.03
604.566	26.98
604.759	27.26
604.951	27.27
605.144	27.13
605.336	27.04
605.529	27.24
605.721	27.2
605.914	27.2
606.106	27.18
606.299	27.07
606.491	26.9
606.683	27.1
606.876	26.76
607.068	26.71
607.26	26.66
607.453	26.62
607.645	26.32
607.837	26.37
608.03	26.42
608.222	26.58
608.414	26.85
608.606	26.89
608.799	26.78
608.991	26.95
609.183	27.23
609.375	27.22
609.567	27.23
609.759	27.51
609.952	27.63
610.144	27.64
610.336	27.55
610.528	27.31
610.72	27.32
610.912	27.31
611.104	27.38
611.296	27.42
611.488	27.39
611.68	27.56
611.872	27.5
612.064	27.4
612.256	27.43
612.448	27.56
612.64	27.73
612.832	27.78
613.023	27.88
613.215	27.64
613.407	27.34
613.599	27.86
613.791	27.68
613.983	27.93
614.174	27.89
614.366	27.86
614.558	27.81
614.75	28.03
614.941	27.83
615.133	27.81
615.325	28.04
615.516	28.05
615.708	27.79
615.9	28.01
616.091	28.03
616.283	28.22
616.475	28.39
616.666	28.25
616.858	28.37
617.049	28.76
617.241	28.88
617.432	28.84
617.624	29.06
617.815	28.81
618.007	28.59
618.198	28.59
618.39	28.78
618.581	28.79
618.773	28.97
618.964	28.62
619.155	28.66
619.347	28.89
619.538	28.96
619.729	28.8
619.921	29.02
620.112	29.31
620.303	29.03
620.494	28.74
620.686	28.61
620.877	28.5
621.068	28.68
621.259	28.56
621.451	28.32
621.642	28.16
621.833	28.45
622.024	28.25
622.215	28.31
622.406	28.65
622.597	28.98
622.788	28.93
622.98	29.44
623.171	29.39
623.362	29.41
623.553	29.39
623.744	29.65
623.935	29.45
624.126	29.64
624.317	29.51
624.508	29.53
624.698	29.5
624.889	29.61
625.08	29.41
625.271	29.48
625.462	29.7
625.653	29.72
625.844	29.81
626.034	29.78
626.225	29.67
626.416	29.46
626.607	29.52
626.798	29.48
626.988	29.58
627.179	29.65
627.37	29.64
627.56	29.5
627.751	29.38
627.942	29.3
628.132	29.36
628.323	29.38
628.514	29.7
628.704	29.36
628.895	29.46
629.085	29.36
629.276	29.2
629.466	29.22
629.657	28.94
629.847	29.2
630.038	29.17
630.228	29.15
630.419	29.13
630.609	29.15
630.8	29.28
630.99	28.92
631.181	29.31
631.371	29.33
631.561	29.61
631.752	29.93
631.942	29.93
632.132	30.08
632.323	30.06
632.513	30.2
632.703	30.13
632.893	30.6
633.084	30.82
633.274	30.64
633.464	30.78
633.654	30.9
633.844	31.06
634.034	31.16
634.225	31.07
634.415	31.06
634.605	31.13
634.795	31.22
634.985	30.96
635.175	31.1
635.365	30.98
635.555	31.06
635.745	30.37
635.935	30.28
636.125	29.71
636.315	29.71
636.505	29.66
636.695	29.7
636.885	29.78
637.075	29.75
637.265	29.6
637.455	30.05
637.644	29.95
637.834	30.01
638.024	30.05
638.214	30.55
638.404	30.84
638.593	30.94
638.783	30.79
638.973	30.62
639.163	30.76
639.352	30.7
639.542	30.49
639.732	29.95
639.921	30.34
640.111	30.13
640.301	29.87
640.49	29.52
640.68	29.47
640.87	29.23
641.059	29.31
641.249	29.08
641.438	29.19
641.628	28.57
641.817	29.08
642.007	28.75
642.196	28.89
642.386	29.14
642.575	29.48
642.764	29.22
642.954	29.83
643.143	30.14
643.333	30.07
643.522	29.82
643.711	30.43
643.901	30.7
644.09	30.81
644.279	30.56
644.469	30.46
644.658	30.4
644.847	30.89
645.036	30.78
645.226	30.73
645.415	30.9
645.604	31.06
645.793	31
645.982	30.55
646.171	30.9
646.361	31.48
646.55	31.59
646.739	31.38
646.928	31.5
647.117	31.52
647.306	31.35
647.495	31.15
647.684	31.16
647.873	30.98
648.062	31.28
648.251	31.21
648.44	30.66
648.629	30.6
648.818	30.6
649.007	30.62
649.196	30.6
649.384	30.57
649.573	31.09
649.762	31.1
649.951	31.4
650.14	31.07
650.328	30.82
650.517	30.71
650.706	30.84
650.895	30.98
651.083	31.14
651.272	31.23
651.461	31.51
651.65	31.09
651.838	30.98
652.027	30.93
652.216	31.1
652.404	31.32
652.593	31.76
652.781	31.89
652.97	31.97
653.158	31.8
653.347	31.83
653.535	31.33
653.724	31.58
653.912	31.93
654.101	31.77
654.289	31.55
654.478	31.7
654.666	31.42
654.855	31.04
655.043	31.13
655.231	30.51
655.42	30.66
655.608	31
655.796	30.88
655.985	30.74
656.173	31.03
656.361	31.18
656.55	30.87
656.738	30.99
656.926	31.08
657.114	31.09
657.302	31.62
657.491	31.31
657.679	31.62
657.867	31.46
658.055	31.29
658.243	31.2
658.431	31.62
658.619	31.38
658.807	31.37
658.996	31.27
659.184	31.26
659.372	31.23
659.56	31.53
659.748	31.24
659.936	31.34
660.124	31.7
660.311	31.91
660.499	32.09
660.687	32.27
660.875	32.42
661.063	32.53
661.251	32.47
661.439	32.63
661.627	32.39
661.814	32.61
662.002	32.99
662.19	33.03
662.378	32.74
662.565	32.24
662.753	32.57
662.941	32.06
663.129	32.71
663.316	32.74
663.504	32.7
663.692	32.74
663.879	32.6
664.067	32.22
664.254	31.6
664.442	31.96
664.63	32.39
664.817	32.63
665.005	33.14
665.192	32.65
665.38	32.79
665.567	32.95
665.755	32.2
665.942	31.9
666.13	31.77
666.317	32.1
666.504	31.65
666.692	31.43
666.879	31.13
667.067	31.01
667.254	31
667.441	30.69
667.629	30.4
667.816	31.32
668.003	31.3
668.19	31.44
668.378	31.44
668.565	31.43
668.752	31.4
668.939	31.36
669.127	31.49
669.314	31.12
669.501	31.39
669.688	31.65
669.875	31.43
670.062	31.73
670.249	32.05
670.436	32.23
670.623	32.05
670.81	31.92
670.997	31.89
671.184	32.44
671.371	33.19
671.558	33.21
671.745	33.22
671.932	33.23
672.119	33.36
672.306	33.56
672.493	33.35
672.68	33.74
672.867	33.45
673.054	33.38
673.24	33.05
673.427	32.69
673.614	32.39
673.801	31.98
673.988	32.41
674.174	32.18
674.361	31.03
674.548	31.14
674.734	30.93
674.921	31.26
675.108	31.5
675.294	31.11
675.481	31.08
675.668	30.94
675.854	31.22
676.041	31.27
676.227	31.23
676.414	31.82
676.601	31.06
676.787	31.12
676.974	30.43
677.16	30.31
677.347	30.92
677.533	30.78
677.719	30.93
677.906	30.8
678.092	30.33
678.279	30.89
678.465	31.24
678.651	32.3
678.838	32.87
679.024	33.06
679.21	33.58
679.397	33.08
679.583	33.71
679.769	33.86
679.955	33.96
680.142	34.08
680.328	33.74
680.514	33.5
680.7	33.55
680.886	33.42
681.073	34.08
681.259	33.53
681.445	33.67
681.631	33.58
681.817	34.05
682.003	34.31
682.189	34.41
682.375	34.39
682.561	34.72
682.747	34.02
682.933	33.29
683.119	32.8
683.305	33.38
683.491	33.26
683.677	32.7
683.863	32.39
684.049	32.34
684.235	32.83
684.42	32.98
684.606	32.65
684.792	33.18
684.978	34.02
685.164	34.27
685.349	34.64
685.535	35.11
685.721	35.48
685.907	35.03
686.092	34.46
686.278	33.46
686.464	33.28
686.649	33.55
686.835	33.87
687.021	34.39
687.206	34.36
687.392	33.44
687.577	33.26
687.763	33.23
687.948	33.32
688.134	33.67
688.319	34.24
688.505	34.55
688.69	33.85
688.876	33.55
689.061	33.1
689.247	33.38
689.432	33.53
689.618	33.49
689.803	33.59
689.988	33.5
690.174	33.9
690.359	33.82
690.544	33.64
690.73	34.62
690.915	34.64
691.1	33.86
691.285	33.59
691.471	33.72
691.656	33.71
691.841	33.55
692.026	33.68
692.211	33.12
692.396	32.84
692.582	33.2
692.767	32.75
692.952	32.69
693.137	33.04
693.322	33.07
693.507	33.56
693.692	33.69
693.877	33.55
694.062	34.27
694.247	34.57
694.432	34.29
694.617	33.67
694.802	33.45
694.987	33.25
695.172	33.46
695.357	33.46
695.541	33.05
695.726	32.91
695.911	33.01
696.096	32.09
696.281	32.25
696.466	32.54
696.65	32.89
696.835	32.97
697.02	32.97
697.204	32.87
697.389	33.09
697.574	33.15
697.759	33.11
697.943	33.4
698.128	33.56
698.312	33.24
698.497	33.46
698.682	33.12
698.866	33.19
699.051	33.47
699.235	33.82
699.42	33.61
699.604	33.59
699.789	33.5
699.973	33.28
700.158	33.42
700.342	33.61
700.527	33.7
700.711	34.35
700.895	34.47
701.08	34.59
701.264	34.83
701.448	35.24
701.633	35.33
701.817	35.77
702.001	36.31
702.186	36.44
702.37	36.56
702.554	36.54
702.738	36.3
702.923	36.04
703.107	36.26
703.291	35.48
703.475	34.48
703.659	33.96
703.843	33.77
704.027	33.16
704.212	32.66
704.396	31.89
704.58	31.92
704.764	32.14
704.948	32.25
705.132	31.88
705.316	32.61
705.5	33.9
705.684	34.67
705.868	34.25
706.052	34.1
706.235	34.82
706.419	36.21
706.603	36.28
706.787	35.96
706.971	36.69
707.155	36.65
707.339	35.98
707.522	35.63
707.706	35.1
707.89	35.38
708.074	35.76
708.257	35.5
708.441	34.68
708.625	34.33
708.808	34.33
708.992	33.39
709.176	33.14
709.359	32.51
709.543	32.44
709.727	32.69
709.91	33.07
710.094	32.87
710.277	32.96
710.461	32.74
710.644	32.62
710.828	32.58
711.011	33.28
711.195	34.08
711.378	34.48
711.562	34.77
711.745	34.52
711.928	34.32
712.112	34.36
712.295	34.3
712.478	34.82
712.662	35.08
712.845	35.18
713.028	35.24
713.212	34.51
713.395	35.28
713.578	34.84
713.761	34.52
713.945	34.35
714.128	34.43
714.311	34.21
714.494	34.95
714.677	34.65
714.86	34.1
715.043	33.42
715.227	33.49
715.41	33.48
715.593	33.25
715.776	33.84
715.959	34.05
716.142	34.06
716.325	34.47
716.508	33.45
716.691	34.01
716.874	35.09
717.057	35.23
717.239	35.65
717.422	35.2
717.605	35.24
717.788	35
717.971	35.4
718.154	35.22
718.337	35.65
718.519	35.6
718.702	35.15
718.885	34.6
719.068	34.98
719.25	34.32
719.433	33.35
719.616	34.37
719.798	34.77
719.981	33.8
720.164	34.49
720.346	33.81
720.529	34.53
720.712	35.33
720.894	35.21
721.077	35.08
721.259	35.71
721.442	35.79
721.624	35.94
721.807	35.24
721.989	36.29
722.172	35.53
722.354	35.5
722.537	35.66
722.719	34.88
722.901	35.11
723.084	34.95
723.266	34.91
723.448	36.72
723.631	36.07
723.813	36.37
723.995	35.81
724.178	35.55
724.36	35.22
724.542	34.81
724.724	35.28
724.907	34.93
725.089	35.47
725.271	35.34
725.453	33.88
725.635	33.92
725.817	34.14
725.999	34.88
726.181	35.03
726.364	35.47
726.546	35.62
726.728	34.53
726.91	35.27
727.092	35.11
727.274	35.03
727.456	35.3
727.638	35.17
727.819	35.28
728.001	35.04
728.183	35.88
728.365	36.12
728.547	36.1
728.729	36.54
728.911	36.44
729.093	36.62
729.274	36.73
729.456	37.46
729.638	37.67
729.82	36.86
730.001	36.58
730.183	36.48
730.365	36.63
730.546	36.21
730.728	36.22
730.91	35.13
731.091	34.34
731.273	33.11
731.455	33.16
731.636	33.05
731.818	33.86
731.999	33.81
732.181	33.4
732.362	32.75
732.544	33.24
732.725	33.95
732.907	35.19
733.088	36.48
733.27	38.14
733.451	37.88
733.633	39.42
733.814	39.2
733.995	38.69
734.177	39.21
734.358	39.8
734.539	39.06
734.721	38.81
734.902	38.52
735.083	37.55
735.264	37.69
735.446	37.24
735.627	35
735.808	36.09
735.989	36.83
736.17	36.1
736.351	34.69
736.533	35.44
736.714	34.64
736.895	34.77
737.076	33.87
737.257	32.19
737.438	32.66
737.619	33.38
737.8	32.42
737.981	33.26
738.162	33.34
738.343	34.39
738.524	34.29
738.705	35.81
738.886	34.54
739.067	35.63
739.247	35.88
739.428	36.74
739.609	35.5
739.79	36.17
739.971	36.02
740.151	35.68
740.332	35.26
740.513	35.86
740.694	34.72
740.874	35.48
741.055	34.95
741.236	34.77
741.417	33.93
741.597	35.5
741.778	35.42
741.958	33.21
742.139	33.01
742.32	32.51
742.5	30.83
742.681	31.02
742.861	31.22
743.042	32.46
743.222	33.78
743.403	35.29
743.583	35.33
743.764	35.03
743.944	37.98
744.124	39.47
744.305	40.09
744.485	40.39
744.666	38.33
744.846	38.36
745.026	37.49
745.207	37.81
745.387	37.01
745.567	35.81
745.747	34.93
745.928	33.94
746.108	33.48
746.288	33.83
746.468	34.46
746.648	36.42
746.829	36.28
747.009	35.41
747.189	33.64
747.369	33.75
747.549	34.66
747.729	34.59
747.909	33.53
748.089	33.77
748.269	33.44
748.449	34.91
748.629	34.25
748.809	34.53
748.989	36.22
749.169	37.63
749.349	36.27
749.529	36
749.709	36.97
749.889	37.64
750.068	36.13
750.248	38.34
750.428	37.81
750.608	39.08
750.788	39.39
750.967	38.32
751.147	36.37
751.327	35.64
751.507	35.27
751.686	35.55
751.866	34.26
752.046	35.78
752.225	34.6
752.405	33.94
752.585	34.29
752.764	33.25
752.944	34.11
753.123	35.23
753.303	36.29
753.482	37.35
753.662	36.07
753.841	37.96
754.021	37.66
754.2	37.56
754.38	36.99
754.559	36.51
754.739	37.25
754.918	36.85
755.097	36.09
755.277	36.54
755.456	36.65
755.635	36.76
755.815	35.52
755.994	35.93
756.173	34.18
756.352	34.25
756.532	32.63
756.711	32.85
756.89	33.19
757.069	34.16
757.248	34.54
757.427	34.91
757.607	35.47
757.786	35.32
757.965	35.71
758.144	37.87
758.323	38.43
758.502	39.94
758.681	39.29
758.86	38.87
759.039	39.07
759.218	37.96
759.397	36.53
759.576	35.95
759.755	35.93
759.934	34.67
760.113	34.71
760.291	34.91
760.47	34.92
760.649	34.11
760.828	35.97
761.007	37.12
761.186	38.04
761.364	38.37
761.543	38.98
761.722	38.86
761.901	39.27
762.079	39.3
762.258	38.85
762.437	38.97
762.615	39.33
762.794	38.72
762.972	38.52
763.151	37.86
763.33	38.41
763.508	37.94
763.687	38.23
763.865	38.67
764.044	37.47
764.222	37.98
764.401	37.85
764.579	37.97
764.758	38.2
764.936	37.63
765.114	38.07
765.293	38.3
765.471	38.71
765.65	38.93
765.828	38.14
766.006	38.84
766.184	38.16
766.363	37.17
766.541	38.15
766.719	37.1
766.898	35.86
767.076	33.35
767.254	32.67
767.432	32.39
767.61	32.39
767.788	32.17
767.967	32.37
768.145	31.75
768.323	32.04
768.501	31.91
768.679	31.15
768.857	33.27
769.035	35.03
769.213	34.41
769.391	34.48
769.569	34.25
769.747	33.77
769.925	33.23
770.103	33.4
770.281	34.68
770.459	33.79
770.636	34.32
770.814	32.82
770.992	34.2
771.17	35.81
771.348	35.63
771.525	36.85
771.703	39.48
771.881	40.74
772.059	41.43
772.236	41.54
772.414	43.7
772.592	41.85
772.769	41.78
772.947	42.6
773.125	40.21
773.302	40.39
773.48	38.99
773.657	35.39
773.835	33.51
774.013	34.94
774.19	35.31
774.368	34.09
774.545	38.01
774.723	39.64
774.9	37.15
775.077	37.81
775.255	39.33
775.432	39.31
775.61	41.01
775.787	43.24
775.964	40.92
776.142	38.61
776.319	36.87
776.496	35.65
776.674	35.58
776.851	35.61
777.028	36.74
777.205	34.22
777.382	33.82
777.56	33.8
777.737	29.7
777.914	30.36
778.091	30.65
778.268	32.03
778.445	33.51
778.622	32.11
778.8	34.11
778.977	36.45
779.154	34.96
779.331	35.95
779.508	36.17
779.685	38.76
779.862	39.51
780.038	39.64
780.215	39.08
780.392	38.15
780.569	38.44
780.746	36.43
780.923	35.45
781.1	35.9
781.277	34.96
781.453	36.09
781.63	32.76
781.807	33.47
781.984	32.59
782.16	31.6
782.337	32.37
782.514	32.94
782.691	34.67
782.867	33.33
783.044	36.4
783.221	37.09
783.397	36.72
783.574	39.19
783.75	36.48
783.927	40.6
784.103	42.34
784.28	41.79
784.456	41.55
784.633	40.41
784.809	40.97
784.986	40.81
785.162	41.05
785.339	40.58
785.515	41.13
785.692	44.09
785.868	42.61
786.044	40.93
786.221	41.49
786.397	41.09
786.573	42.92
786.749	38.13
786.926	37.92
787.102	37.61
787.278	38.74
787.454	38.1
787.631	37.57
787.807	39.43
787.983	38.25
788.159	36.97
788.335	37.37
788.511	37.45
788.687	39.59
788.863	36.46
789.039	39.16
789.216	37.79
789.392	38.2
789.568	37.64
789.744	36.24
789.919	37.47
790.095	36.45
790.271	37.18
790.447	34.35
790.623	33.59
790.799	37.09
790.975	34.71
791.151	35.35
791.327	35.44
791.502	36.15
791.678	34.19
791.854	33.48
792.03	32.56
792.205	30.88
792.381	32.61
792.557	35.43
792.733	33.13
792.908	33.49
793.084	34.31
793.259	34.79
793.435	32.56
793.611	35.86
793.786	34.46
793.962	36.69
794.137	38.32
794.313	38.34
794.488	37.84
794.664	36.17
794.839	35.35
795.015	37.32
795.19	36.63
795.366	36.18
795.541	32.16
795.716	39.04
795.892	37.86
796.067	37.78
796.242	39.5
796.418	38.29
796.593	43.63
796.768	41.7
796.944	37.51
797.119	38.07
797.294	38.61
797.469	39.28
797.644	36.07
797.82	35.77
797.995	35.17
798.17	33.77
798.345	32.47
798.52	30.02
798.695	31.08
798.87	30.78
799.045	27.12
799.22	29.38
799.395	29.67
799.57	32.04
799.745	33.7
799.92	36.36
800.095	34.94
800.27	33.72
800.445	35.3
800.62	37.37
800.795	41.57
800.97	44.3
801.145	42.68
801.319	45.74
801.494	41.89
801.669	46.16
801.844	40.68
802.018	41.35
802.193	46.11
802.368	47.56
802.543	39.56
802.717	35.22
802.892	36.92
803.067	31.98
803.241	31.87
803.416	32.57
803.59	27.2
803.765	31.12
803.94	31.25
804.114	27.53
804.289	24.34
804.463	26.94
804.638	25.9
804.812	23.65
804.986	31.26
805.161	29.94
805.335	31.72
805.51	29.77
805.684	24.65
805.858	25.18
806.033	25.44
806.207	27.13
806.381	31.77
806.556	33.93
806.73	35.14
806.904	29.85
807.078	28.93
807.253	26.95
807.427	31.12
807.601	36.41
807.775	35.34
807.949	33.83
808.123	33.05
808.298	31.4
808.472	33.98
808.646	34.74
808.82	38
808.994	41.45
809.168	38.22
809.342	33.89
809.516	30.33
809.69	32.14
809.864	36.37
810.038	33.91
810.212	36.38
810.385	34.79
810.559	34.51
810.733	33.8
810.907	29.73
811.081	33.08
811.255	39.19
811.428	46.39
811.602	46.46
811.776	42.37
811.95	41.17
812.123	39.47
812.297	37.71
812.471	34.57
812.644	34.33
812.818	38.39
812.992	38.06
813.165	33.46
813.339	27
813.512	31.91
813.686	31.61
813.86	31.11
814.033	29.55
814.207	31.43
814.38	35.81
814.554	39.04
814.727	38.77
814.9	41.4
815.074	46.02
815.247	48.69
815.421	43.36
815.594	46.28
815.767	49.56
815.941	55.15
816.114	58.57
816.287	56.42
816.46	50.61
816.634	48.15
816.807	48.51
816.98	48.58
817.153	40.36
817.327	41.92
817.5	44
817.673	44.39
817.846	42.05
818.019	38.51
818.192	41.94
818.365	44.79
818.538	41.46
818.711	39.94
818.884	41.68
819.057	44.67
819.23	45.14
819.403	42.93
819.576	42.22
819.749	39.51
819.922	41.07
820.095	40.82
820.268	36.65
820.441	38.36
820.614	38.03
820.786	34.88
820.959	36.5
821.132	33.96
821.305	34.34
821.477	35.34
821.65	35.91
821.823	35.85
821.996	35.19
822.168	36.96
822.341	37.67
822.514	37.57
822.686	38.38
822.859	38.1
823.031	38.47
823.204	37.57
823.376	37.75
823.549	38.18
823.722	37.76
823.894	38.43
824.067	37.92
824.239	37.47
824.411	37.07
824.584	36.43
824.756	36.94
824.929	37.67
825.101	38.7
825.273	37.77
825.446	37.24
825.618	37.47
825.79	36.29
825.963	36.32
826.135	35.84
826.307	35.96
826.479	35.78
826.652	35.53
826.824	34.7
826.996	34.77
827.168	36
827.34	34.22
827.512	34.76
827.684	36.11
827.856	36.17
828.029	35.59
828.201	35.17
828.373	36.36
828.545	36.85
828.717	36.39
828.889	37.95
829.061	37.16
829.232	40.38
829.404	40.58
829.576	41.58
829.748	42.68
829.92	46.91
830.092	47.52
830.264	43.93
830.436	42.57
830.607	45.19
830.779	42.58
830.951	43.01
831.123	40.39
831.294	39.37
831.466	37.07
831.638	36.5
831.809	34.5
831.981	41.01
832.153	44.45
832.324	46.65
832.496	41.12
832.667	42.34
832.839	43.68
833.011	44.94
833.182	46.06
833.354	44.52
833.525	44.9
833.697	41.18
833.868	38.69
834.039	40.73
834.211	40.85
834.382	42.88
834.554	41.15
834.725	39.53
834.896	38.25
835.068	36.52
835.239	39.09
835.41	37.88
835.581	38.36
835.753	35.89
835.924	36.17
836.095	33.9
836.266	30.89
836.438	34.03
836.609	35.28
836.78	38.56
836.951	38.54
837.122	36.73
837.293	37.98
837.464	42.88
837.635	47.76
837.806	43.61
837.977	45.23
838.148	52.38
838.319	54.07
838.49	58.64
838.661	60.64
838.832	69.7
839.003	70.8
839.174	72.89
839.345	64.68
839.516	60.46
839.687	57.23
839.857	62.68
840.028	62.6
840.199	63.28
840.37	52.73
840.54	53.9
840.711	49.41
840.882	45.89
841.053	41.65
841.223	35.71
841.394	41.47
841.564	47.9
841.735	39.31
841.906	32.29
842.076	28.09
842.247	30.32
842.417	24.24
842.588	25.95
842.758	26.23
842.929	26.11
843.099	36.33
843.27	34.6
843.44	31.58
843.611	41.73
843.781	45.1
843.951	51.51
844.122	57.36
844.292	56.65
844.462	58.28
844.633	63.54
844.803	71.96
844.973	54.41
845.144	50.78
845.314	62
845.484	81.34
845.654	83.54
845.824	69.02
845.995	77.12
846.165	85.44
846.335	71.97
846.505	81.49
846.675	52.74
846.845	86.78
847.015	85.38
847.185	66.08
847.355	33.32
847.525	50.14
847.695	62.98
847.865	50.6
848.035	21.07
848.205	68.26
848.375	78.51
848.545	155.32
848.715	113.77
848.884	108.81
849.054	117.57
849.224	150.69
849.394	186.63
849.564	151.1
849.733	120.36
849.903	124.19
850.073	128.99
850.243	75.47
850.412	-5.02
850.582	-28.09
850.752	-13.29
850.921	-47.53
851.091	-19.08
851.26	-2.7
851.43	-23.73
851.599	-18.7
851.769	18.63
851.939	27.66
852.108	35.69
852.278	84.04
852.447	114.82
852.616	170.74
852.786	139.55
852.955	191.54
853.125	94.04
853.294	88.96
853.463	91.26
853.633	56.16
853.802	76.8
853.971	68.9
854.141	52.65
854.31	50.24
854.479	53.91
854.648	44.18
854.818	42.52
854.987	51.48
855.156	47.26
855.325	57.99
855.494	42.29
855.663	33.96
855.832	37.21
856.001	23.49
856.171	28.15
856.34	10.13
856.509	51.85
856.678	66.69
856.847	86.53
857.016	91.94
857.185	98.94
857.353	156.22
857.522	171.76
857.691	129.69
857.86	110.34
858.029	103.58
858.198	108.62
858.367	108.87
858.535	137.39
858.704	144.33
858.873	170.78
859.042	91.12
859.21	86.76
859.379	59.98
859.548	121.57
859.717	264.56
859.885	145.46
860.054	394.46
860.222	185.85
860.391	119.76
860.56	84.14
860.728	93.87
860.897	118.56
861.065	133.57
861.234	131.12
861.402	76.32
861.571	78.6
861.739	121.82
861.908	113.44
862.076	107
862.244	110.95
862.413	115.21
862.581	98.72
862.749	111.31
862.918	103.24
863.086	122.76
863.254	117.87
863.423	120.35
863.591	99.2
863.759	92.04
863.927	86.52
864.096	73.71
864.264	44.14
864.432	48.61
864.6	80.85
864.768	62.56
864.936	54.08
865.104	55.37
865.272	24.32
865.44	48.29
865.608	36.19
865.776	24.76
865.944	59.43
866.112	73.18
866.28	83.47
866.448	56.73
866.616	92.95
866.784	108.8
866.952	134.6
867.12	127.68
867.288	202.53
867.455	1135.6
867.623	509.06
867.791	-971.33
867.959	-1294.29
868.127	-124.57
868.294	-108.54
868.462	2.35
868.63	95.59
868.797	237.84
868.965	1106.78
869.133	-23.15
869.3	24.9
869.468	51.69
869.636	-45.12
869.803	-390.84
869.971	-56.59
870.138	3.22
870.306	9.97
870.473	33.57
870.641	29.57
870.808	37.17
870.975	9.57
871.143	19.6
871.31	44.21
871.478	70.32
871.645	73.87
871.812	74.43
871.98	95.95
872.147	113.18
872.314	95.48
872.482	103.86
872.649	105.64
872.816	101.62
872.983	81.97
873.15	60.01
873.318	58.96
873.485	69.55
873.652	72.21
873.819	32.17
873.986	25.99
874.153	48.49
874.32	35.45
874.487	2.82
874.654	0.74
874.821	-7.93
874.988	-2.55
875.155	8.38
875.322	-54.02
875.489	-30.7
875.656	-20.41
875.823	-12.58
875.99	11.92
876.157	11.69
876.324	22.81
876.49	34.04
876.657	37.67
876.824	49.75
876.991	42.95
877.157	65.91
877.324	71.04
877.491	84.23
877.658	108.76
877.824	69.5
877.991	92.18
878.157	134.77
878.324	147.02
878.491	149.43
878.657	195.33
878.824	190.36
878.99	175.61
879.157	172.98
879.323	128.64
879.49	113.72
879.656	133.37
879.823	124.79
879.989	100.44
880.156	66.24
880.322	59.08
880.488	38.22
880.655	39.27
880.821	65.51
880.987	70.63
881.154	69.41
881.32	58.72
881.486	51.38
881.652	50.33
881.819	44.03
881.985	49.25
882.151	46.31
882.317	51.85
882.483	47.01
882.649	41.85
882.816	40.4
882.982	39.81
883.148	41.9
883.314	42.95
883.48	42.49
883.646	37.52
883.812	33.69
883.978	35.45
884.144	33.25
884.31	31.46
884.476	35.86
884.642	34.99
884.807	36.06
884.973	34.18
885.139	34.04
885.305	34.42
885.471	36.15
885.637	37.88
885.802	35.62
885.968	36.81
886.134	38.31
886.3	36.75
886.465	35.99
886.631	41.59
886.797	40
886.962	37.82
887.128	35.62
887.293	39.79
887.459	39.17
887.625	48.59
887.79	37.54
887.956	59.11
888.121	47.93
888.287	53.93
888.452	43.9
888.618	51.15
888.783	59.83
