Data from 2937887_Reflection_1.txt Node
Date: Wed Jul 15 14:27:21 EDT 2015
User: robert
Spectrometer: USB4E03001
Autoset integration time: false
Trigger mode: 4
Integration Time (sec): 1.000000E-1
Scans to average: 10
Electric dark correction enabled: true
Nonlinearity correction enabled: false
Boxcar width: 5
Stray light correction enabled: false
XAxis mode: Wavelengths
Stop averaging: false
Number of Pixels in Spectrum: 3648
>>>>>Begin Spectral Data<<<<<
177.566	11648.89
177.785	-636.18
178.005	-64.28
178.225	-22.6
178.445	-88.04
178.665	-93.55
178.885	-135.71
179.105	-700.7
179.324	-274.34
179.544	-2793.75
179.764	742.98
179.984	-259.92
180.204	-105.54
180.423	-27.34
180.643	-23.27
180.863	-28.69
181.083	-68.59
181.302	-75.75
181.522	-60.94
181.742	-63.61
181.961	-45.63
182.181	-38.63
182.401	-43.64
182.621	-29.96
182.84	-33.9
183.06	-35.32
183.279	-25.27
183.499	2.42
183.719	6.67
183.938	29.52
184.158	34.68
184.377	17.89
184.597	3.73
184.816	-5.57
185.036	-9.33
185.256	0.89
185.475	2.3
185.695	-1.31
185.914	6.99
186.134	4.87
186.353	-29.07
186.572	-34.53
186.792	-33.78
187.011	-49.18
187.231	-72.93
187.45	-69.61
187.67	-100.81
187.889	-21.24
188.108	-39.98
188.328	-59.77
188.547	-66.36
188.766	-63.95
188.986	-52.19
189.205	-18.21
189.424	30.73
189.644	30.39
189.863	5.95
190.082	-9.16
190.302	-2.94
190.521	2.74
190.74	2.92
190.959	-17.1
191.178	1.74
191.398	-38.24
191.617	-82.89
191.836	-217.31
192.055	-148.47
192.274	-53.08
192.494	-49.44
192.713	-134.78
192.932	-143.2
193.151	-235.87
193.37	-122.48
193.589	-123.48
193.808	-66.54
194.027	-78.38
194.246	-26.2
194.465	-44.49
194.685	-104.24
194.904	-85.07
195.123	-100.11
195.342	-88.07
195.561	-8.64
195.78	-22.29
195.999	-31.6
196.218	-32.38
196.436	2.11
196.655	9.18
196.874	-5.61
197.093	24.76
197.312	10.79
197.531	28.33
197.75	29.95
197.969	19.63
198.188	48.02
198.407	68.03
198.625	73.04
198.844	64.53
199.063	40.08
199.282	18.26
199.501	39.35
199.719	59.12
199.938	5.99
200.157	-28.11
200.376	-23.29
200.594	-146.92
200.813	-116.55
201.032	-200.25
201.251	-80.79
201.469	-615.14
201.688	-2729.79
201.907	3044.73
202.125	3547.62
202.344	499.19
202.563	313.39
202.781	367.8
203	404.5
203.218	465.06
203.437	-265.71
203.656	363400
203.874	-303.4
204.093	-316.95
204.311	-116.07
204.53	-215.74
204.748	-66.71
204.967	-42.67
205.185	-63.19
205.404	-67.52
205.622	-46.26
205.841	-20.19
206.059	-14.11
206.278	-6.79
206.496	-22.8
206.715	-26.29
206.933	-6.16
207.151	10.89
207.37	-65.25
207.588	-31.77
207.806	-117.42
208.025	-35.9
208.243	-42.92
208.461	-73.25
208.68	-69.62
208.898	-64.27
209.116	-113.31
209.335	-147.76
209.553	-119.48
209.771	-148.65
209.989	-80.64
210.208	-36.95
210.426	-351.06
210.644	-1044.14
210.862	-328.6
211.081	-192.11
211.299	-64.71
211.517	15.83
211.735	59.47
211.953	-67.66
212.171	48.53
212.39	-467.99
212.608	-82.97
212.826	-72.1
213.044	2.79
213.262	-21.23
213.48	-212.53
213.698	-423.14
213.916	-394.32
214.134	-105.14
214.352	-33.9
214.57	-107.13
214.788	-81.58
215.006	-146.11
215.224	-345.79
215.442	-801.75
215.66	-249.38
215.878	-129.1
216.096	-150.15
216.314	-1755.56
216.532	1063.61
216.75	496.95
216.968	910.63
217.185	354.34
217.403	526.58
217.621	178.5
217.839	128
218.057	80.95
218.275	-40.37
218.492	-203.02
218.71	-49.17
218.928	4.36
219.146	-11.06
219.363	-200.58
219.581	-94.48
219.799	-177.79
220.017	-383.99
220.234	-495.48
220.452	-740.39
220.67	265.25
220.887	534.67
221.105	21.2
221.323	6.52
221.54	102.55
221.758	85.87
221.976	164.44
222.193	202.56
222.411	216.69
222.629	200.75
222.846	207.09
223.064	337.53
223.281	435.03
223.499	-899.35
223.716	-656.82
223.934	-178.65
224.151	-99.95
224.369	-60.12
224.586	-43.71
224.804	-2.38
225.021	19.71
225.239	13.88
225.456	4.01
225.674	7.09
225.891	22.35
226.108	31.54
226.326	30.33
226.543	47.15
226.76	33.73
226.978	36.16
227.195	26.43
227.413	13.74
227.63	19.57
227.847	18.95
228.064	15.03
228.282	12.44
228.499	14.26
228.716	13.61
228.934	10.01
229.151	12.08
229.368	11.71
229.585	13.63
229.802	15.84
230.02	12.45
230.237	15.36
230.454	17.21
230.671	19.67
230.888	17.15
231.105	18.15
231.323	18.27
231.54	20.71
231.757	16.2
231.974	15.04
232.191	1.81
232.408	6.82
232.625	-0.42
232.842	1.69
233.059	-2.02
233.276	2.56
233.493	-0.56
233.71	0.82
233.927	-4.99
234.144	-1.81
234.361	0.58
234.578	10.87
234.795	6.27
235.012	10.55
235.229	9.63
235.446	15.92
235.663	16.06
235.879	16.15
236.096	14.84
236.313	24.83
236.53	26.43
236.747	32.77
236.964	28.31
237.181	32.96
237.397	27.57
237.614	27.84
237.831	19.72
238.048	18.26
238.264	19.59
238.481	21.19
238.698	9.69
238.915	13.46
239.131	11.81
239.348	15.83
239.565	9.8
239.781	13.73
239.998	15.06
240.215	15.81
240.431	17.05
240.648	11.83
240.865	11.67
241.081	15.04
241.298	11.87
241.514	13.79
241.731	14.27
241.947	15.7
242.164	13.8
242.38	14.29
242.597	16.63
242.814	16.19
243.03	15.91
243.246	17.96
243.463	17.28
243.679	20.4
243.896	19.24
244.112	19.95
244.329	18.8
244.545	19.99
244.762	19.11
244.978	15.68
245.194	18.35
245.411	21.3
245.627	16.85
245.843	17
246.06	16.21
246.276	16.11
246.492	14.87
246.709	15.87
246.925	15.85
247.141	15.79
247.357	16.14
247.574	15.98
247.79	15.12
248.006	16.34
248.222	16.04
248.439	14.7
248.655	14.54
248.871	14.48
249.087	14.58
249.303	15.14
249.519	13.17
249.736	13.95
249.952	12.35
250.168	12.21
250.384	11.54
250.6	11.67
250.816	13.4
251.032	12.45
251.248	12.57
251.464	12.12
251.68	11
251.896	13.18
252.112	12.42
252.328	12.19
252.544	12.28
252.76	10.13
252.976	10.72
253.192	11.02
253.408	12.7
253.624	12.79
253.84	12.72
254.056	9.64
254.272	8.78
254.487	5.76
254.703	5.45
254.919	7.35
255.135	5.69
255.351	5.72
255.567	4.48
255.782	0.72
255.998	-0.17
256.214	-2.81
256.43	1.15
256.646	5.34
256.861	7.22
257.077	7.37
257.293	6.85
257.508	11.33
257.724	11.83
257.94	11.89
258.155	11.27
258.371	10.86
258.587	11.82
258.802	11.71
259.018	11.17
259.234	12.31
259.449	12.58
259.665	12.07
259.88	11.62
260.096	10.9
260.312	10.73
260.527	10.66
260.743	11.17
260.958	9.9
261.174	10.07
261.389	9.92
261.605	8.52
261.82	7.81
262.036	7.86
262.251	8.03
262.466	9.24
262.682	8.61
262.897	10.41
263.113	9.91
263.328	12.06
263.543	12.13
263.759	12.77
263.974	13.51
264.189	12.36
264.405	10.62
264.62	10.74
264.835	7.39
265.051	5.06
265.266	6.19
265.481	5.7
265.696	6.67
265.912	6.86
266.127	6.54
266.342	6.17
266.557	6.81
266.773	7.69
266.988	6.24
267.203	6.62
267.418	10.58
267.633	8.22
267.848	8.89
268.064	9.53
268.279	9.74
268.494	8.57
268.709	8.95
268.924	9.74
269.139	10.42
269.354	11.72
269.569	10.79
269.784	8.87
269.999	9.48
270.214	10.35
270.429	9.38
270.644	7.71
270.859	8.68
271.074	9.31
271.289	10.28
271.504	10.41
271.719	9.78
271.934	11.2
272.149	10.47
272.363	9.78
272.578	8.89
272.793	8.86
273.008	10.03
273.223	9.84
273.438	9.55
273.653	8.54
273.867	7.82
274.082	7.72
274.297	7.49
274.512	8.41
274.726	9.24
274.941	10.52
275.156	8.83
275.371	8.57
275.585	10.14
275.8	10.54
276.015	10.78
276.229	10.79
276.444	9.98
276.659	10.32
276.873	9.41
277.088	10.5
277.302	10.08
277.517	12.91
277.732	13.71
277.946	12.41
278.161	12.38
278.375	11.34
278.59	11.39
278.804	11.82
279.019	11.05
279.233	11.95
279.448	10.32
279.662	10.07
279.877	9.02
280.091	8.54
280.306	8.23
280.52	7.63
280.735	9.99
280.949	9.68
281.163	8.5
281.378	9.38
281.592	10.14
281.806	9.25
282.021	8.39
282.235	9.09
282.449	9.86
282.664	10.34
282.878	10.4
283.092	8.92
283.307	10.79
283.521	11.54
283.735	11.43
283.949	10.92
284.164	12.73
284.378	12.46
284.592	10.65
284.806	8.73
285.02	7.87
285.234	9.29
285.449	10.26
285.663	8.8
285.877	9.11
286.091	9.38
286.305	9.46
286.519	8.76
286.733	9.3
286.947	10.32
287.161	11.91
287.375	12.2
287.589	10.41
287.803	8.74
288.017	8.85
288.231	8.5
288.445	7.49
288.659	8.59
288.873	8.23
289.087	6.7
289.301	6.92
289.515	6.37
289.729	7.63
289.943	8.41
290.157	9.98
290.371	9.39
290.584	10.8
290.798	11.75
291.012	11.1
291.226	11.39
291.44	12.97
291.654	12.99
291.867	12.63
292.081	11.1
292.295	10.49
292.509	9.1
292.722	9.25
292.936	7.29
293.15	6.19
293.364	5.09
293.577	5.49
293.791	6.27
294.005	7.24
294.218	7.45
294.432	7.02
294.645	8.12
294.859	8.82
295.073	10.15
295.286	11.59
295.5	11.97
295.713	11.92
295.927	12.11
296.14	11.55
296.354	10.61
296.568	11.37
296.781	12.23
296.994	12.31
297.208	11.79
297.421	12.31
297.635	12
297.848	11.81
298.062	12.17
298.275	11.62
298.489	11.6
298.702	12.27
298.915	11.71
299.129	11.98
299.342	11.14
299.555	12.67
299.769	12.25
299.982	13.26
300.195	14.16
300.409	14.02
300.622	13.83
300.835	13.76
301.048	12.4
301.262	12.76
301.475	12.94
301.688	14.1
301.901	13.02
302.115	12.14
302.328	12.34
302.541	12.24
302.754	13.37
302.967	14.02
303.18	13.42
303.393	15.05
303.607	14.25
303.82	13.34
304.033	13.64
304.246	14.34
304.459	14.85
304.672	12.99
304.885	14.38
305.098	13.57
305.311	13.34
305.524	13.5
305.737	13
305.95	14.07
306.163	14.48
306.376	13.54
306.589	10.69
306.802	10.86
307.015	11.7
307.228	10.27
307.44	10.11
307.653	11.79
307.866	11.44
308.079	11.02
308.292	12.32
308.505	13.84
308.718	13.96
308.93	16.51
309.143	17.02
309.356	18.01
309.569	18.25
309.781	19.51
309.994	19.18
310.207	19.12
310.42	18.83
310.632	18.86
310.845	17.82
311.058	17.12
311.27	17.16
311.483	16.64
311.696	16.37
311.908	16.47
312.121	14.92
312.333	14.8
312.546	16.34
312.759	17.47
312.971	16.66
313.184	17.63
313.396	19.9
313.609	20.37
313.821	20.93
314.034	19.99
314.246	19.82
314.459	21.31
314.671	21.88
314.884	20.03
315.096	18.78
315.309	18.68
315.521	17.01
315.733	14.76
315.946	13.33
316.158	11.62
316.371	10.83
316.583	10.44
316.795	10.02
317.008	8.65
317.22	9.87
317.432	11.29
317.644	11.45
317.857	13.99
318.069	14.72
318.281	15.34
318.494	17.17
318.706	19.75
318.918	20
319.13	20.25
319.342	21.22
319.555	23.02
319.767	23.5
319.979	23.07
320.191	22
320.403	22.64
320.615	23.54
320.827	23.37
321.039	23.53
321.252	24.76
321.464	25.93
321.676	23.88
321.888	21.82
322.1	22.33
322.312	22.2
322.524	22.9
322.736	22.18
322.948	20.65
323.16	19.81
323.372	17.43
323.584	15.66
323.796	15.26
324.007	16.63
324.219	17.47
324.431	16.35
324.643	16.85
324.855	15.05
325.067	14.35
325.279	14.6
325.491	15.42
325.702	15.58
325.914	16.26
326.126	14
326.338	14.94
326.55	15.18
326.761	15.64
326.973	16.78
327.185	18.65
327.396	19.92
327.608	21.79
327.82	21.83
328.032	23.29
328.243	23.32
328.455	25.44
328.666	25.55
328.878	25.28
329.09	24.67
329.301	23.81
329.513	24.26
329.725	23.82
329.936	23.12
330.148	23.98
330.359	24.45
330.571	24.47
330.782	25.4
330.994	24.32
331.205	24.12
331.417	25.12
331.628	23.55
331.84	23.4
332.051	24.14
332.262	25.23
332.474	24.39
332.685	24.43
332.897	24.59
333.108	24.24
333.319	25.37
333.531	26.08
333.742	25.39
333.953	25.76
334.165	25.28
334.376	25.23
334.587	24.41
334.799	24.69
335.01	23.21
335.221	21.78
335.432	20.78
335.644	19.32
335.855	18.43
336.066	17.73
336.277	18.37
336.488	19.15
336.7	19.78
336.911	19.06
337.122	19.26
337.333	19.94
337.544	21.61
337.755	20.83
337.966	20.73
338.177	20.98
338.388	22.26
338.599	23.16
338.811	21.67
339.022	21.85
339.233	22.58
339.444	22.53
339.655	21.85
339.866	21.2
340.076	22.01
340.287	22.86
340.498	23.42
340.709	20.84
340.92	19.75
341.131	20.36
341.342	19.45
341.553	19.33
341.764	19.04
341.975	20.4
342.185	20.67
342.396	21.45
342.607	21.56
342.818	21.32
343.029	23.93
343.239	23.22
343.45	24.12
343.661	24.3
343.872	22.7
344.082	22.71
344.293	22.73
344.504	22.39
344.714	22.35
344.925	21.85
345.136	22.14
345.346	21.98
345.557	22.36
345.768	21.39
345.978	21.57
346.189	23.14
346.399	22.65
346.61	20.78
346.821	21.83
347.031	21.98
347.242	21.74
347.452	21.08
347.663	21.69
347.873	22.61
348.084	22.42
348.294	22.17
348.504	21.21
348.715	22.23
348.925	23.68
349.136	22.36
349.346	22
349.557	22.28
349.767	22.03
349.977	20.71
350.188	19.36
350.398	19.87
350.608	19.49
350.819	20.51
351.029	19.64
351.239	19.24
351.449	20.42
351.66	19.54
351.87	18.72
352.08	17.53
352.29	16.81
352.501	17.48
352.711	17.16
352.921	17.34
353.131	16.44
353.341	16.69
353.552	16.6
353.762	15.85
353.972	16.23
354.182	17.97
354.392	19.01
354.602	19.53
354.812	18.8
355.022	19.36
355.232	18.36
355.442	18.37
355.652	17.49
355.862	17.5
356.072	17.62
356.282	16.84
356.492	16.23
356.702	15.78
356.912	16.03
357.122	16.57
357.332	15.57
357.542	15.66
357.752	16.19
357.962	16.31
358.171	17.06
358.381	16.95
358.591	18.03
358.801	18.02
359.011	18.16
359.221	17.04
359.43	17.28
359.64	17.53
359.85	17.49
360.06	17.51
360.269	17.53
360.479	16.5
360.689	15.77
360.899	15.71
361.108	15.62
361.318	15.99
361.528	16.18
361.737	16.32
361.947	15.95
362.156	16.15
362.366	15.68
362.576	15.54
362.785	15.71
362.995	16.07
363.204	15.61
363.414	15.66
363.623	15.57
363.833	15.77
364.042	15.49
364.252	15.79
364.461	15.66
364.671	15.59
364.88	15.8
365.09	16.15
365.299	15.77
365.509	15.71
365.718	15.56
365.927	15.56
366.137	15.6
366.346	15.07
366.555	14.82
366.765	14.74
366.974	13.96
367.183	14.18
367.393	14.11
367.602	14.13
367.811	13.84
368.021	13.3
368.23	13.24
368.439	13.97
368.648	15.12
368.857	15.34
369.067	16.01
369.276	17.08
369.485	16.95
369.694	16.05
369.903	16.01
370.112	16.42
370.321	16.42
370.531	16.48
370.74	15.52
370.949	14.64
371.158	14.59
371.367	14.33
371.576	13.62
371.785	13.51
371.994	13.43
372.203	13.63
372.412	13.77
372.621	14.25
372.83	13.77
373.039	14.59
373.248	14.96
373.457	14.35
373.666	14.28
373.874	14.77
374.083	14.93
374.292	15.33
374.501	15.79
374.71	14.8
374.919	14.91
375.128	14.31
375.336	13.73
375.545	13.79
375.754	14.17
375.963	13.57
376.171	14.03
376.38	13.78
376.589	14.04
376.798	13.61
377.006	14.11
377.215	13.89
377.424	14.52
377.632	14.55
377.841	14.37
378.05	15.15
378.258	15.49
378.467	15.44
378.675	15.28
378.884	15.03
379.093	15.12
379.301	14.88
379.51	15
379.718	15
379.927	14.74
380.135	14.61
380.344	14.19
380.552	13.43
380.761	12.57
380.969	12.83
381.177	11.88
381.386	12.09
381.594	12.36
381.803	11.67
382.011	11.52
382.219	11.36
382.428	11.02
382.636	10.56
382.845	10.89
383.053	11.05
383.261	10.74
383.469	11.27
383.678	10.51
383.886	10.53
384.094	11.02
384.302	11.18
384.511	11
384.719	10.91
384.927	11.12
385.135	11.23
385.343	11.35
385.552	11.3
385.76	11.46
385.968	11.77
386.176	11.81
386.384	11.38
386.592	10.96
386.8	11.2
387.008	11.27
387.216	10.66
387.424	10.73
387.633	10.2
387.841	10.12
388.049	10.25
388.257	9.79
388.465	10.08
388.672	10.2
388.88	10.35
389.088	10.13
389.296	9.86
389.504	9.98
389.712	10.42
389.92	10.72
390.128	10.96
390.336	10.6
390.544	10.99
390.751	10.78
390.959	10.8
391.167	10.96
391.375	11.12
391.583	11.25
391.79	11.37
391.998	10.85
392.206	10.98
392.414	10.95
392.621	11.4
392.829	11.41
393.037	11.06
393.244	11.3
393.452	11.01
393.66	10.98
393.867	11.09
394.075	11.39
394.283	11.57
394.49	11.16
394.698	11.11
394.905	10.77
395.113	10.89
395.32	10.84
395.528	10.5
395.735	10.48
395.943	10.21
396.15	10.11
396.358	9.73
396.565	9.52
396.773	9.67
396.98	9.55
397.188	9.7
397.395	9.87
397.602	10.14
397.81	9.9
398.017	9.82
398.225	9.86
398.432	9.88
398.639	10.05
398.847	10.31
399.054	10.09
399.261	10.04
399.468	9.65
399.676	9.5
399.883	9.48
400.09	9.59
400.297	10
400.505	10.52
400.712	10.54
400.919	10.39
401.126	9.95
401.333	10.17
401.54	10.22
401.748	10.37
401.955	10.08
402.162	9.83
402.369	10.04
402.576	10.14
402.783	9.86
402.99	9.94
403.197	10.04
403.404	10.05
403.611	10.45
403.818	10.22
404.025	10.14
404.232	10.16
404.439	10.31
404.646	9.92
404.853	9.78
405.06	9.91
405.267	9.59
405.474	9.58
405.681	9.77
405.887	9.86
406.094	10.07
406.301	9.95
406.508	9.66
406.715	9.57
406.922	9.94
407.128	9.66
407.335	9.23
407.542	8.92
407.749	8.99
407.955	8.91
408.162	8.41
408.369	8.24
408.575	8.63
408.782	8.94
408.989	8.79
409.195	8.41
409.402	8.25
409.609	8.32
409.815	8.79
410.022	8.7
410.228	8.49
410.435	8.4
410.642	8.49
410.848	8.16
411.055	8.3
411.261	8.15
411.468	7.97
411.674	8.22
411.881	8.19
412.087	8.35
412.294	8.22
412.5	8.46
412.706	8.35
412.913	8.35
413.119	8.34
413.326	7.98
413.532	8.29
413.738	8.81
413.945	8.68
414.151	8.47
414.357	8.44
414.564	8.43
414.77	8.41
414.976	8.58
415.182	8.33
415.389	8.31
415.595	8.41
415.801	8.25
416.007	8.4
416.214	8.29
416.42	8.6
416.626	8.57
416.832	8.5
417.038	8.46
417.244	8.57
417.45	8.78
417.657	8.87
417.863	8.94
418.069	8.95
418.275	8.86
418.481	9.06
418.687	8.82
418.893	8.85
419.099	8.9
419.305	8.9
419.511	8.71
419.717	8.73
419.923	8.79
420.129	8.73
420.335	8.72
420.541	8.56
420.746	8.33
420.952	8.33
421.158	8.07
421.364	7.97
421.57	7.83
421.776	8.09
421.982	7.89
422.187	7.78
422.393	7.72
422.599	7.8
422.805	7.93
423.01	8.02
423.216	8.11
423.422	8.16
423.628	8.19
423.833	8.33
424.039	8.17
424.245	8.43
424.45	8.6
424.656	8.72
424.862	8.59
425.067	8.5
425.273	8.48
425.478	8.41
425.684	8.48
425.889	8.39
426.095	8.45
426.301	8.5
426.506	8.12
426.712	7.88
426.917	7.71
427.123	7.68
427.328	7.61
427.533	7.61
427.739	7.71
427.944	7.63
428.15	7.67
428.355	7.59
428.561	7.46
428.766	7.53
428.971	7.75
429.177	7.85
429.382	7.9
429.587	7.96
429.793	7.78
429.998	7.73
430.203	8.09
430.408	8.14
430.614	8.29
430.819	8.31
431.024	8.38
431.229	8.28
431.434	8.27
431.64	8.23
431.845	8.17
432.05	8.34
432.255	8.3
432.46	8.01
432.665	8.04
432.87	7.88
433.076	7.88
433.281	7.93
433.486	7.9
433.691	7.81
433.896	7.73
434.101	7.69
434.306	7.7
434.511	7.75
434.716	8.05
434.921	8.18
435.126	8.15
435.331	8.03
435.535	8.13
435.74	8.18
435.945	8.31
436.15	8.58
436.355	8.81
436.56	8.67
436.765	8.56
436.97	8.28
437.174	7.95
437.379	7.91
437.584	8.03
437.789	7.92
437.993	7.94
438.198	7.94
438.403	7.68
438.608	7.41
438.812	7.55
439.017	7.74
439.222	7.63
439.426	7.75
439.631	7.63
439.836	7.57
440.04	7.65
440.245	7.37
440.45	7.36
440.654	7.42
440.859	7.52
441.063	7.47
441.268	7.2
441.472	7.25
441.677	7.24
441.881	7.45
442.086	7.43
442.29	7.27
442.495	7.47
442.699	7.51
442.904	7.65
443.108	7.66
443.312	7.88
443.517	8.08
443.721	7.76
443.925	7.77
444.13	7.91
444.334	7.99
444.538	7.97
444.743	7.88
444.947	7.68
445.151	7.44
445.356	7.44
445.56	7.48
445.764	7.41
445.968	7.62
446.173	7.65
446.377	7.47
446.581	7.49
446.785	7.48
446.989	7.44
447.193	7.6
447.398	7.8
447.602	7.78
447.806	7.61
448.01	7.76
448.214	7.77
448.418	7.74
448.622	7.63
448.826	7.47
449.03	7.61
449.234	7.91
449.438	7.87
449.642	7.71
449.846	7.73
450.05	7.64
450.254	7.36
450.458	7.38
450.662	7.41
450.866	7.48
451.069	7.63
451.273	7.51
451.477	7.37
451.681	7.09
451.885	7.08
452.089	7.06
452.292	7.06
452.496	7.07
452.7	7.04
452.904	7.07
453.107	7.19
453.311	7.14
453.515	7.13
453.719	7.08
453.922	7.11
454.126	7.15
454.33	7.13
454.533	7.22
454.737	7.21
454.94	7.24
455.144	7.18
455.348	7.11
455.551	7.03
455.755	6.98
455.958	7.06
456.162	7.21
456.365	7.35
456.569	7.29
456.772	7.28
456.976	7.39
457.179	7.13
457.383	7.18
457.586	7.28
457.79	7.25
457.993	7.33
458.196	7.16
458.4	7.22
458.603	7.07
458.807	7.17
459.01	7.01
459.213	7.2
459.417	7.38
459.62	7.36
459.823	7.32
460.026	7.4
460.23	7.29
460.433	7.18
460.636	7.16
460.839	7.11
461.042	7.02
461.246	7.04
461.449	7.02
461.652	7.07
461.855	6.91
462.058	6.92
462.261	6.76
462.464	6.93
462.668	6.97
462.871	6.92
463.074	7.04
463.277	7.22
463.48	7.41
463.683	7.19
463.886	7.24
464.089	7.28
464.292	7.22
464.495	7.24
464.698	7.15
464.901	7.23
465.104	7.16
465.306	7.09
465.509	7.01
465.712	7.05
465.915	7.01
466.118	6.95
466.321	7.09
466.524	7.04
466.726	7.3
466.929	7.18
467.132	7.23
467.335	7.18
467.538	7.06
467.74	7.07
467.943	7.11
468.146	7.15
468.348	7.15
468.551	7.1
468.754	7.17
468.956	7.04
469.159	6.94
469.362	6.95
469.564	7.23
469.767	7.56
469.969	7.74
470.172	7.6
470.375	7.68
470.577	7.55
470.78	7.4
470.982	7.2
471.185	7.04
471.387	7.25
471.59	7.2
471.792	6.91
471.995	6.85
472.197	6.69
472.399	6.51
472.602	6.46
472.804	6.52
473.007	6.5
473.209	6.8
473.411	6.85
473.614	6.94
473.816	6.77
474.018	6.9
474.22	6.79
474.423	6.71
474.625	6.87
474.827	6.94
475.03	7.05
475.232	7.1
475.434	6.99
475.636	7.02
475.838	6.98
476.04	7.25
476.243	7.16
476.445	7.11
476.647	7.06
476.849	7.06
477.051	7.09
477.253	7.13
477.455	7.19
477.657	7.15
477.859	7.08
478.061	6.86
478.263	6.8
478.465	6.79
478.667	6.87
478.869	6.92
479.071	6.84
479.273	6.69
479.475	6.58
479.677	6.57
479.879	6.53
480.081	6.73
480.283	6.93
480.485	6.8
480.686	6.84
480.888	6.77
481.09	6.83
481.292	7.03
481.494	7.08
481.695	7.22
481.897	7.27
482.099	7.33
482.301	7.27
482.502	7.23
482.704	7.23
482.906	7.23
483.107	7.22
483.309	7.13
483.511	7.06
483.712	6.97
483.914	6.91
484.115	6.9
484.317	6.89
484.519	6.88
484.72	6.86
484.922	6.86
485.123	6.81
485.325	6.79
485.526	6.79
485.728	6.77
485.929	6.83
486.131	6.87
486.332	6.87
486.534	6.87
486.735	6.8
486.936	6.86
487.138	6.87
487.339	6.84
487.541	6.83
487.742	6.89
487.943	6.9
488.144	6.92
488.346	6.9
488.547	6.88
488.748	6.81
488.95	6.88
489.151	6.87
489.352	6.85
489.553	6.98
489.755	7.05
489.956	7.05
490.157	7.11
490.358	7.11
490.559	7.04
490.76	7.06
490.961	7.05
491.163	6.96
491.364	6.92
491.565	7.06
491.766	6.96
491.967	6.96
492.168	7.03
492.369	6.98
492.57	7
492.771	7.07
492.972	7.1
493.173	7.15
493.374	7.29
493.575	7.26
493.776	7.25
493.976	7.3
494.177	7.27
494.378	7.17
494.579	7.25
494.78	7.26
494.981	7.16
495.182	7.21
495.382	7.18
495.583	6.97
495.784	6.95
495.985	6.82
496.185	6.86
496.386	6.85
496.587	6.85
496.788	6.8
496.988	6.85
497.189	6.8
497.39	6.81
497.59	6.89
497.791	7.05
497.992	7.18
498.192	7.17
498.393	7.14
498.593	7.19
498.794	7.26
498.994	7.23
499.195	7.29
499.395	7.4
499.596	7.36
499.796	7.38
499.997	7.38
500.197	7.36
500.398	7.39
500.598	7.46
500.799	7.57
500.999	7.48
501.199	7.53
501.4	7.52
501.6	7.48
501.801	7.61
502.001	7.61
502.201	7.63
502.402	7.71
502.602	7.74
502.802	7.56
503.002	7.38
503.203	7.39
503.403	7.52
503.603	7.36
503.803	7.37
504.003	7.23
504.204	7.16
504.404	7.33
504.604	7.36
504.804	7.55
505.004	7.81
505.204	8.03
505.404	8.16
505.604	8.06
505.804	8.07
506.005	8.15
506.205	8.14
506.405	8.31
506.605	8.1
506.805	8.01
507.005	7.84
507.204	7.83
507.404	7.79
507.604	7.8
507.804	7.94
508.004	8
508.204	8.16
508.404	8.33
508.604	8.31
508.804	8.27
509.003	8.37
509.203	8.48
509.403	8.47
509.603	8.56
509.803	8.65
510.002	8.38
510.202	8.44
510.402	8.39
510.602	8.43
510.801	8.39
511.001	8.44
511.201	8.5
511.4	8.54
511.6	8.66
511.8	8.7
511.999	8.49
512.199	8.61
512.398	8.58
512.598	8.58
512.797	8.62
512.997	8.76
513.197	8.87
513.396	8.87
513.596	8.87
513.795	8.8
513.994	8.76
514.194	8.85
514.393	9.04
514.593	9.1
514.792	9.16
514.992	8.91
515.191	8.92
515.39	9.02
515.59	8.99
515.789	9.08
515.988	9.11
516.188	8.97
516.387	9.22
516.586	9.17
516.786	9.27
516.985	9.17
517.184	9.38
517.383	9.27
517.582	9.38
517.782	9.46
517.981	9.34
518.18	9.45
518.379	9.56
518.578	9.49
518.777	9.5
518.976	9.5
519.176	9.58
519.375	9.53
519.574	9.62
519.773	9.54
519.972	9.53
520.171	9.66
520.37	9.62
520.569	9.65
520.768	9.72
520.967	9.71
521.166	9.76
521.365	9.84
521.564	9.84
521.762	10.04
521.961	10.05
522.16	10.1
522.359	10.1
522.558	10.07
522.757	10.02
522.956	10.01
523.154	10.24
523.353	10.29
523.552	10.31
523.751	10.41
523.949	10.3
524.148	10.35
524.347	10.44
524.546	10.45
524.744	10.53
524.943	10.62
525.142	10.67
525.34	10.59
525.539	10.51
525.737	10.6
525.936	10.58
526.135	10.73
526.333	10.78
526.532	10.74
526.73	10.71
526.929	10.74
527.127	10.78
527.326	10.78
527.524	10.83
527.723	10.95
527.921	10.96
528.12	10.99
528.318	10.93
528.516	10.97
528.715	10.99
528.913	11.07
529.112	11.02
529.31	11.05
529.508	11.03
529.707	11.05
529.905	11.01
530.103	10.97
530.301	11.02
530.5	11.04
530.698	11.02
530.896	11.09
531.094	11.16
531.293	11.29
531.491	11.36
531.689	11.52
531.887	11.64
532.085	11.75
532.283	11.82
532.481	11.86
532.68	11.94
532.878	12.05
533.076	12.12
533.274	12.15
533.472	12.16
533.67	12.18
533.868	12.23
534.066	12.22
534.264	12.27
534.462	12.31
534.66	12.38
534.858	12.38
535.056	12.4
535.253	12.34
535.451	12.37
535.649	12.42
535.847	12.47
536.045	12.33
536.243	12.34
536.441	12.39
536.638	12.51
536.836	12.59
537.034	12.58
537.232	12.61
537.43	12.73
537.627	12.84
537.825	12.84
538.023	12.86
538.22	13.04
538.418	13.14
538.616	13.07
538.813	13.09
539.011	13.01
539.209	13.08
539.406	13.07
539.604	12.99
539.801	12.96
539.999	13.17
540.196	13.28
540.394	13.38
540.591	13.52
540.789	13.69
540.986	13.69
541.184	13.75
541.381	13.83
541.579	13.86
541.776	13.9
541.974	13.92
542.171	13.85
542.368	13.94
542.566	13.98
542.763	13.92
542.96	13.91
543.158	13.98
543.355	14.04
543.552	14.04
543.75	14.17
543.947	14.29
544.144	14.4
544.341	14.57
544.539	14.45
544.736	14.53
544.933	14.63
545.13	14.78
545.327	14.91
545.524	14.79
545.722	14.93
545.919	14.95
546.116	15.09
546.313	14.99
546.51	15.06
546.707	15.13
546.904	15.18
547.101	15.17
547.298	14.99
547.495	14.94
547.692	15.18
547.889	15.22
548.086	15.23
548.283	15.14
548.48	15.29
548.677	15.33
548.874	15.45
549.07	15.22
549.267	15.41
549.464	15.75
549.661	15.68
549.858	15.66
550.055	15.49
550.251	15.41
550.448	15.52
550.645	15.57
550.842	15.49
551.038	15.64
551.235	15.97
551.432	15.97
551.628	15.87
551.825	16.18
552.022	16.37
552.218	16.6
552.415	16.78
552.612	16.73
552.808	16.89
553.005	17.04
553.201	17.09
553.398	17.12
553.594	17.25
553.791	17.4
553.987	17.3
554.184	17.32
554.38	17.41
554.577	17.37
554.773	17.73
554.97	17.71
555.166	17.86
555.362	17.68
555.559	17.73
555.755	17.56
555.952	17.59
556.148	17.61
556.344	17.66
556.541	17.6
556.737	17.86
556.933	17.7
557.129	17.71
557.326	17.56
557.522	17.7
557.718	18.12
557.914	18.48
558.11	18.44
558.307	18.37
558.503	18.3
558.699	18.53
558.895	18.39
559.091	18.35
559.287	18.41
559.483	18.53
559.679	18.48
559.876	18.48
560.072	18.06
560.268	18.16
560.464	18.45
560.66	18.79
560.856	18.77
561.052	18.99
561.247	19.27
561.443	19.13
561.639	19.14
561.835	19.42
562.031	19.11
562.227	19.49
562.423	19.36
562.619	19.37
562.815	19.23
563.01	19.18
563.206	19.13
563.402	19.17
563.598	19.51
563.793	19.41
563.989	19.29
564.185	19.61
564.381	19.65
564.576	19.9
564.772	19.95
564.968	19.87
565.163	19.96
565.359	20.17
565.555	20.28
565.75	20.11
565.946	20.28
566.141	20.47
566.337	20.34
566.532	20.39
566.728	20.5
566.923	20.56
567.119	20.73
567.314	20.82
567.51	20.61
567.705	20.46
567.901	20.54
568.096	20.68
568.292	20.45
568.487	20.42
568.682	20.26
568.878	20.13
569.073	20.16
569.268	20.29
569.464	20.39
569.659	20.56
569.854	20.7
570.05	20.85
570.245	20.84
570.44	21.08
570.635	21.13
570.831	21.33
571.026	21.37
571.221	21.31
571.416	21.3
571.611	21.09
571.806	21.24
572.002	21.21
572.197	21.03
572.392	21.01
572.587	21.02
572.782	21.07
572.977	20.9
573.172	21.03
573.367	21.07
573.562	20.85
573.757	21.09
573.952	20.87
574.147	20.8
574.342	21.12
574.537	21.12
574.732	21.02
574.927	20.95
575.121	21.07
575.316	20.98
575.511	21.09
575.706	21.43
575.901	21.41
576.096	21.29
576.29	21.5
576.485	21.44
576.68	21.38
576.875	21.49
577.069	21.64
577.264	21.81
577.459	21.98
577.654	22.13
577.848	22.09
578.043	21.91
578.238	22.31
578.432	22.06
578.627	21.94
578.821	22.16
579.016	22.27
579.21	22.47
579.405	22.48
579.6	22.33
579.794	22.31
579.989	22.25
580.183	22.51
580.378	22.4
580.572	22.51
580.766	22.48
580.961	22.28
581.155	22.26
581.35	22.08
581.544	22.05
581.738	22.25
581.933	22
582.127	22.18
582.321	22.13
582.516	22.39
582.71	22.36
582.904	22.57
583.099	22.86
583.293	22.86
583.487	22.98
583.681	22.91
583.875	22.67
584.07	22.84
584.264	22.64
584.458	22.64
584.652	22.46
584.846	22.6
585.04	22.69
585.234	22.43
585.428	22.38
585.623	22.19
585.817	22.09
586.011	22.17
586.205	21.87
586.399	22.05
586.593	22.07
586.787	21.8
586.981	22.04
587.174	21.96
587.368	22.22
587.562	22.3
587.756	22.27
587.95	22.4
588.144	22.41
588.338	22.63
588.532	22.69
588.725	22.6
588.919	22.82
589.113	22.74
589.307	22.7
589.501	22.43
589.694	22.59
589.888	22.82
590.082	23.04
590.275	23.05
590.469	22.99
590.663	23.11
590.856	23.21
591.05	23.32
591.244	23.29
591.437	23.65
591.631	23.67
591.824	23.35
592.018	23.19
592.212	22.9
592.405	23.15
592.599	23.31
592.792	23.18
592.986	23.41
593.179	23.27
593.372	23.24
593.566	22.96
593.759	23.16
593.953	23.31
594.146	23.16
594.339	23.49
594.533	23.46
594.726	23.41
594.92	23.37
595.113	23.1
595.306	23.3
595.499	23.39
595.693	23.48
595.886	23.59
596.079	23.73
596.272	24.06
596.466	24.07
596.659	24.03
596.852	24.29
597.045	24.35
597.238	24.5
597.431	24.19
597.624	24.24
597.818	24.14
598.011	24.17
598.204	24.22
598.397	24.18
598.59	24.08
598.783	23.87
598.976	23.7
599.169	23.44
599.362	23.59
599.555	23.95
599.748	23.85
599.941	23.77
600.134	23.83
600.326	23.62
600.519	23.57
600.712	23.65
600.905	23.74
601.098	23.61
601.291	24
601.483	24.11
601.676	24.09
601.869	24.25
602.062	24.3
602.255	24.45
602.447	24.53
602.64	24.54
602.833	24.58
603.025	24.69
603.218	24.69
603.411	24.64
603.603	24.29
603.796	24.19
603.989	23.99
604.181	24.13
604.374	23.91
604.566	23.95
604.759	23.98
604.951	23.9
605.144	23.9
605.336	24.14
605.529	24.1
605.721	24.26
605.914	24.31
606.106	24.48
606.299	24.49
606.491	24.52
606.683	24.42
606.876	24.32
607.068	24.35
607.26	24.37
607.453	24.28
607.645	24.26
607.837	24.1
608.03	24.02
608.222	23.67
608.414	23.6
608.606	23.55
608.799	23.55
608.991	23.45
609.183	23.2
609.375	23.18
609.567	23.12
609.759	22.98
609.952	22.98
610.144	23.1
610.336	23.2
610.528	23.08
610.72	23.14
610.912	23.04
611.104	23.31
611.296	23.37
611.488	23.28
611.68	23.1
611.872	23.22
612.064	23.19
612.256	23.24
612.448	23.3
612.64	23.48
612.832	23.4
613.023	24.06
613.215	24.09
613.407	24.63
613.599	24.72
613.791	25
613.983	24.97
614.174	25.1
614.366	25.35
614.558	25.29
614.75	25.46
614.941	25.52
615.133	25.17
615.325	24.89
615.516	24.5
615.708	24.48
615.9	24.17
616.091	24.17
616.283	24.37
616.475	24.19
616.666	24.21
616.858	24.1
617.049	24.14
617.241	23.98
617.432	24.39
617.624	24.43
617.815	24.58
618.007	24.76
618.198	25
618.39	24.78
618.581	24.75
618.773	24.85
618.964	24.96
619.155	24.96
619.347	25.29
619.538	25.03
619.729	25.09
619.921	25.29
620.112	25.27
620.303	24.77
620.494	24.6
620.686	24.62
620.877	24.74
621.068	24.78
621.259	24.82
621.451	24.48
621.642	24.48
621.833	24.43
622.024	24.49
622.215	24.7
622.406	25.08
622.597	25.55
622.788	25.54
622.98	25.58
623.171	25.44
623.362	25.39
623.553	25.6
623.744	25.77
623.935	25.64
624.126	25.22
624.317	24.96
624.508	24.71
624.698	24.63
624.889	24.48
625.08	24.42
625.271	24.41
625.462	24.32
625.653	24.27
625.844	24.05
626.034	24.47
626.225	24.71
626.416	24.83
626.607	25.17
626.798	24.86
626.988	24.88
627.179	24.84
627.37	24.95
627.56	24.78
627.751	24.62
627.942	24.85
628.132	24.79
628.323	25.02
628.514	24.96
628.704	24.81
628.895	25.23
629.085	25.21
629.276	25.14
629.466	25.17
629.657	25.52
629.847	25.81
630.038	25.64
630.228	25.45
630.419	25.1
630.609	25.27
630.8	25.26
630.99	24.85
631.181	24.81
631.371	24.68
631.561	24.32
631.752	23.93
631.942	23.87
632.132	23.92
632.323	23.9
632.513	23.85
632.703	23.44
632.893	23.43
633.084	23.85
633.274	24.23
633.464	24.35
633.654	24.98
633.844	25.43
634.034	25.63
634.225	25.8
634.415	26.12
634.605	25.91
634.795	26.07
634.985	26.47
635.175	26.39
635.365	26.35
635.555	26.12
635.745	25.76
635.935	25.73
636.125	25.27
636.315	25.01
636.505	24.9
636.695	24.94
636.885	25.21
637.075	24.98
637.265	24.86
637.455	24.45
637.644	25
637.834	24.75
638.024	24.56
638.214	24.7
638.404	24.97
638.593	24.73
638.783	25.17
638.973	25.17
639.163	25.03
639.352	24.82
639.542	25.05
639.732	24.94
639.921	25.4
640.111	25.59
640.301	25.63
640.49	25.26
640.68	25
640.87	24.54
641.059	24.49
641.249	24.57
641.438	24.84
641.628	24.96
641.817	24.89
642.007	24.42
642.196	24.31
642.386	24.4
642.575	24.8
642.764	25.13
642.954	25.24
643.143	25.29
643.333	24.67
643.522	24.88
643.711	24.6
643.901	24.51
644.09	24.88
644.279	25.14
644.469	25.36
644.658	25.07
644.847	25.25
645.036	25.49
645.226	25.42
645.415	26.06
645.604	25.44
645.793	25.64
645.982	25.29
646.171	25.19
646.361	25.04
646.55	24.85
646.739	25.03
646.928	24.82
647.117	25.12
647.306	24.9
647.495	24.76
647.684	25.32
647.873	25.38
648.062	25.99
648.251	25.91
648.44	25.75
648.629	25.7
648.818	25.36
649.007	25.62
649.196	25.19
649.384	25.28
649.573	25.38
649.762	25.07
649.951	24.7
650.14	24.65
650.328	24.79
650.517	24.92
650.706	24.9
650.895	24.81
651.083	24.3
651.272	24.35
651.461	24.35
651.65	24.41
651.838	24.77
652.027	25.22
652.216	24.82
652.404	24.92
652.593	25.05
652.781	25.27
652.97	25.63
653.158	25.93
653.347	26.23
653.535	26.26
653.724	26.02
653.912	25.95
654.101	25.64
654.289	25.55
654.478	25.32
654.666	25.1
654.855	24.84
655.043	24.66
655.231	24.69
655.42	24.46
655.608	24.59
655.796	24.71
655.985	24.89
656.173	25.06
656.361	25.72
656.55	25.82
656.738	26.45
656.926	26.53
657.114	26.85
657.302	27.1
657.491	27.04
657.679	27.12
657.867	27.07
658.055	26.95
658.243	26.85
658.431	26.91
658.619	27.01
658.807	26.18
658.996	26.38
659.184	26.07
659.372	26.13
659.56	26.12
659.748	26.22
659.936	26.43
660.124	26.45
660.311	26.8
660.499	26.45
660.687	26.36
660.875	26.8
661.063	26.56
661.251	26.81
661.439	26.71
661.627	26.61
661.814	26.46
662.002	26.32
662.19	26.15
662.378	25.64
662.565	25.7
662.753	25.79
662.941	25.48
663.129	25.36
663.316	25.34
663.504	25.17
663.692	25.55
663.879	25.43
664.067	24.37
664.254	24.01
664.442	24.75
664.63	24.55
664.817	23.98
665.005	24
665.192	23.86
665.38	24.19
665.567	24.13
665.755	24.15
665.942	24.22
666.13	24.97
666.317	25.41
666.504	25.14
666.692	25.2
666.879	25.15
667.067	25.35
667.254	25.51
667.441	24.89
667.629	24.53
667.816	24.36
668.003	23.78
668.19	23.75
668.378	23.66
668.565	23.34
668.752	23.72
668.939	24.34
669.127	24.02
669.314	24.62
669.501	25.07
669.688	25.09
669.875	25.09
670.062	25.6
670.249	25.96
670.436	25.78
670.623	25.55
670.81	25.13
670.997	25.28
671.184	25.83
671.371	25.73
671.558	25.75
671.745	26.21
671.932	26.55
672.119	26
672.306	26.18
672.493	26.41
672.68	26.88
672.867	26.97
673.054	26.48
673.24	26.52
673.427	25.77
673.614	25.54
673.801	25.52
673.988	24.9
674.174	25.63
674.361	25.81
674.548	25.97
674.734	25.74
674.921	26.43
675.108	26.9
675.294	26.76
675.481	27.32
675.668	27.71
675.854	27.36
676.041	27.71
676.227	27.38
676.414	27.27
676.601	27.09
676.787	27.59
676.974	26.82
677.16	26.38
677.347	26.35
677.533	26.38
677.719	25.92
677.906	26.57
678.092	26.78
678.279	26.45
678.465	26.09
678.651	26.29
678.838	26.07
679.024	26.13
679.21	26.12
679.397	26.04
679.583	26.14
679.769	26.06
679.955	25.64
680.142	25.07
680.328	25.58
680.514	25.42
680.7	25.4
680.886	25.62
681.073	25.9
681.259	26.19
681.445	26.1
681.631	25.54
681.817	25.66
682.003	25.71
682.189	25.8
682.375	25.98
682.561	26.26
682.747	26.18
682.933	25.6
683.119	25.51
683.305	25.54
683.491	25.89
683.677	26.5
683.863	26.62
684.049	26.64
684.235	27.15
684.42	26.96
684.606	26.53
684.792	26.9
684.978	26.86
685.164	27.1
685.349	26.88
685.535	26.77
685.721	26.59
685.907	26.07
686.092	26.3
686.278	25.7
686.464	25.67
686.649	25.96
686.835	25.72
687.021	26.7
687.206	26.18
687.392	26.21
687.577	25.99
687.763	26.27
687.948	26.2
688.134	25.91
688.319	26.35
688.505	26.19
688.69	26.27
688.876	26.07
689.061	25.56
689.247	26.13
689.432	25.56
689.618	25.08
689.803	25.27
689.988	25.76
690.174	25.91
690.359	25.45
690.544	25.8
690.73	26.08
690.915	25.99
691.1	25.39
691.285	25.28
691.471	25.88
691.656	26.42
691.841	25.84
692.026	26.19
692.211	25.78
692.396	25.83
692.582	25.58
692.767	25.66
692.952	26.66
693.137	27.91
693.322	27.69
693.507	27.79
693.692	28.52
693.877	29.4
694.062	29.35
694.247	29.76
694.432	29.76
694.617	29.54
694.802	29.22
694.987	27.98
695.172	27.37
695.357	27.5
695.541	27.13
695.726	26.68
695.911	25.81
696.096	25.77
696.281	25.17
696.466	25.43
696.65	25.51
696.835	25.85
697.02	26.36
697.204	26.12
697.389	26.37
697.574	26.58
697.759	26.34
697.943	26.62
698.128	26.76
698.312	27.17
698.497	27.25
698.682	27.27
698.866	26.84
699.051	26.88
699.235	26.98
699.42	26.65
699.604	26.65
699.789	26.6
699.973	26.65
700.158	26.29
700.342	26.05
700.527	26.27
700.711	26.21
700.895	26.49
701.08	26.44
701.264	26.68
701.448	26.76
701.633	26.69
701.817	27.1
702.001	26.37
702.186	27.07
702.37	27.24
702.554	26.5
702.738	26.84
702.923	26.77
703.107	26.58
703.291	26.08
703.475	26.48
703.659	27.06
703.843	26.93
704.027	27.54
704.212	26.85
704.396	27.61
704.58	27.62
704.764	28.12
704.948	27.85
705.132	27.95
705.316	27.93
705.5	27.6
705.684	27.51
705.868	27.02
706.052	27.4
706.235	27.41
706.419	26.53
706.603	26.9
706.787	26.13
706.971	26.15
707.155	26
707.339	25.36
707.522	25.86
707.706	25.69
707.89	25.86
708.074	25.38
708.257	24.42
708.441	25.08
708.625	25.16
708.808	25.27
708.992	25.88
709.176	26.22
709.359	26.61
709.543	25.77
709.727	26
709.91	26.26
710.094	26.01
710.277	26.36
710.461	26.76
710.644	26.37
710.828	26.45
711.011	26.84
711.195	26.94
711.378	27.15
711.562	27.4
711.745	26.22
711.928	25.79
712.112	26.3
712.295	27.2
712.478	26.5
712.662	27.35
712.845	27.68
713.028	27.24
713.212	26.74
713.395	27.04
713.578	27.08
713.761	27.38
713.945	28.28
714.128	27.83
714.311	26.96
714.494	26.96
714.677	26.77
714.86	26.14
715.043	25.4
715.227	25.88
715.41	26.16
715.593	26.41
715.776	26.63
715.959	26.17
716.142	26.57
716.325	27.17
716.508	27.53
716.691	27.52
716.874	27.89
717.057	28.31
717.239	27.51
717.422	27.12
717.605	27.08
717.788	27.04
717.971	26.79
718.154	27.17
718.337	27.08
718.519	26.44
718.702	25.08
718.885	24.93
719.068	25.36
719.25	26.37
719.433	26
719.616	26.09
719.798	27.12
719.981	26.9
720.164	25.66
720.346	26.85
720.529	28.5
720.712	30.39
720.894	30.54
721.077	30.03
721.259	29.06
721.442	28.4
721.624	27.84
721.807	26.73
721.989	26.85
722.172	28.09
722.354	27.53
722.537	26.1
722.719	24.86
722.901	24.49
723.084	24.61
723.266	24.56
723.448	25.16
723.631	25.2
723.813	25.44
723.995	26.5
724.178	26.67
724.36	26.1
724.542	26.04
724.724	26.68
724.907	26.69
725.089	26.76
725.271	28.89
725.453	30.02
725.635	30.31
725.817	30.36
725.999	28.8
726.181	28.32
726.364	29.12
726.546	29.33
726.728	28.64
726.91	29.81
727.092	29.56
727.274	28.56
727.456	28.13
727.638	27.35
727.819	27.98
728.001	28.46
728.183	28.09
728.365	27.23
728.547	27.93
728.729	28.09
728.911	26.86
729.093	26.63
729.274	26.18
729.456	26.6
729.638	27.76
729.82	26.39
730.001	26.45
730.183	26.16
730.365	26.07
730.546	25.11
730.728	26.23
730.91	26.1
731.091	27.07
731.273	27.24
731.455	27.36
731.636	26.97
731.818	27.18
731.999	27.03
732.181	26.89
732.362	27.04
732.544	27.18
732.725	26.12
732.907	26.4
733.088	25.28
733.27	25.49
733.451	24.55
733.633	24.13
733.814	23.25
733.995	23.63
734.177	24.1
734.358	24.72
734.539	24.73
734.721	24.09
734.902	24.12
735.083	25.18
735.264	24.4
735.446	25.45
735.627	25.8
735.808	27.39
735.989	27.78
736.17	27.35
736.351	25.93
736.533	25.45
736.714	25.25
736.895	25.85
737.076	25.26
737.257	26.14
737.438	25.5
737.619	25.84
737.8	26.96
737.981	26.9
738.162	27.52
738.343	28.84
738.524	29.29
738.705	30.25
738.886	30.17
739.067	30.02
739.247	29.7
739.428	29.72
739.609	28.84
739.79	28.4
739.971	29.21
740.151	29.51
740.332	28.84
740.513	28.42
740.694	28.48
740.874	27.36
741.055	27.09
741.236	26.54
741.417	26.7
741.597	27.71
741.778	27.92
741.958	27.48
742.139	27.69
742.32	28.03
742.5	27.67
742.681	27.31
742.861	28.31
743.042	28.87
743.222	29.04
743.403	28.36
743.583	27.07
743.764	26.34
743.944	26.12
744.124	23.89
744.305	23.77
744.485	24.26
744.666	26.27
744.846	26.49
745.026	26.5
745.207	26.68
745.387	27.45
745.567	28.13
745.747	26.22
745.928	25.32
746.108	26.74
746.288	27.67
746.468	30.43
746.648	29.66
746.829	29.91
747.009	30.6
747.189	30.74
747.369	29.75
747.549	29.15
747.729	30.34
747.909	30.54
748.089	31.31
748.269	30.79
748.449	28.45
748.629	27.33
748.809	25.84
748.989	24.6
749.169	25.02
749.349	25.44
749.529	26.9
749.709	27.95
749.889	27.72
750.068	27.46
750.248	26.79
750.428	27.89
750.608	27.89
750.788	28.88
750.967	28.72
751.147	29.68
751.327	30.23
751.507	29.24
751.686	29.77
751.866	29.03
752.046	28.61
752.225	28.69
752.405	27.72
752.585	27.99
752.764	27.3
752.944	28.67
753.123	27.23
753.303	26.21
753.482	26.1
753.662	26.21
753.841	27.37
754.021	26.39
754.2	26.22
754.38	25.22
754.559	24.92
754.739	25
754.918	24.31
755.097	24.65
755.277	24.97
755.456	25.02
755.635	22.85
755.815	21.62
755.994	22.25
756.173	21.44
756.352	22.62
756.532	23.56
756.711	22.83
756.89	21.61
757.069	21.58
757.248	21.25
757.427	20.97
757.607	23.31
757.786	23.66
757.965	25.13
758.144	26.23
758.323	27.35
758.502	26.87
758.681	27.13
758.86	28.01
759.039	28.11
759.218	28.6
759.397	29.88
759.576	28.27
759.755	28.32
759.934	27.32
760.113	27.43
760.291	26.15
760.47	25.96
760.649	26.91
760.828	26.29
761.007	27.23
761.186	26.53
761.364	25.98
761.543	26.79
761.722	26.99
761.901	26.94
762.079	26.58
762.258	27.48
762.437	27.94
762.615	27.67
762.794	28.91
762.972	27.99
763.151	29.1
763.33	30.33
763.508	29.85
763.687	29.98
763.865	30.64
764.044	30.11
764.222	29.78
764.401	30.18
764.579	30.76
764.758	29.87
764.936	30.31
765.114	29.41
765.293	28.12
765.471	28.05
765.65	27.55
765.828	27.35
766.006	28.7
766.184	27.73
766.363	28.66
766.541	27.58
766.719	28.6
766.898	29.39
767.076	28.93
767.254	29.27
767.432	30.76
767.61	30.59
767.788	30.57
767.967	28.78
768.145	28.66
768.323	27.12
768.501	26.65
768.679	26.29
768.857	24.24
769.035	25.52
769.213	24.63
769.391	23.14
769.569	25.09
769.747	25.7
769.925	26.49
770.103	28.78
770.281	27.44
770.459	27.73
770.636	26.42
770.814	26.33
770.992	26.02
771.17	24.66
771.348	24.5
771.525	22.92
771.703	21.93
771.881	21.22
772.059	20.53
772.236	23.36
772.414	23.47
772.592	22.7
772.769	24.03
772.947	24.05
773.125	24.25
773.302	25.68
773.48	26.67
773.657	26.53
773.835	27.62
774.013	26.53
774.19	27.32
774.368	29.54
774.545	32.18
774.723	31.88
774.9	32.57
775.077	34.94
775.255	33.64
775.432	33.5
775.61	32.39
775.787	31.67
775.964	32.81
776.142	32.16
776.319	31.54
776.496	32
776.674	31.85
776.851	32.58
777.028	30.55
777.205	29.42
777.382	28.21
777.56	29.29
777.737	29.91
777.914	30.59
778.091	27.97
778.268	29.66
778.445	26.49
778.622	25.09
778.8	23.69
778.977	22.44
779.154	24.07
779.331	25.21
779.508	23.85
779.685	23.11
779.862	19.89
780.038	18.51
780.215	19.32
780.392	20.11
780.569	19.41
780.746	18.29
780.923	22.22
781.1	21
781.277	21.05
781.453	21.95
781.63	22.87
781.807	26.7
781.984	28.83
782.16	27.15
782.337	28.54
782.514	31.92
782.691	34.57
782.867	31.82
783.044	31.91
783.221	31.29
783.397	32.33
783.574	29.02
783.75	27.3
783.927	26.95
784.103	26.01
784.28	24.54
784.456	23.6
784.633	23.57
784.809	26
784.986	28.18
785.162	30.47
785.339	31.11
785.515	34.04
785.692	34.13
785.868	34.87
786.044	34.09
786.221	33.09
786.397	29.36
786.573	26.76
786.749	25.16
786.926	23.22
787.102	23.03
787.278	24.11
787.454	25.97
787.631	26.05
787.807	28.25
787.983	29.12
788.159	31.48
788.335	33.69
788.511	34.36
788.687	34.45
788.863	35.75
789.039	35.36
789.216	36.19
789.392	34.64
789.568	35.01
789.744	33.21
789.919	32.4
790.095	31.33
790.271	32.08
790.447	32.62
790.623	32.38
790.799	29.58
790.975	28.83
791.151	25.01
791.327	26.79
791.502	26.38
791.678	26.17
791.854	24.03
792.03	24.87
792.205	27.46
792.381	28.09
792.557	30.69
792.733	35.97
792.908	36.34
793.084	34.31
793.259	30.84
793.435	32.97
793.611	32.79
793.786	40.12
793.962	40.39
794.137	36.98
794.313	36.66
794.488	37.7
794.664	35.18
794.839	33.3
795.015	37.78
795.19	39
795.366	34.47
795.541	30.92
795.716	25.74
795.892	27.03
796.067	27.96
796.242	27.6
796.418	21.5
796.593	20.85
796.768	21.07
796.944	19.58
797.119	20.85
797.294	24.14
797.469	29.2
797.644	28.96
797.82	26.14
797.995	25.95
798.17	26.87
798.345	29.5
798.52	29.45
798.695	30.18
798.87	30.87
799.045	31.27
799.22	29.7
799.395	25.62
799.57	27.86
799.745	28.66
799.92	30.03
800.095	29.48
800.27	31.5
800.445	30.06
800.62	33.03
800.795	32.62
800.97	33.44
801.145	33.87
801.319	34.93
801.494	33.78
801.669	34.42
801.844	34.19
802.018	39.59
802.193	38.73
802.368	41.95
802.543	36.68
802.717	35.66
802.892	36.95
803.067	32.62
803.241	33.47
803.416	35.27
803.59	35.27
803.765	31.66
803.94	26.8
804.114	26.06
804.289	26.82
804.463	28.2
804.638	28.16
804.812	24.99
804.986	27.36
805.161	29.9
805.335	28.24
805.51	25.83
805.684	27.59
805.858	24.73
806.033	20.73
806.207	18.08
806.381	20.85
806.556	19.97
806.73	22.67
806.904	23.98
807.078	21.39
807.253	20.66
807.427	20
807.601	16.44
807.775	17.64
807.949	17.7
808.123	17.2
808.298	15.99
808.472	15.56
808.646	12.59
808.82	13.32
808.994	18.82
809.168	16.5
809.342	17.39
809.516	27.2
809.69	30.8
809.864	34.47
810.038	38.7
810.212	39.66
810.385	45.42
810.559	44.95
810.733	39.26
810.907	38.13
811.081	39.97
811.255	44.59
811.428	40.25
811.602	41.41
811.776	43.03
811.95	45.28
812.123	43.7
812.297	37.76
812.471	40.75
812.644	47.9
812.818	40.58
812.992	37.64
813.165	37.01
813.339	37.65
813.512	32.87
813.686	27.91
813.86	17.72
814.033	15.44
814.207	15.55
814.38	15.16
814.554	12.39
814.727	20.71
814.9	22.13
815.074	11.22
815.247	11.45
815.421	9.52
815.594	10.64
815.767	20.28
815.941	22.4
816.114	24.14
816.287	24.34
816.46	26.81
816.634	24.86
816.807	24.38
816.98	24.54
817.153	23.52
817.327	26.61
817.5	37.59
817.673	38.12
817.846	35.31
818.019	33.78
818.192	34.34
818.365	33.77
818.538	31.41
818.711	30.7
818.884	30.8
819.057	31.41
819.23	32.29
819.403	21.15
819.576	12
819.749	15.95
819.922	13.46
820.095	11.12
820.268	11.18
820.441	12.92
820.614	14.41
820.786	17.38
820.959	20.54
821.132	20.12
821.305	23.37
821.477	25.93
821.65	27.54
821.823	28.6
821.996	28.76
822.168	29.12
822.341	29.1
822.514	29.26
822.686	30.2
822.859	29.77
823.031	29.89
823.204	29.64
823.376	29.73
823.549	28.61
823.722	28.22
823.894	28.45
824.067	27.91
824.239	27.28
824.411	27.46
824.584	26.86
824.756	26.16
824.929	25.12
825.101	25.25
825.273	25.57
825.446	26.48
825.618	26.16
825.79	26.96
825.963	28.47
826.135	29.18
826.307	28.5
826.479	27.79
826.652	27.59
826.824	28.36
826.996	28.94
827.168	28.46
827.34	28.99
827.512	31.92
827.684	32.33
827.856	31.48
828.029	31.56
828.201	32.35
828.373	33.47
828.545	34.78
828.717	34.66
828.889	33.87
829.061	35.01
829.232	34.96
829.404	33.23
829.576	34.25
829.748	34.45
829.92	33.68
830.092	33.58
830.264	34.93
830.436	35.02
830.607	35.32
830.779	35.98
830.951	35.7
831.123	34.37
831.294	35.14
831.466	35.02
831.638	37.09
831.809	39.76
831.981	42.92
832.153	38.59
832.324	41.81
832.496	40.3
832.667	42.82
832.839	42.09
833.011	44.51
833.182	40.86
833.354	36.56
833.525	32.58
833.697	31.97
833.868	30.08
834.039	31.4
834.211	27.73
834.382	31.84
834.554	29.87
834.725	27.98
834.896	25.16
835.068	29.04
835.239	32.51
835.41	36.26
835.581	37.52
835.753	38.78
835.924	35.77
836.095	36.69
836.266	34.69
836.438	33.24
836.609	37.11
836.78	37.79
836.951	35.43
837.122	31.88
837.293	28.9
837.464	26.21
837.635	29.98
837.806	36.7
837.977	39.18
838.148	41.53
838.319	46.16
838.49	44.17
838.661	48.74
838.832	49.08
839.003	58.31
839.174	52.57
839.345	52.78
839.516	49.6
839.687	41.78
839.857	40.5
840.028	36.27
840.199	33.07
840.37	40.5
840.54	34.05
840.711	37.16
840.882	32.96
841.053	40.38
841.223	43.47
841.394	40.65
841.564	42.4
841.735	42.1
841.906	44.62
842.076	47.9
842.247	49.53
842.417	56.42
842.588	61.31
842.758	65.37
842.929	72.15
843.099	71.33
843.27	72.74
843.44	85.07
843.611	83.22
843.781	92.28
843.951	91.74
844.122	80.51
844.292	82.57
844.462	68.82
844.633	59.47
844.803	51.68
844.973	48.46
845.144	47.02
845.314	43.69
845.484	58.53
845.654	63.92
845.824	67.49
845.995	75.28
846.165	74.43
846.335	56.99
846.505	52.6
846.675	51.95
846.845	57.5
847.015	70.25
847.185	60.75
847.355	18
847.525	14.65
847.695	8.35
847.865	-38.85
848.035	-26.7
848.205	-5.12
848.375	-44.3
848.545	-70.76
848.715	-126.98
848.884	-138.5
849.054	-25.53
849.224	-4.58
849.394	-34.61
849.564	-6.37
849.733	-0.45
849.903	17.72
850.073	25.93
850.243	10.2
850.412	12.6
850.582	19.82
850.752	32.3
850.921	3.97
851.091	22.06
851.26	28.28
851.43	26.37
851.599	49.78
851.769	35.56
851.939	56.71
852.108	116.98
852.278	109.85
852.447	111.81
852.616	134.86
852.786	90.97
852.955	51.03
853.125	45.68
853.294	34.31
853.463	23.97
853.633	34.36
853.802	0.02
853.971	10.76
854.141	14.75
854.31	39.29
854.479	19.32
854.648	30.11
854.818	66.51
854.987	57.78
855.156	57.31
855.325	43.28
855.494	48.79
855.663	34.34
855.832	39.52
856.001	35.54
856.171	32.5
856.34	48.49
856.509	73.67
856.678	-18.69
856.847	-44.77
857.016	-2.51
857.185	23.3
857.353	-6.97
857.522	56.71
857.691	34.47
857.86	33.34
858.029	11.77
858.198	8.43
858.367	21.69
858.535	35.65
858.704	32.01
858.873	20.2
859.042	22.66
859.21	12.04
859.379	20.7
859.548	35.07
859.717	55.23
859.885	62.15
860.054	61.59
860.222	49.09
860.391	63.42
860.56	72.28
860.728	79.04
860.897	81.62
861.065	78.73
861.234	64.41
861.402	47.49
861.571	33.73
861.739	23.29
861.908	32.5
862.076	58.25
862.244	-18.65
862.413	9.34
862.581	43.61
862.749	10.64
862.918	28.83
863.086	67.69
863.254	109.52
863.423	110.99
863.591	182.42
863.759	213.24
863.927	130.62
864.096	83.23
864.264	103.52
864.432	71.63
864.6	118.8
864.768	154.66
864.936	104.94
865.104	61.02
865.272	41.46
865.44	19.82
865.608	-4.15
865.776	-2.02
865.944	24.79
866.112	1.64
866.28	6.01
866.448	-19.53
866.616	-15.52
866.784	-1.54
866.952	-2.16
867.12	7.76
867.288	6.7
867.455	18.05
867.623	6.09
867.791	17.22
867.959	19.59
868.127	22.66
868.294	12.82
868.462	3.05
868.63	-89.1
868.797	-42.66
868.965	-94.73
869.133	-72.42
869.3	-48.56
869.468	-108.02
869.636	-332.68
869.803	-106.57
869.971	-24.9
870.138	-71.72
870.306	-78.42
870.473	-68.73
870.641	-754.89
870.808	-152.71
870.975	-263.76
871.143	-92.24
871.31	412.27
871.478	62.01
871.645	-18.9
871.812	-119.42
871.98	-49.95
872.147	9.65
872.314	45.65
872.482	7.73
872.649	24.63
872.816	33.56
872.983	29.19
873.15	21.37
873.318	25.59
873.485	24.66
873.652	17.43
873.819	40.88
873.986	55.53
874.153	58.11
874.32	73.1
874.487	80.18
874.654	108.8
874.821	112.93
874.988	155.5
875.155	181.7
875.322	182.33
875.489	334.09
875.656	319.74
875.823	339.15
875.99	750.61
876.157	-535.67
876.324	-355.64
876.49	-2001.74
876.657	-255.37
876.824	147.57
876.991	77.63
877.157	127.74
877.324	96.13
877.491	24.04
877.658	23.83
877.824	0.2
877.991	-4.74
878.157	12.22
878.324	19.02
878.491	27.93
878.657	36.58
878.824	55.8
878.99	43.34
879.157	35.62
879.323	88.94
879.49	253.09
879.656	1253.41
879.823	-258.03
879.989	1416.94
880.156	-195.74
880.322	-62.3
880.488	-127.5
880.655	-24.48
880.821	27.96
880.987	27.46
881.154	26.37
881.32	23.8
881.486	32.75
881.652	34.23
881.819	31.3
881.985	25.69
882.151	30.92
882.317	32.09
882.483	36.37
882.649	36.7
882.816	40.11
882.982	38.89
883.148	40.33
883.314	38.43
883.48	38.59
883.646	37.93
883.812	38.26
883.978	35.9
884.144	34.24
884.31	31.61
884.476	29.67
884.642	30.32
884.807	30.52
884.973	28.46
885.139	25.16
885.305	23.02
885.471	24.02
885.637	26.42
885.802	30.41
885.968	36.33
886.134	34.3
886.3	37.31
886.465	34.51
886.631	31.05
886.797	35.55
886.962	37.71
887.128	31.53
887.293	38.98
887.459	40.14
887.625	38.64
887.79	30.2
887.956	37.98
888.121	32.25
888.287	27.22
888.452	37.21
888.618	30.54
888.783	37.86
