Data from 2937853_Reflection_2.txt Node
Date: Wed Jul 15 15:49:43 EDT 2015
User: robert
Spectrometer: USB4E03001
Autoset integration time: false
Trigger mode: 4
Integration Time (sec): 1.000000E-1
Scans to average: 10
Electric dark correction enabled: true
Nonlinearity correction enabled: false
Boxcar width: 5
Stray light correction enabled: false
XAxis mode: Wavelengths
Stop averaging: false
Number of Pixels in Spectrum: 3648
>>>>>Begin Spectral Data<<<<<
177.566	64.01
177.785	24.16
178.005	-187.14
178.225	-194.35
178.445	-700.8
178.665	64.04
178.885	111.14
179.105	181.41
179.324	169.98
179.544	87.47
179.764	118.7
179.984	99.78
180.204	132.68
180.423	114.02
180.643	121.34
180.863	114.76
181.083	759.58
181.302	646.28
181.522	197.32
181.742	562.92
181.961	478.12
182.181	782.94
182.401	-1224.77
182.621	-531.57
182.84	-1348.88
183.06	3755.94
183.279	-992.51
183.499	288.69
183.719	12771.79
183.938	-2019.71
184.158	107.72
184.377	126.92
184.597	93.28
184.816	55.53
185.036	53.62
185.256	34.15
185.475	52.69
185.695	65.44
185.914	68.13
186.134	67.99
186.353	138.6
186.572	225.61
186.792	184.68
187.011	196.4
187.231	538.74
187.45	646.28
187.67	927.74
187.889	466.19
188.108	105.78
188.328	74.84
188.547	13.43
188.766	-70.02
188.986	2.08
189.205	5.82
189.424	3.54
189.644	-28.26
189.863	-68.05
190.082	-37.09
190.302	33.04
190.521	61.54
190.74	104.59
190.959	130.43
191.178	124.44
191.398	114.16
191.617	92.36
191.836	147.89
192.055	6.26
192.274	53.73
192.494	26.95
192.713	414.99
192.932	7128.21
193.151	292.55
193.37	313.54
193.589	227.1
193.808	554.19
194.027	-339.45
194.246	-304.04
194.465	938.29
194.685	659.82
194.904	2223.08
195.123	1380.91
195.342	-420.25
195.561	-653.3
195.78	-77.39
195.999	-36.84
196.218	-491.91
196.436	97.48
196.655	70.42
196.874	-150.63
197.093	640.62
197.312	198.13
197.531	93.96
197.75	731.87
197.969	331.65
198.188	-35.47
198.407	-57.58
198.625	-306.59
198.844	16.98
199.063	-131.59
199.282	-76.38
199.501	149.72
199.719	119.36
199.938	76.78
200.157	77.98
200.376	91.9
200.594	9.76
200.813	-54.36
201.032	-183.71
201.251	1287.91
201.469	-268.7
201.688	-406.07
201.907	-365.89
202.125	-507.69
202.344	145.01
202.563	-87.41
202.781	26.27
203	25.15
203.218	-18.94
203.437	22.09
203.656	28.71
203.874	39.11
204.093	55.64
204.311	5
204.53	-9.81
204.748	-4.25
204.967	-8.53
205.185	-130.84
205.404	-231.22
205.622	-191.33
205.841	-399.81
206.059	4326.37
206.278	429.18
206.496	13128.21
206.715	298.01
206.933	707.85
207.151	1212.41
207.37	-136.84
207.588	-126.85
207.806	-36.38
208.025	-77.4
208.243	-212.03
208.461	-328.21
208.68	-164.07
208.898	-134.78
209.116	-97.89
209.335	-123.02
209.553	-57.25
209.771	-634.81
209.989	-419.07
210.208	-259.92
210.426	1931.38
210.644	1562.94
210.862	233.2
211.081	97.42
211.299	224.81
211.517	86.88
211.735	47.02
211.953	-53.85
212.171	-20.42
212.39	-255.73
212.608	6.22
212.826	79.64
213.044	172.38
213.262	21.4
213.48	4.96
213.698	223.23
213.916	-109.13
214.134	-250.3
214.352	-283.21
214.57	-47.68
214.788	-73.35
215.006	-80.67
215.224	-24.23
215.442	0.27
215.66	9.1
215.878	-7.05
216.096	-4.76
216.314	-9.83
216.532	36.86
216.75	23.3
216.968	14.25
217.185	25.94
217.403	35.84
217.621	68.97
217.839	29.16
218.057	27.33
218.275	32.77
218.492	10.36
218.71	58.08
218.928	46.45
219.146	62.46
219.363	145.86
219.581	166.17
219.799	46.05
220.017	56.51
220.234	290.14
220.452	352.75
220.67	62.12
220.887	-68.34
221.105	-91.65
221.323	-10.88
221.54	7.86
221.758	-3.06
221.976	26.95
222.193	22.58
222.411	-11.08
222.629	-6.02
222.846	55.92
223.064	-12.05
223.281	-24.9
223.499	42.02
223.716	-70.87
223.934	11.03
224.151	-14.62
224.369	685.66
224.586	110.53
224.804	79.93
225.021	80.76
225.239	60.19
225.456	65.05
225.674	49.22
225.891	49.01
226.108	56.45
226.326	42.18
226.543	25.51
226.76	-36.12
226.978	-30.44
227.195	-66.41
227.413	-25.64
227.63	-10.41
227.847	-4.39
228.064	-2.54
228.282	1.42
228.499	6.59
228.716	6.89
228.934	12.56
229.151	18.68
229.368	18.97
229.585	23.85
229.802	19.45
230.02	18.58
230.237	18.61
230.454	16.54
230.671	14.11
230.888	15.81
231.105	19.19
231.323	18.31
231.54	17.56
231.757	22.1
231.974	16.16
232.191	16.99
232.408	17.8
232.625	19.28
232.842	26.7
233.059	34.4
233.276	31.29
233.493	28.66
233.71	28.53
233.927	32.15
234.144	31.54
234.361	34.6
234.578	37.1
234.795	41.39
235.012	39.96
235.229	39.19
235.446	39.38
235.663	39.23
235.879	44.26
236.096	45.5
236.313	38.53
236.53	34.38
236.747	32.85
236.964	35.39
237.181	30.86
237.397	32.21
237.614	34.09
237.831	33.19
238.048	33.43
238.264	32.84
238.481	35.21
238.698	33.34
238.915	34.14
239.131	30.63
239.348	24.08
239.565	24.77
239.781	20.21
239.998	17.83
240.215	14.29
240.431	15.89
240.648	13.04
240.865	9.2
241.081	10.14
241.298	12.05
241.514	15.86
241.731	18.12
241.947	19.26
242.164	21.33
242.38	20.01
242.597	20.09
242.814	22.65
243.03	21.63
243.246	23.92
243.463	25.54
243.679	25.54
243.896	23.98
244.112	23.64
244.329	23.16
244.545	23.37
244.762	25.67
244.978	24.98
245.194	20.44
245.411	22.25
245.627	21.55
245.843	21.07
246.06	20.99
246.276	20.68
246.492	20.91
246.709	20.59
246.925	18.97
247.141	18.8
247.357	18.89
247.574	19.79
247.79	19.75
248.006	19.79
248.222	20.38
248.439	18.78
248.655	18.84
248.871	18.36
249.087	17.38
249.303	17.21
249.519	15.79
249.736	16.09
249.952	15.3
250.168	16.84
250.384	16.79
250.6	14.77
250.816	18.78
251.032	19.81
251.248	18.67
251.464	20.4
251.68	23.1
251.896	24.26
252.112	24.5
252.328	24.09
252.544	20.82
252.76	20.86
252.976	21.27
253.192	18.84
253.408	16.72
253.624	17.62
253.84	16.65
254.056	12.91
254.272	9.52
254.487	8.54
254.703	7.57
254.919	12.97
255.135	10.63
255.351	10.51
255.567	13.33
255.782	15.96
255.998	15.94
256.214	14
256.43	14.94
256.646	14.84
256.861	16.24
257.077	15.96
257.293	10.58
257.508	8.94
257.724	7.21
257.94	6.12
258.155	6.25
258.371	6.38
258.587	7.91
258.802	11.11
259.018	13.35
259.234	12.15
259.449	12.88
259.665	12.23
259.88	13.27
260.096	13.41
260.312	14.37
260.527	15.14
260.743	15.61
260.958	15.77
261.174	15.19
261.389	14.88
261.605	15.27
261.82	14.25
262.036	16.76
262.251	17.19
262.466	17.24
262.682	15.79
262.897	14.35
263.113	12.71
263.328	14.47
263.543	14.03
263.759	13.51
263.974	12.49
264.189	14.58
264.405	11.58
264.62	9.14
264.835	11.25
265.051	13.84
265.266	12.9
265.481	14.67
265.696	14.63
265.912	15.16
266.127	13.92
266.342	12.62
266.557	13.43
266.773	13.54
266.988	14.25
267.203	12.47
267.418	9.5
267.633	11.07
267.848	10.5
268.064	9.8
268.279	9.43
268.494	9.34
268.709	9.71
268.924	6.73
269.139	7.12
269.354	6.66
269.569	8.23
269.784	7.59
269.999	8.99
270.214	9.38
270.429	7.73
270.644	5.1
270.859	6.82
271.074	9.08
271.289	11.02
271.504	11.89
271.719	12.22
271.934	12.3
272.149	14.96
272.363	14.46
272.578	15.22
272.793	15.97
273.008	17.27
273.223	16.71
273.438	16.62
273.653	14.64
273.867	14.48
274.082	14.23
274.297	13.66
274.512	11.77
274.726	12.2
274.941	11.44
275.156	10.79
275.371	9.26
275.585	10.34
275.8	10.02
276.015	12.51
276.229	10.82
276.444	10.49
276.659	10.82
276.873	12.21
277.088	10.42
277.302	10.36
277.517	11.46
277.732	13.49
277.946	12.68
278.161	13.34
278.375	13.31
278.59	15.76
278.804	16.09
279.019	17.53
279.233	17.44
279.448	17
279.662	16.44
279.877	15.62
280.091	15.41
280.306	15.5
280.52	14.09
280.735	13.29
280.949	11.78
281.163	11.89
281.378	8.68
281.592	8.18
281.806	7.84
282.021	8.68
282.235	8.46
282.449	8.18
282.664	8.69
282.878	9.28
283.092	8.66
283.307	8.24
283.521	7.93
283.735	11.98
283.949	11.34
284.164	10.86
284.378	9.26
284.592	8.69
284.806	7.34
285.02	8.38
285.234	8.79
285.449	10.54
285.663	11.54
285.877	13.32
286.091	11.63
286.305	12.96
286.519	13.55
286.733	15.31
286.947	16.39
287.161	18.2
287.375	18.33
287.589	18.23
287.803	17.09
288.017	16.91
288.231	16.27
288.445	15.27
288.659	15.29
288.873	16.55
289.087	15.86
289.301	16.92
289.515	17.37
289.729	17.03
289.943	16.84
290.157	16.99
290.371	16.63
290.584	15.94
290.798	16.7
291.012	16.65
291.226	15.9
291.44	14.93
291.654	14.22
291.867	13.83
292.081	13.89
292.295	14.34
292.509	14.62
292.722	14.99
292.936	15.26
293.15	15.4
293.364	15.11
293.577	16.04
293.791	15.32
294.005	16.63
294.218	15.35
294.432	14.15
294.645	13.64
294.859	12.94
295.073	14.41
295.286	13.73
295.5	13.34
295.713	12.95
295.927	12.29
296.14	13.91
296.354	12.4
296.568	13.43
296.781	13.42
296.994	13.53
297.208	14
297.421	14.17
297.635	14.37
297.848	14.09
298.062	15.02
298.275	14.82
298.489	15.13
298.702	14.94
298.915	14.15
299.129	15.44
299.342	15.47
299.555	16.67
299.769	15.85
299.982	16.99
300.195	17.56
300.409	16.97
300.622	18.13
300.835	17.96
301.048	20.32
301.262	20.78
301.475	20.54
301.688	19.72
301.901	18.47
302.115	18.13
302.328	17.05
302.541	15.88
302.754	16.21
302.967	15.13
303.18	13.48
303.393	13.45
303.607	13.72
303.82	13.63
304.033	14.18
304.246	16
304.459	16.09
304.672	17.21
304.885	18.51
305.098	17.48
305.311	18.75
305.524	20.49
305.737	20.14
305.95	21.83
306.163	20.74
306.376	18.66
306.589	17.29
306.802	18.14
307.015	18.49
307.228	19.31
307.44	20.08
307.653	20.54
307.866	22.58
308.079	19.77
308.292	18.45
308.505	19.56
308.718	22.74
308.93	22.22
309.143	22.32
309.356	20.53
309.569	20.36
309.781	19.77
309.994	17.72
310.207	16.13
310.42	17.09
310.632	18.25
310.845	16.95
311.058	16.83
311.27	18.04
311.483	16.98
311.696	17.54
311.908	18.14
312.121	18.29
312.333	19.73
312.546	19.86
312.759	19.62
312.971	16.81
313.184	18.5
313.396	18
313.609	16.93
313.821	17.68
314.034	17.76
314.246	17.29
314.459	18.41
314.671	17.2
314.884	16.37
315.096	18.18
315.309	19.7
315.521	17.43
315.733	16.09
315.946	15.04
316.158	14.29
316.371	13.82
316.583	12.62
316.795	11.51
317.008	14.11
317.22	15.73
317.432	14.35
317.644	15.09
317.857	17.49
318.069	18.15
318.281	17.71
318.494	16.66
318.706	18.88
318.918	21.21
319.13	21.07
319.342	19.45
319.555	18.47
319.767	17.51
319.979	15.12
320.191	13.77
320.403	14.86
320.615	17.21
320.827	17.38
321.039	15.59
321.252	11.97
321.464	12.78
321.676	13.09
321.888	12.58
322.1	14.86
322.312	16.01
322.524	15.83
322.736	15.75
322.948	13.52
323.16	14.56
323.372	14.53
323.584	15.77
323.796	15.74
324.007	15.48
324.219	13.49
324.431	12.53
324.643	13.48
324.855	14.54
325.067	15.07
325.279	15.3
325.491	14.53
325.702	15.16
325.914	15.8
326.126	15.44
326.338	14.69
326.55	16.78
326.761	15.85
326.973	16.47
327.185	15.23
327.396	14.28
327.608	15.44
327.82	16.88
328.032	15.73
328.243	14.72
328.455	15.14
328.666	16.03
328.878	17.95
329.09	17.71
329.301	15.66
329.513	14.95
329.725	15.47
329.936	15.45
330.148	15.15
330.359	16.2
330.571	15.83
330.782	15.61
330.994	17.01
331.205	16.68
331.417	17.93
331.628	17.88
331.84	20.79
332.051	19.81
332.262	19.79
332.474	18.48
332.685	16.25
332.897	16.6
333.108	16.28
333.319	13.63
333.531	11.87
333.742	12.7
333.953	15.02
334.165	14.95
334.376	15.18
334.587	14.75
334.799	15.53
335.01	17.35
335.221	18.74
335.432	20.44
335.644	22.25
335.855	22.82
336.066	22.92
336.277	21.78
336.488	22.03
336.7	23.67
336.911	24.42
337.122	24.37
337.333	24.16
337.544	23.62
337.755	21.47
337.966	22.05
338.177	21.21
338.388	20.71
338.599	20.43
338.811	18.22
339.022	17.1
339.233	15.78
339.444	15.91
339.655	15.3
339.866	13.12
340.076	13.13
340.287	12.39
340.498	12.72
340.709	13.58
340.92	14.97
341.131	15.07
341.342	14.29
341.553	15.72
341.764	16.06
341.975	15.58
342.185	18.18
342.396	19.16
342.607	18.6
342.818	19.59
343.029	18.79
343.239	18.44
343.45	19.44
343.661	19.59
343.872	18.67
344.082	18.12
344.293	19.15
344.504	18.73
344.714	18.13
344.925	18.28
345.136	17.68
345.346	17.72
345.557	17.46
345.768	16.97
345.978	17.28
346.189	16.67
346.399	16.39
346.61	15.72
346.821	14.7
347.031	14.79
347.242	13.43
347.452	12.13
347.663	12.31
347.873	12.21
348.084	11.58
348.294	11.37
348.504	12.57
348.715	12.93
348.925	13.17
349.136	13.07
349.346	13.19
349.557	15.31
349.767	15.67
349.977	14.63
350.188	14.27
350.398	15.44
350.608	16.86
350.819	16.67
351.029	17.13
351.239	18.53
351.449	19.18
351.66	19.93
351.87	18.74
352.08	20.34
352.29	20.93
352.501	20.92
352.711	21.15
352.921	21.02
353.131	21.57
353.341	20.62
353.552	19.41
353.762	19.19
353.972	18.64
354.182	18.83
354.392	16.36
354.602	16.71
354.812	17.74
355.022	17.3
355.232	16.53
355.442	15.04
355.652	15.58
355.862	15.77
356.072	16.51
356.282	15.8
356.492	16.34
356.702	17.26
356.912	16.56
357.122	15.81
357.332	15.85
357.542	15.59
357.752	16.79
357.962	17.42
358.171	17.01
358.381	17.39
358.591	17.98
358.801	17.38
359.011	18.17
359.221	19.09
359.43	19.25
359.64	18.69
359.85	18.13
360.06	18.33
360.269	18.72
360.479	18.86
360.689	18.08
360.899	17.56
361.108	16.64
361.318	15.94
361.528	15.66
361.737	15.89
361.947	15.49
362.156	15.59
362.366	15.24
362.576	14.03
362.785	13.7
362.995	13.87
363.204	14.16
363.414	15.6
363.623	15.62
363.833	14.84
364.042	15.01
364.252	15.82
364.461	15.96
364.671	14.99
364.88	14.71
365.09	15.11
365.299	14.21
365.509	14.24
365.718	12.96
365.927	13.88
366.137	14.5
366.346	13.77
366.555	13.01
366.765	13.35
366.974	14.47
367.183	14.55
367.393	13.45
367.602	13.48
367.811	13.06
368.021	13.64
368.23	12.44
368.439	12.11
368.648	12.74
368.857	13.53
369.067	13.82
369.276	13.01
369.485	13.09
369.694	13.54
369.903	13.84
370.112	13.77
370.321	13.56
370.531	13.44
370.74	14.29
370.949	13.01
371.158	12.44
371.367	12.01
371.576	12.13
371.785	12.79
371.994	12.93
372.203	13.08
372.412	13.33
372.621	14.32
372.83	14.66
373.039	14.25
373.248	14.63
373.457	14.75
373.666	14.09
373.874	14.19
374.083	13.21
374.292	13.76
374.501	13.26
374.71	12.64
374.919	11.7
375.128	11.74
375.336	11.05
375.545	12.15
375.754	12.49
375.963	12.88
376.171	13.31
376.38	14.09
376.589	13.92
376.798	13.7
377.006	13.46
377.215	12.95
377.424	12.55
377.632	13
377.841	12.41
378.05	11.86
378.258	12.06
378.467	11.64
378.675	11.44
378.884	10.88
379.093	10.84
379.301	11.39
379.51	11.67
379.718	12.08
379.927	11.8
380.135	11.47
380.344	12.29
380.552	12.13
380.761	12.21
380.969	11.99
381.177	11.86
381.386	12.13
381.594	11.91
381.803	11.54
382.011	11.25
382.219	11.28
382.428	11.59
382.636	11.13
382.845	11.18
383.053	10.77
383.261	10.52
383.469	11.17
383.678	10.6
383.886	11.07
384.094	11.16
384.302	11.29
384.511	11.56
384.719	11.64
384.927	11.35
385.135	11.35
385.343	10.84
385.552	10.42
385.76	9.64
385.968	10.07
386.176	9.79
386.384	9.88
386.592	9.9
386.8	9.63
387.008	9.32
387.216	9.2
387.424	9.18
387.633	9.58
387.841	10.09
388.049	10.31
388.257	10.49
388.465	10.09
388.672	10.21
388.88	9.34
389.088	9.59
389.296	9.53
389.504	9.51
389.712	9
389.92	9.02
390.128	8.87
390.336	8.91
390.544	8.72
390.751	8.99
390.959	8.76
391.167	9.25
391.375	8.83
391.583	9.26
391.79	9.33
391.998	9.18
392.206	9.54
392.414	9.83
392.621	9.97
392.829	10.13
393.037	9.96
393.244	9.98
393.452	9.97
393.66	9.92
393.867	9.51
394.075	9.53
394.283	9.89
394.49	9.63
394.698	9.4
394.905	9.12
395.113	8.45
395.32	8.58
395.528	8.87
395.735	8.71
395.943	8.8
396.15	8.29
396.358	8.02
396.565	8.1
396.773	8.02
396.98	7.76
397.188	7.9
397.395	8.5
397.602	8.14
397.81	7.96
398.017	8.06
398.225	7.63
398.432	8.2
398.639	8.17
398.847	8
399.054	7.91
399.261	8.18
399.468	7.8
399.676	7.6
399.883	7.72
400.09	7.41
400.297	7.53
400.505	7.72
400.712	7.41
400.919	7.8
401.126	7.68
401.333	7.43
401.54	7.74
401.748	8.21
401.955	8.61
402.162	8.07
402.369	8.1
402.576	8.3
402.783	8.47
402.99	8.27
403.197	7.99
403.404	8.28
403.611	8.4
403.818	8.07
404.025	7.66
404.232	7.52
404.439	8.03
404.646	8.14
404.853	7.76
405.06	7.81
405.267	8.29
405.474	8.41
405.681	8.22
405.887	8.3
406.094	8.32
406.301	8.65
406.508	8.46
406.715	8.68
406.922	8.83
407.128	8.95
407.335	8.82
407.542	8.79
407.749	8.89
407.955	8.66
408.162	9.1
408.369	8.89
408.575	8.81
408.782	8.77
408.989	8.73
409.195	8.75
409.402	8.9
409.609	8.25
409.815	7.81
410.022	7.78
410.228	8.2
410.435	7.96
410.642	8.13
410.848	8.4
411.055	8.44
411.261	8.08
411.468	7.77
411.674	7.55
411.881	8.2
412.087	8.29
412.294	7.98
412.5	7.29
412.706	6.92
412.913	6.69
413.119	6.69
413.326	6.72
413.532	7.03
413.738	7.09
413.945	7.09
414.151	6.99
414.357	7.29
414.564	7.51
414.77	8.02
414.976	8.17
415.182	8.36
415.389	8.04
415.595	7.89
415.801	7.84
416.007	8.03
416.214	8
416.42	7.97
416.626	7.58
416.832	7.91
417.038	8
417.244	8.1
417.45	8.06
417.657	8.27
417.863	8.4
418.069	8.27
418.275	8.23
418.481	8.05
418.687	8.09
418.893	8.22
419.099	7.91
419.305	7.73
419.511	7.62
419.717	7.66
419.923	7.69
420.129	7.59
420.335	7.59
420.541	7.55
420.746	7.69
420.952	7.56
421.158	7.68
421.364	7.68
421.57	7.77
421.776	7.93
421.982	7.8
422.187	7.56
422.393	7.45
422.599	7.44
422.805	7.41
423.01	7.34
423.216	7.42
423.422	7.32
423.628	7.28
423.833	7.05
424.039	7.01
424.245	7.08
424.45	7.11
424.656	7.37
424.862	7.39
425.067	7.44
425.273	7.41
425.478	7.59
425.684	7.55
425.889	7.62
426.095	7.83
426.301	7.51
426.506	7.48
426.712	7.4
426.917	7.2
427.123	7.25
427.328	7.02
427.533	7.23
427.739	7.11
427.944	7.32
428.15	7.26
428.355	7.3
428.561	7.53
428.766	7.55
428.971	7.99
429.177	7.99
429.382	7.88
429.587	8.05
429.793	8.04
429.998	8.09
430.203	7.99
430.408	8.02
430.614	7.7
430.819	7.8
431.024	7.94
431.229	7.38
431.434	7.4
431.64	7.31
431.845	7.5
432.05	7.42
432.255	7.28
432.46	6.99
432.665	7.16
432.87	7.4
433.076	7.41
433.281	7.47
433.486	7.74
433.691	7.63
433.896	7.85
434.101	7.71
434.306	7.57
434.511	7.61
434.716	7.77
434.921	7.87
435.126	7.9
435.331	7.8
435.535	7.52
435.74	7.33
435.945	7.48
436.15	7.32
436.355	7.22
436.56	7.33
436.765	7.16
436.97	7.15
437.174	6.9
437.379	6.73
437.584	6.78
437.789	6.73
437.993	6.82
438.198	6.74
438.403	6.66
438.608	6.56
438.812	6.67
439.017	6.84
439.222	6.84
439.426	6.59
439.631	6.81
439.836	6.82
440.04	6.92
440.245	6.99
440.45	6.9
440.654	7.04
440.859	7.08
441.063	7.08
441.268	7.01
441.472	6.94
441.677	7.15
441.881	7.05
442.086	6.8
442.29	6.9
442.495	7.03
442.699	7.02
442.904	7.08
443.108	7.11
443.312	6.99
443.517	7
443.721	7.24
443.925	7.25
444.13	7.35
444.334	7.35
444.538	7.2
444.743	7.06
444.947	7.17
445.151	6.98
445.356	6.95
445.56	6.98
445.764	6.89
445.968	6.71
446.173	6.58
446.377	6.46
446.581	6.64
446.785	6.8
446.989	6.73
447.193	6.74
447.398	6.74
447.602	6.85
447.806	6.87
448.01	6.94
448.214	6.98
448.418	7.06
448.622	7.13
448.826	7
449.03	6.66
449.234	6.75
449.438	6.96
449.642	7.07
449.846	7.01
450.05	7.08
450.254	6.97
450.458	6.89
450.662	6.84
450.866	6.75
451.069	6.71
451.273	7.1
451.477	6.85
451.681	6.62
451.885	6.49
452.089	6.6
452.292	6.67
452.496	6.76
452.7	6.81
452.904	6.95
453.107	7.15
453.311	7.37
453.515	7.01
453.719	7.3
453.922	7.15
454.126	7.2
454.33	7.14
454.533	7.07
454.737	7.07
454.94	7.21
455.144	7.08
455.348	7.02
455.551	6.92
455.755	7.14
455.958	6.96
456.162	7.01
456.365	7.19
456.569	6.98
456.772	6.76
456.976	6.77
457.179	6.54
457.383	6.59
457.586	6.51
457.79	6.51
457.993	6.74
458.196	6.88
458.4	6.94
458.603	6.86
458.807	6.9
459.01	6.9
459.213	6.82
459.417	6.87
459.62	6.91
459.823	6.87
460.026	6.75
460.23	6.62
460.433	6.52
460.636	6.52
460.839	6.54
461.042	6.63
461.246	6.69
461.449	6.76
461.652	6.7
461.855	6.75
462.058	6.6
462.261	6.68
462.464	6.48
462.668	6.62
462.871	6.7
463.074	6.67
463.277	6.68
463.48	6.61
463.683	6.67
463.886	6.69
464.089	6.72
464.292	6.69
464.495	7.04
464.698	7.29
464.901	7.21
465.104	6.99
465.306	6.97
465.509	6.92
465.712	7.09
465.915	6.8
466.118	6.92
466.321	6.85
466.524	7.04
466.726	6.69
466.929	6.69
467.132	6.63
467.335	6.67
467.538	6.62
467.74	6.52
467.943	6.36
468.146	6.58
468.348	6.57
468.551	6.41
468.754	6.46
468.956	6.4
469.159	6.29
469.362	6.3
469.564	6.48
469.767	6.65
469.969	6.77
470.172	6.75
470.375	6.7
470.577	6.73
470.78	6.7
470.982	6.58
471.185	6.54
471.387	6.47
471.59	6.66
471.792	6.52
471.995	6.24
472.197	6.21
472.399	6.39
472.602	6.23
472.804	5.99
473.007	6.11
473.209	6.23
473.411	6.32
473.614	6.52
473.816	6.42
474.018	6.4
474.22	6.36
474.423	6.18
474.625	6.18
474.827	6.42
475.03	6.74
475.232	6.66
475.434	6.56
475.636	6.61
475.838	6.65
476.04	6.59
476.243	6.33
476.445	6.58
476.647	6.72
476.849	6.6
477.051	6.41
477.253	6.24
477.455	6.38
477.657	6.39
477.859	6.47
478.061	6.36
478.263	6.24
478.465	6.47
478.667	6.52
478.869	6.61
479.071	6.63
479.273	6.81
479.475	6.91
479.677	6.77
479.879	6.9
480.081	6.88
480.283	6.89
480.485	7.04
480.686	7.22
480.888	7.08
481.09	7.02
481.292	6.99
481.494	6.83
481.695	6.81
481.897	6.92
482.099	6.76
482.301	6.65
482.502	6.6
482.704	6.62
482.906	6.55
483.107	6.57
483.309	6.55
483.511	6.56
483.712	6.61
483.914	6.59
484.115	6.54
484.317	6.58
484.519	6.62
484.72	6.6
484.922	6.58
485.123	6.49
485.325	6.52
485.526	6.49
485.728	6.45
485.929	6.39
486.131	6.41
486.332	6.41
486.534	6.33
486.735	6.34
486.936	6.35
487.138	6.33
487.339	6.36
487.541	6.26
487.742	6.22
487.943	6.36
488.144	6.42
488.346	6.39
488.547	6.39
488.748	6.45
488.95	6.42
489.151	6.52
489.352	6.51
489.553	6.58
489.755	6.59
489.956	6.67
490.157	6.61
490.358	6.57
490.559	6.49
490.76	6.54
490.961	6.53
491.163	6.42
491.364	6.29
491.565	6.3
491.766	6.28
491.967	6.25
492.168	6.22
492.369	6.23
492.57	6.21
492.771	6.31
492.972	6.27
493.173	6.25
493.374	6.39
493.575	6.4
493.776	6.37
493.976	6.35
494.177	6.48
494.378	6.5
494.579	6.43
494.78	6.52
494.981	6.37
495.182	6.34
495.382	6.38
495.583	6.25
495.784	6.3
495.985	6.36
496.185	6.45
496.386	6.32
496.587	6.47
496.788	6.44
496.988	6.43
497.189	6.46
497.39	6.47
497.59	6.55
497.791	6.61
497.992	6.79
498.192	6.73
498.393	6.73
498.593	6.77
498.794	6.67
498.994	6.47
499.195	6.58
499.395	6.7
499.596	6.62
499.796	6.72
499.997	6.61
500.197	6.37
500.398	6.57
500.598	6.57
500.799	6.66
500.999	6.68
501.199	7
501.4	6.99
501.6	6.92
501.801	6.94
502.001	6.76
502.201	6.95
502.402	6.92
502.602	6.88
502.802	6.74
503.002	6.66
503.203	6.6
503.403	6.4
503.603	6.53
503.803	6.39
504.003	6.51
504.204	6.5
504.404	6.47
504.604	6.44
504.804	6.5
505.004	6.73
505.204	6.77
505.404	6.86
505.604	6.81
505.804	6.57
506.005	6.82
506.205	6.92
506.405	7.02
506.605	7.07
506.805	7.51
507.005	7.46
507.204	7.34
507.404	7.34
507.604	7.31
507.804	7.62
508.004	7.36
508.204	7.4
508.404	7.33
508.604	7.13
508.804	7.07
509.003	6.74
509.203	6.63
509.403	6.67
509.603	6.75
509.803	6.81
510.002	6.64
510.202	6.99
510.402	6.81
510.602	6.8
510.801	6.99
511.001	7.23
511.201	7.37
511.4	7.62
511.6	7.57
511.8	7.51
511.999	7.52
512.199	7.63
512.398	7.48
512.598	7.49
512.797	7.53
512.997	7.55
513.197	7.44
513.396	7.46
513.596	7.24
513.795	7.36
513.994	7.39
514.194	7.41
514.393	7.42
514.593	7.54
514.792	7.72
514.992	7.87
515.191	7.78
515.39	7.78
515.59	7.72
515.789	7.91
515.988	7.86
516.188	7.94
516.387	7.89
516.586	7.94
516.786	7.98
516.985	8
517.184	7.87
517.383	7.96
517.582	7.83
517.782	7.93
517.981	8.14
518.18	8.18
518.379	8.26
518.578	8.18
518.777	8.22
518.976	8.22
519.176	8.22
519.375	8.45
519.574	8.47
519.773	8.66
519.972	8.64
520.171	8.39
520.37	8.44
520.569	8.3
520.768	8.44
520.967	8.37
521.166	8.5
521.365	8.55
521.564	8.33
521.762	8.35
521.961	8.24
522.16	8.4
522.359	8.53
522.558	8.64
522.757	8.79
522.956	9
523.154	9.19
523.353	9.16
523.552	9.24
523.751	9.37
523.949	9.61
524.148	9.62
524.347	9.63
524.546	9.54
524.744	9.45
524.943	9.44
525.142	9.41
525.34	9.22
525.539	9.25
525.737	9.35
525.936	9.37
526.135	9.23
526.333	9.24
526.532	9.32
526.73	9.41
526.929	9.43
527.127	9.55
527.326	9.44
527.524	9.53
527.723	9.56
527.921	9.6
528.12	9.58
528.318	9.56
528.516	9.61
528.715	9.56
528.913	9.61
529.112	9.68
529.31	9.67
529.508	9.75
529.707	9.75
529.905	9.76
530.103	9.58
530.301	9.71
530.5	9.77
530.698	9.78
530.896	9.93
531.094	9.91
531.293	9.82
531.491	9.77
531.689	9.82
531.887	9.89
532.085	9.89
532.283	10.13
532.481	9.99
532.68	10.07
532.878	10.09
533.076	10.06
533.274	10.13
533.472	10.27
533.67	10.29
533.868	10.38
534.066	10.43
534.264	10.55
534.462	10.54
534.66	10.57
534.858	10.61
535.056	10.69
535.253	10.73
535.451	10.76
535.649	10.83
535.847	10.88
536.045	10.88
536.243	11.01
536.441	10.96
536.638	10.96
536.836	11.07
537.034	11.07
537.232	11.09
537.43	11.06
537.627	11.09
537.825	11.06
538.023	11.04
538.22	11.07
538.418	11.02
538.616	11.05
538.813	11.08
539.011	11.09
539.209	11.08
539.406	11.26
539.604	11.35
539.801	11.57
539.999	11.67
540.196	11.81
540.394	11.84
540.591	11.93
540.789	12.02
540.986	12.23
541.184	12.4
541.381	12.49
541.579	12.41
541.776	12.45
541.974	12.45
542.171	12.5
542.368	12.51
542.566	12.6
542.763	12.67
542.96	12.65
543.158	12.57
543.355	12.46
543.552	12.45
543.75	12.53
543.947	12.47
544.144	12.35
544.341	12.39
544.539	12.38
544.736	12.47
544.933	12.3
545.13	12.5
545.327	12.69
545.524	12.86
545.722	13.05
545.919	13.06
546.116	13.27
546.313	13.53
546.51	13.48
546.707	13.63
546.904	13.6
547.101	13.78
547.298	13.82
547.495	13.64
547.692	13.6
547.889	13.45
548.086	13.73
548.283	13.62
548.48	13.6
548.677	13.69
548.874	13.86
549.07	13.86
549.267	14.12
549.464	13.85
549.661	14.06
549.858	14.01
550.055	14.29
550.251	14.2
550.448	14.51
550.645	14.51
550.842	14.65
551.038	14.63
551.235	14.53
551.432	14.57
551.628	14.95
551.825	15.33
552.022	15.59
552.218	15.67
552.415	15.7
552.612	15.76
552.808	16
553.005	15.82
553.201	15.9
553.398	16.17
553.594	16.08
553.791	16.24
553.987	16.09
554.184	16.07
554.38	16.01
554.577	16.21
554.773	16.37
554.97	16.3
555.166	16.6
555.362	16.63
555.559	16.67
555.755	16.63
555.952	16.69
556.148	16.5
556.344	16.52
556.541	16.59
556.737	16.55
556.933	16.39
557.129	16.35
557.326	16.11
557.522	16.22
557.718	16.21
557.914	16.45
558.11	16.25
558.307	16.57
558.503	16.88
558.699	16.99
558.895	17.03
559.091	17.06
559.287	17.16
559.483	17.46
559.679	17.53
559.876	17.62
560.072	17.48
560.268	17.68
560.464	17.76
560.66	17.44
560.856	17.63
561.052	17.49
561.247	17.53
561.443	17.5
561.639	17.49
561.835	17.48
562.031	17.84
562.227	18.18
562.423	18.3
562.619	18.3
562.815	18.43
563.01	18.62
563.206	18.73
563.402	18.77
563.598	18.86
563.793	19.24
563.989	19.59
564.185	19.45
564.381	19.46
564.576	19.53
564.772	19.7
564.968	19.97
565.163	19.73
565.359	20.01
565.555	20.38
565.75	20.42
565.946	20.34
566.141	20.18
566.337	20.1
566.532	20.12
566.728	20.17
566.923	20.22
567.119	20.29
567.314	20.44
567.51	20.45
567.705	20.36
567.901	20.59
568.096	20.56
568.292	20.66
568.487	20.94
568.682	21
568.878	21.1
569.073	21.19
569.268	21.39
569.464	21.3
569.659	21.27
569.854	21.34
570.05	21.22
570.245	21.51
570.44	21.59
570.635	21.48
570.831	21.65
571.026	21.49
571.221	21.42
571.416	21.26
571.611	21.35
571.806	21.46
572.002	21.58
572.197	21.79
572.392	21.62
572.587	21.58
572.782	21.73
572.977	21.67
573.172	21.92
573.367	22.05
573.562	22.08
573.757	22.09
573.952	21.95
574.147	21.9
574.342	21.87
574.537	22.03
574.732	22.12
574.927	22.43
575.121	22.44
575.316	22.52
575.511	22.5
575.706	22.57
575.901	22.58
576.096	22.93
576.29	22.65
576.485	23
576.68	23.06
576.875	22.95
577.069	22.73
577.264	22.7
577.459	22.68
577.654	22.78
577.848	22.87
578.043	23.03
578.238	22.79
578.432	23.1
578.627	23.11
578.821	23.24
579.016	23.31
579.21	23.13
579.405	23.17
579.6	23.03
579.794	22.88
579.989	22.78
580.183	22.89
580.378	23.04
580.572	23.21
580.766	22.95
580.961	22.93
581.155	23.08
581.35	23.36
581.544	23.69
581.738	23.66
581.933	23.77
582.127	24.04
582.321	24.02
582.516	24.38
582.71	24.54
582.904	24.51
583.099	24.38
583.293	24.5
583.487	24.53
583.681	24.42
583.875	24.6
584.07	24.78
584.264	24.74
584.458	24.93
584.652	24.67
584.846	24.4
585.04	24.55
585.234	24.44
585.428	24.53
585.623	24.41
585.817	24.44
586.011	24.43
586.205	24.72
586.399	25.04
586.593	25.06
586.787	24.84
586.981	24.85
587.174	24.63
587.368	24.74
587.562	24.67
587.756	24.59
587.95	24.64
588.144	24.57
588.338	24.08
588.532	23.94
588.725	23.8
588.919	24.18
589.113	24.36
589.307	24.44
589.501	24.57
589.694	24.28
589.888	24.37
590.082	24.44
590.275	24.85
590.469	25.11
590.663	25.09
590.856	25.19
591.05	25.4
591.244	25.2
591.437	25.41
591.631	25.34
591.824	25.53
592.018	26.01
592.212	26.15
592.405	26.15
592.599	26.15
592.792	26.42
592.986	26.64
593.179	26.66
593.372	26.7
593.566	26.57
593.759	26.83
593.953	27.1
594.146	26.95
594.339	26.83
594.533	26.89
594.726	26.93
594.92	26.81
595.113	26.65
595.306	26.7
595.499	27.14
595.693	27.48
595.886	27.3
596.079	27.3
596.272	27.43
596.466	27.38
596.659	27.07
596.852	26.89
597.045	27.03
597.238	26.96
597.431	27
597.624	26.75
597.818	26.83
598.011	26.92
598.204	27.08
598.397	26.85
598.59	26.77
598.783	26.8
598.976	27
599.169	26.96
599.362	27.3
599.555	27.15
599.748	27.34
599.941	26.97
600.134	26.96
600.326	26.49
600.519	26.59
600.712	26.66
600.905	26.7
601.098	26.95
601.291	26.46
601.483	26.08
601.676	26.05
601.869	26.14
602.062	26.29
602.255	26.45
602.447	26.73
602.64	26.83
602.833	26.91
603.025	27.22
603.218	27.05
603.411	27.34
603.603	27.72
603.796	27.81
603.989	27.74
604.181	27.8
604.374	27.86
604.566	27.81
604.759	27.85
604.951	27.9
605.144	27.88
605.336	27.87
605.529	27.92
605.721	28
605.914	27.92
606.106	27.98
606.299	28.18
606.491	28.2
606.683	28.31
606.876	28.09
607.068	28.06
607.26	28.18
607.453	28.16
607.645	28.03
607.837	27.86
608.03	27.89
608.222	27.95
608.414	27.68
608.606	27.57
608.799	27.54
608.991	27.9
609.183	27.99
609.375	27.75
609.567	27.85
609.759	27.83
609.952	27.75
610.144	27.84
610.336	27.76
610.528	27.76
610.72	27.79
610.912	27.88
611.104	27.62
611.296	27.55
611.488	27.68
611.68	27.61
611.872	27.81
612.064	27.86
612.256	27.88
612.448	28.24
612.64	28.3
612.832	28.47
613.023	28.58
613.215	28.6
613.407	28.7
613.599	28.42
613.791	28.7
613.983	28.53
614.174	28.66
614.366	28.72
614.558	28.3
614.75	28.34
614.941	28.26
615.133	28.53
615.325	28.66
615.516	28.59
615.708	28.62
615.9	28.41
616.091	28.23
616.283	27.93
616.475	27.77
616.666	27.57
616.858	27.61
617.049	27.67
617.241	27.37
617.432	27.5
617.624	27.27
617.815	27.41
618.007	27.2
618.198	27.62
618.39	27.69
618.581	27.52
618.773	27.78
618.964	28.01
619.155	27.72
619.347	27.95
619.538	27.75
619.729	28.18
619.921	28.38
620.112	28.53
620.303	28.27
620.494	28.6
620.686	28.93
620.877	29.07
621.068	28.94
621.259	28.94
621.451	28.59
621.642	28.73
621.833	28.74
622.024	28.64
622.215	28.91
622.406	29.1
622.597	29.15
622.788	29.16
622.98	29.02
623.171	29.1
623.362	29.25
623.553	29.36
623.744	29.32
623.935	29.28
624.126	29.21
624.317	28.78
624.508	28.64
624.698	28.47
624.889	28.42
625.08	28.43
625.271	28.44
625.462	28.56
625.653	28.27
625.844	28.47
626.034	28.45
626.225	28.67
626.416	28.97
626.607	29.08
626.798	29.21
626.988	28.91
627.179	29.41
627.37	29.34
627.56	29.29
627.751	29.54
627.942	29.36
628.132	29.75
628.323	29.78
628.514	29.72
628.704	29.87
628.895	29.66
629.085	29.87
629.276	29.61
629.466	29.64
629.657	29.81
629.847	29.89
630.038	30.13
630.228	29.69
630.419	29.53
630.609	29.89
630.8	29.77
630.99	29.78
631.181	30.04
631.371	30.02
631.561	29.82
631.752	30.08
631.942	30.12
632.132	30.15
632.323	30.71
632.513	30.63
632.703	30.39
632.893	30.36
633.084	30.57
633.274	30.41
633.464	30.44
633.654	30.85
633.844	30.54
634.034	30.58
634.225	30.36
634.415	30.13
634.605	30.55
634.795	30.31
634.985	30.3
635.175	30.27
635.365	30.6
635.555	30.1
635.745	29.63
635.935	29.34
636.125	29.24
636.315	29.33
636.505	29.17
636.695	29.05
636.885	29.34
637.075	29.42
637.265	29.64
637.455	29.16
637.644	29.72
637.834	30.06
638.024	30.09
638.214	29.99
638.404	30.16
638.593	30.35
638.783	29.91
638.973	29.96
639.163	29.81
639.352	29.82
639.542	29.8
639.732	29.6
639.921	29.73
640.111	29.89
640.301	30.18
640.49	30.13
640.68	29.95
640.87	30.22
641.059	30.42
641.249	31.38
641.438	31.32
641.628	31.86
641.817	31.95
642.007	31.63
642.196	31.54
642.386	31.5
642.575	31.23
642.764	31.1
642.954	31.03
643.143	30.52
643.333	29.45
643.522	29.3
643.711	29.2
643.901	29.51
644.09	29.87
644.279	29.81
644.469	29.59
644.658	29.79
644.847	29.88
645.036	30.06
645.226	30.6
645.415	30.74
645.604	30.95
645.793	31.23
645.982	30.66
646.171	30.65
646.361	31.04
646.55	31.39
646.739	31.46
646.928	31.36
647.117	31.42
647.306	31.35
647.495	31.74
647.684	31.49
647.873	31.39
648.062	31.6
648.251	31.06
648.44	31.39
648.629	31.79
648.818	31.47
649.007	31.77
649.196	31.71
649.384	31.72
649.573	31.54
649.762	31.32
649.951	31.25
650.14	31.41
650.328	32.35
650.517	32.32
650.706	32.19
650.895	32.43
651.083	32.08
651.272	32.31
651.461	32.03
651.65	32.09
651.838	32.76
652.027	32.7
652.216	32.62
652.404	31.95
652.593	31.48
652.781	30.98
652.97	30.97
653.158	31.47
653.347	31.74
653.535	31.87
653.724	32.3
653.912	32.39
654.101	32.27
654.289	32.33
654.478	32.79
654.666	32.94
654.855	33.2
655.043	33.39
655.231	33.44
655.42	33.09
655.608	33.62
655.796	33.02
655.985	32.65
656.173	32.71
656.361	32.82
656.55	32.12
656.738	32.09
656.926	31.87
657.114	32.02
657.302	31.54
657.491	31.74
657.679	31.19
657.867	31.39
658.055	31.36
658.243	31.19
658.431	31.48
658.619	31.88
658.807	32.24
658.996	32.45
659.184	32.46
659.372	32.63
659.56	32.3
659.748	32.65
659.936	32.57
660.124	32.82
660.311	32.83
660.499	32.41
660.687	32.63
660.875	32.66
661.063	32.44
661.251	32.34
661.439	32.68
661.627	32.62
661.814	32.3
662.002	32.72
662.19	32.88
662.378	33.19
662.565	33.52
662.753	33.25
662.941	32.93
663.129	33.15
663.316	33.45
663.504	32.81
663.692	33.04
663.879	33.53
664.067	33.02
664.254	32.68
664.442	32.12
664.63	31.91
664.817	32.28
665.005	32.2
665.192	32.51
665.38	31.93
665.567	32.46
665.755	32.58
665.942	32.14
666.13	32.44
666.317	32.56
666.504	33.14
666.692	33.08
666.879	33.04
667.067	33.01
667.254	32.85
667.441	33.19
667.629	33.05
667.816	32.93
668.003	32.78
668.19	32.77
668.378	32.33
668.565	32.12
668.752	31.59
668.939	31.37
669.127	31.39
669.314	31.29
669.501	31.36
669.688	30.99
669.875	31.25
670.062	31.51
670.249	31.54
670.436	31.96
670.623	32.26
670.81	32.68
670.997	32.42
671.184	32.82
671.371	32.83
671.558	32.25
671.745	32.47
671.932	32.54
672.119	32.83
672.306	32.59
672.493	32.57
672.68	32.72
672.867	33.46
673.054	33.65
673.24	33.62
673.427	33.46
673.614	33.64
673.801	33.86
673.988	33.53
674.174	33.37
674.361	33
674.548	32.56
674.734	32.18
674.921	31.48
675.108	31.65
675.294	31.04
675.481	31.26
675.668	32.17
675.854	32.62
676.041	31.84
676.227	31.46
676.414	31.99
676.601	32.29
676.787	32.4
676.974	32.23
677.16	32.35
677.347	32.51
677.533	31.89
677.719	31.13
677.906	30.61
678.092	31.03
678.279	30.89
678.465	30.94
678.651	30.7
678.838	31.15
679.024	31.33
679.21	31.75
679.397	32.53
679.583	33.02
679.769	33.04
679.955	33.64
680.142	34.34
680.328	34.9
680.514	35.1
680.7	35.63
680.886	35.57
681.073	36.19
681.259	35.62
681.445	35.39
681.631	35.59
681.817	35.91
682.003	35.23
682.189	34.65
682.375	34.2
682.561	33.74
682.747	33.18
682.933	32.79
683.119	32.32
683.305	32.72
683.491	32.93
683.677	32.84
683.863	32.57
684.049	33.39
684.235	33.87
684.42	34.29
684.606	34.33
684.792	34.25
684.978	34.65
685.164	35.03
685.349	34.81
685.535	34.65
685.721	34.61
685.907	34.53
686.092	33.76
686.278	33.4
686.464	33.11
686.649	33.01
686.835	32.95
687.021	32.69
687.206	33.41
687.392	33.1
687.577	32.5
687.763	32.78
687.948	32.7
688.134	32.62
688.319	32.66
688.505	33.03
688.69	33.67
688.876	34.68
689.061	34.39
689.247	34.19
689.432	34.77
689.618	35.32
689.803	35.31
689.988	35.71
690.174	35.92
690.359	36.45
690.544	36.81
690.73	37.22
690.915	36.78
691.1	37.5
691.285	36.71
691.471	36.2
691.656	36.21
691.841	36.05
692.026	35.86
692.211	36
692.396	35.56
692.582	35.45
692.767	34.52
692.952	34.79
693.137	34.58
693.322	34.5
693.507	35.19
693.692	34.66
693.877	34.35
694.062	34.67
694.247	34.67
694.432	34.55
694.617	34.66
694.802	34.99
694.987	35.07
695.172	34.92
695.357	34.82
695.541	34.73
695.726	35.42
695.911	35.25
696.096	34.95
696.281	35.06
696.466	35.43
696.65	34.74
696.835	34.42
697.02	34.95
697.204	35.02
697.389	35.02
697.574	35.15
697.759	34.31
697.943	34.77
698.128	35.13
698.312	35.55
698.497	35.09
698.682	35
698.866	35.1
699.051	34.16
699.235	34.19
699.42	34.08
699.604	33.59
699.789	33.73
699.973	33.82
700.158	33.72
700.342	33.32
700.527	33.58
700.711	33.93
700.895	34.1
701.08	34.79
701.264	34.72
701.448	35.08
701.633	35.5
701.817	36.38
702.001	36.13
702.186	36.05
702.37	35.89
702.554	35.67
702.738	35.54
702.923	34.5
703.107	34.49
703.291	34.72
703.475	34.05
703.659	33.65
703.843	32.91
704.027	32.82
704.212	32.41
704.396	32.29
704.58	32.67
704.764	32.33
704.948	34.44
705.132	33.38
705.316	32.63
705.5	33.76
705.684	34.69
705.868	35.16
706.052	35.47
706.235	36.71
706.419	36.31
706.603	34.92
706.787	35.3
706.971	33.49
707.155	33.55
707.339	33.8
707.522	33.5
707.706	32.58
707.89	32.93
708.074	32.53
708.257	31.7
708.441	33.18
708.625	34.74
708.808	35.45
708.992	36.38
709.176	37.16
709.359	37.2
709.543	36.65
709.727	37.38
709.91	36.97
710.094	37.67
710.277	36.77
710.461	35.29
710.644	35.03
710.828	35.03
711.011	34.52
711.195	34.75
711.378	34.38
711.562	34.56
711.745	33.55
711.928	33.37
712.112	33.04
712.295	33.88
712.478	33.98
712.662	33.96
712.845	34.24
713.028	34.3
713.212	33.77
713.395	33.76
713.578	33.65
713.761	34.06
713.945	34.01
714.128	33.91
714.311	33.67
714.494	34.5
714.677	34.49
714.86	33.59
715.043	34.01
715.227	34.03
715.41	34.93
715.593	34.85
715.776	35.58
715.959	35.77
716.142	35.59
716.325	36.19
716.508	36.04
716.691	35.38
716.874	36.68
717.057	36.5
717.239	36.91
717.422	37.13
717.605	37.46
717.788	36.28
717.971	36.51
718.154	37.44
718.337	36.81
718.519	36.11
718.702	36.58
718.885	36.58
719.068	36.34
719.25	35.51
719.433	35.5
719.616	35.54
719.798	36.12
719.981	36.5
720.164	35.93
720.346	36.58
720.529	36.62
720.712	36.58
720.894	35.53
721.077	35.39
721.259	35.4
721.442	35.61
721.624	35.37
721.807	35.74
721.989	34.71
722.172	34.02
722.354	33.77
722.537	33.74
722.719	33.92
722.901	35.26
723.084	36.12
723.266	36.43
723.448	35.16
723.631	36
723.813	35.53
723.995	37.26
724.178	37.9
724.36	38.2
724.542	39.02
724.724	39.28
724.907	36.24
725.089	36.72
725.271	36.19
725.453	36.79
725.635	36.5
725.817	36.46
725.999	36.42
726.181	36.69
726.364	35.74
726.546	35.49
726.728	34.99
726.91	36.02
727.092	34.96
727.274	35.12
727.456	34.31
727.638	34.15
727.819	33.82
728.001	32.51
728.183	31.77
728.365	32.91
728.547	33.08
728.729	33.27
728.911	33.16
729.093	34.63
729.274	35.93
729.456	37.05
729.638	37.37
729.82	38.63
730.001	39.64
730.183	40.01
730.365	39.03
730.546	38.04
730.728	39.36
730.91	39.55
731.091	37.75
731.273	36.55
731.455	36.69
731.636	35.8
731.818	35.31
731.999	35.36
732.181	35.8
732.362	35.75
732.544	36.91
732.725	36.64
732.907	37.29
733.088	38.19
733.27	38.76
733.451	38.27
733.633	39.07
733.814	39.33
733.995	39.04
734.177	38.83
734.358	39.11
734.539	38.65
734.721	37.47
734.902	36.79
735.083	36.24
735.264	35.25
735.446	35.14
735.627	35.51
735.808	35.49
735.989	34.8
736.17	34.99
736.351	34.49
736.533	34.09
736.714	34.76
736.895	33.76
737.076	33.2
737.257	33.76
737.438	33.75
737.619	32.19
737.8	33.03
737.981	33.26
738.162	33.13
738.343	34.68
738.524	34.6
738.705	34.72
738.886	35.98
739.067	36.52
739.247	36.86
739.428	37.34
739.609	37.78
739.79	36.87
739.971	36.52
740.151	35.85
740.332	35.41
740.513	35.74
740.694	34.98
740.874	34.59
741.055	35.49
741.236	34.94
741.417	34.82
741.597	35.54
741.778	35.3
741.958	35.74
742.139	37.11
742.32	36.33
742.5	37.01
742.681	37.1
742.861	36.95
743.042	37.64
743.222	38.79
743.403	38.97
743.583	38.35
743.764	38.85
743.944	38.37
744.124	38.08
744.305	38.61
744.485	38.11
744.666	38.13
744.846	38.47
745.026	37.27
745.207	35.87
745.387	35.72
745.567	36.15
745.747	36.98
745.928	36.77
746.108	36.11
746.288	35.58
746.468	36.51
746.648	36.95
746.829	37.07
747.009	36.91
747.189	37.19
747.369	36.6
747.549	36.08
747.729	34.01
747.909	34.47
748.089	34.14
748.269	34.21
748.449	33.48
748.629	33.15
748.809	33.86
748.989	36.36
749.169	35.43
749.349	34.93
749.529	36.7
749.709	38.56
749.889	39.05
750.068	37.62
750.248	39.62
750.428	40.41
750.608	40.79
750.788	40.83
750.967	37.2
751.147	38.03
751.327	38.69
751.507	38.05
751.686	37.35
751.866	38.24
752.046	38.07
752.225	37.92
752.405	36.14
752.585	36.95
752.764	35
752.944	35.76
753.123	37.06
753.303	35.84
753.482	34.92
753.662	35.38
753.841	33.82
754.021	36.08
754.2	34.58
754.38	35.16
754.559	33.08
754.739	34.08
754.918	33.53
755.097	34.48
755.277	36.68
755.456	38
755.635	36.71
755.815	36.6
755.994	37.04
756.173	36.37
756.352	37.32
756.532	37.59
756.711	37.19
756.89	37.82
757.069	35.34
757.248	34.54
757.427	33.7
757.607	33.28
757.786	34.76
757.965	33.16
758.144	33.89
758.323	32.65
758.502	33.63
758.681	33.87
758.86	34
759.039	34.83
759.218	35.17
759.397	35.18
759.576	37.47
759.755	36.88
759.934	36.65
760.113	36.2
760.291	37.44
760.47	38.04
760.649	38.86
760.828	38.93
761.007	39.15
761.186	38.66
761.364	38.64
761.543	37.66
761.722	36.57
761.901	37.58
762.079	39.33
762.258	39.44
762.437	37.9
762.615	37.96
762.794	38.36
762.972	38.47
763.151	38.96
763.33	38.97
763.508	38.59
763.687	39.15
763.865	38.8
764.044	37.84
764.222	37.03
764.401	37.58
764.579	36.83
764.758	36.04
764.936	35.86
765.114	35.88
765.293	36.1
765.471	35.7
765.65	35.27
765.828	35.67
766.006	35.57
766.184	35.85
766.363	35.45
766.541	36.03
766.719	36.84
766.898	35.51
767.076	35.3
767.254	33.38
767.432	35.14
767.61	35.47
767.788	36.55
767.967	36.32
768.145	36.35
768.323	36.91
768.501	37.89
768.679	37.38
768.857	38.18
769.035	38.78
769.213	41.81
769.391	40.92
769.569	41.41
769.747	39.46
769.925	40.54
770.103	39.86
770.281	38.89
770.459	37.98
770.636	39.15
770.814	38.92
770.992	36.87
771.17	36.27
771.348	36.28
771.525	35.59
771.703	34.05
771.881	34.43
772.059	37.08
772.236	38.83
772.414	36.56
772.592	35.46
772.769	37.61
772.947	37.93
773.125	38.44
773.302	37.74
773.48	39.37
773.657	40.83
773.835	40.46
774.013	37.24
774.19	35.16
774.368	37.2
774.545	39.42
774.723	37.58
774.9	38.75
775.077	37.71
775.255	40.39
775.432	39.44
775.61	40.33
775.787	41.84
775.964	41.9
776.142	42.66
776.319	44.31
776.496	44.88
776.674	43.44
776.851	42.17
777.028	41.29
777.205	38.09
777.382	38.66
777.56	37.02
777.737	33.81
777.914	36.31
778.091	37.07
778.268	37.1
778.445	33.47
778.622	32.97
778.8	33.94
778.977	33.15
779.154	35.58
779.331	34.2
779.508	35.26
779.685	38.43
779.862	37.51
780.038	41.57
780.215	39.46
780.392	41.81
780.569	44.45
780.746	42.85
780.923	45.23
781.1	41.25
781.277	41.58
781.453	41.23
781.63	39.95
781.807	39.72
781.984	34.88
782.16	33.31
782.337	29.91
782.514	29.09
782.691	31.35
782.867	29.4
783.044	33.08
783.221	33.58
783.397	34.1
783.574	33.45
783.75	34.27
783.927	38.7
784.103	41.42
784.28	42.04
784.456	41.3
784.633	41.99
784.809	41.99
784.986	39.13
785.162	37.72
785.339	36.04
785.515	35.53
785.692	34.79
785.868	33.57
786.044	34.99
786.221	34.56
786.397	36.1
786.573	34.38
786.749	36.45
786.926	36.94
787.102	36.38
787.278	39.02
787.454	39.65
787.631	39.69
787.807	37.26
787.983	35.3
788.159	37.84
788.335	38.25
788.511	38.94
788.687	37.33
788.863	38.48
789.039	38.88
789.216	35.6
789.392	37.52
789.568	35.81
789.744	35.14
789.919	36.21
790.095	32.25
790.271	33.11
790.447	31.5
790.623	31.17
790.799	31.4
790.975	31.36
791.151	33.41
791.327	32.99
791.502	33.89
791.678	36.12
791.854	35.06
792.03	39.66
792.205	37.33
792.381	37.26
792.557	39.25
792.733	39.17
792.908	38.56
793.084	37.76
793.259	37.51
793.435	39.19
793.611	36.48
793.786	37.99
793.962	37.24
794.137	37.65
794.313	40.11
794.488	36.99
794.664	38.88
794.839	40.03
795.015	41.67
795.19	40.23
795.366	39.49
795.541	40.38
795.716	37.7
795.892	39.44
796.067	39.21
796.242	38.29
796.418	38.48
796.593	27.72
796.768	26.45
796.944	27.75
797.119	27.97
797.294	28.18
797.469	28.6
797.644	27.41
797.82	25.84
797.995	26.66
798.17	27.11
798.345	27.19
798.52	35.89
798.695	32.63
798.87	31.82
799.045	34.88
799.22	31.75
799.395	30.72
799.57	31.92
799.745	28.25
799.92	30.13
800.095	28.62
800.27	30.92
800.445	32.32
800.62	38.74
800.795	38.84
800.97	38.19
801.145	39.42
801.319	42.36
801.494	44.82
801.669	46.56
801.844	43.31
802.018	46.8
802.193	48.23
802.368	44.46
802.543	43.57
802.717	43.76
802.892	43.46
803.067	43.9
803.241	41.29
803.416	39.44
803.59	39.46
803.765	40.74
803.94	39.62
804.114	37.54
804.289	42.41
804.463	39.9
804.638	42.67
804.812	39.37
804.986	40.73
805.161	46.59
805.335	49
805.51	46.83
805.684	46.84
805.858	46.43
806.033	48.48
806.207	47.69
806.381	51.23
806.556	45.19
806.73	44.04
806.904	42.13
807.078	36.45
807.253	36.15
807.427	37.5
807.601	42.49
807.775	40.09
807.949	36.09
808.123	35.26
808.298	33.22
808.472	33.56
808.646	36.71
808.82	39.45
808.994	40.77
809.168	41.02
809.342	41.42
809.516	39.4
809.69	44.76
809.864	46.05
810.038	42.73
810.212	41.65
810.385	43.5
810.559	46.03
810.733	42.79
810.907	44.12
811.081	44.64
811.255	49.28
811.428	47.12
811.602	41.8
811.776	46.25
811.95	49.03
812.123	60.66
812.297	61.92
812.471	61.22
812.644	70.38
812.818	70.04
812.992	75.41
813.165	74.84
813.339	71.21
813.512	72.57
813.686	69.87
813.86	73.96
814.033	63.1
814.207	56.85
814.38	51.61
814.554	45.06
814.727	44.43
814.9	40.1
815.074	34.9
815.247	34.42
815.421	32.83
815.594	33.72
815.767	31.07
815.941	30.76
816.114	40.03
816.287	43.38
816.46	42.04
816.634	44.52
816.807	49
816.98	50.09
817.153	52.71
817.327	57.73
817.5	56.13
817.673	54.73
817.846	58.94
818.019	53.76
818.192	53.58
818.365	58.54
818.538	55.37
818.711	50.35
818.884	51.36
819.057	50.36
819.23	43.9
819.403	43.77
819.576	41.31
819.749	39.62
819.922	42.75
820.095	39.28
820.268	35.97
820.441	38.91
820.614	40.22
820.786	37.44
820.959	36.83
821.132	34.91
821.305	36.67
821.477	38.66
821.65	37.29
821.823	36.39
821.996	37.8
822.168	37.14
822.341	37.68
822.514	36.97
822.686	37.72
822.859	38.11
823.031	39.37
823.204	39.84
823.376	37.64
823.549	37.1
823.722	36.94
823.894	37.12
824.067	36.59
824.239	35.92
824.411	36.29
824.584	35.84
824.756	35.27
824.929	34.18
825.101	34.52
825.273	38.09
825.446	39.66
825.618	41.09
825.79	40.27
825.963	43.06
826.135	43.25
826.307	45.09
826.479	44.82
826.652	44.82
826.824	45.46
826.996	43.93
827.168	41.29
827.34	40.26
827.512	39.7
827.684	40.55
827.856	38.22
828.029	38.03
828.201	37.22
828.373	37.1
828.545	38.15
828.717	36.09
828.889	35.8
829.061	35.97
829.232	37.31
829.404	35.98
829.576	33.45
829.748	37.62
829.92	36.71
830.092	33.99
830.264	35.06
830.436	34.52
830.607	37.49
830.779	36.44
830.951	38.74
831.123	37.26
831.294	39.38
831.466	42.19
831.638	39.17
831.809	40.18
831.981	44.99
832.153	40.13
832.324	36.31
832.496	36.55
832.667	36.24
832.839	35.66
833.011	38.3
833.182	37.76
833.354	37.31
833.525	36.24
833.697	37.89
833.868	36.39
834.039	39.4
834.211	41.88
834.382	41.1
834.554	42.13
834.725	39.72
834.896	36.94
835.068	35.33
835.239	36.36
835.41	37.74
835.581	34.03
835.753	31.77
835.924	32.06
836.095	31.03
836.266	31.85
836.438	32.67
836.609	35.01
836.78	39.1
836.951	38.63
837.122	36.52
837.293	35.81
837.464	41.39
837.635	43.18
837.806	35.91
837.977	35.96
838.148	36.21
838.319	38.53
838.49	37.72
838.661	39.75
838.832	43.68
839.003	46.06
839.174	36.8
839.345	37.32
839.516	38.2
839.687	45.43
839.857	43.49
840.028	45.09
840.199	39.88
840.37	47.52
840.54	42.65
840.711	46
840.882	42.46
841.053	53.74
841.223	52.09
841.394	57.4
841.564	62.43
841.735	65
841.906	63.99
842.076	66.41
842.247	65.23
842.417	69.94
842.588	64.93
842.758	78.41
842.929	79.32
843.099	79.08
843.27	77.77
843.44	64.58
843.611	61.37
843.781	71.71
843.951	65.04
844.122	61.42
844.292	60.06
844.462	63.18
844.633	48.01
844.803	51.74
844.973	59.27
845.144	61.98
845.314	61.39
845.484	64.61
845.654	52.9
845.824	39.31
845.995	34.54
846.165	33.43
846.335	47.24
846.505	29.76
846.675	45.81
846.845	6.14
847.015	2.69
847.185	50.24
847.355	68.85
847.525	71.7
847.695	81.61
847.865	78.45
848.035	82.46
848.205	80.11
848.375	89.93
848.545	70.31
848.715	107.81
848.884	158.67
849.054	117.13
849.224	145.37
849.394	166.72
849.564	181.13
849.733	168.14
849.903	125.15
850.073	115.83
850.243	105.64
850.412	131.61
850.582	111.82
850.752	80.36
850.921	59.01
851.091	42.51
851.26	37.04
851.43	38.17
851.599	37.98
851.769	39.77
851.939	20.91
852.108	12.75
852.278	23.92
852.447	33.35
852.616	21.24
852.786	23.35
852.955	34.04
853.125	21.19
853.294	27.38
853.463	25.9
853.633	34.18
853.802	49.51
853.971	52.11
854.141	52.39
854.31	53.4
854.479	63.48
854.648	67.35
854.818	57.03
854.987	88.9
855.156	73.52
855.325	80.72
855.494	63.74
855.663	66.31
855.832	58.27
856.001	57.4
856.171	56.31
856.34	49.92
856.509	52.79
856.678	62.8
856.847	62.95
857.016	61.85
857.185	71.55
857.353	73.2
857.522	79.82
857.691	79.62
857.86	64.37
858.029	47.04
858.198	62.93
858.367	86.01
858.535	91.27
858.704	88.92
858.873	76.57
859.042	51.98
859.21	46.9
859.379	41.02
859.548	38.22
859.717	47.41
859.885	77.66
860.054	71.92
860.222	39.47
860.391	27.28
860.56	40.87
860.728	51.07
860.897	80.48
861.065	93.39
861.234	88.2
861.402	107.2
861.571	111.76
861.739	90.48
861.908	86.57
862.076	90.09
862.244	93.51
862.413	68.17
862.581	61.2
862.749	51.46
862.918	52.89
863.086	54.72
863.254	40.88
863.423	55.75
863.591	54.38
863.759	53.93
863.927	84.43
864.096	66.37
864.264	90.35
864.432	89.35
864.6	61.12
864.768	46.99
864.936	29.26
865.104	12.73
865.272	-9.58
865.44	2.23
865.608	2.89
865.776	-13.57
865.944	-2.07
866.112	-15.19
866.28	-6.15
866.448	9.61
866.616	24.67
866.784	34.4
866.952	65.64
867.12	58.65
867.288	49.01
867.455	49.98
867.623	61.2
867.791	58.45
867.959	69.61
868.127	35.19
868.294	20.51
868.462	-7.35
868.63	16.25
868.797	-6.32
868.965	54.87
869.133	78.62
869.3	45.52
869.468	46.2
869.636	-23.96
869.803	-35.93
869.971	13.8
870.138	24.9
870.306	36.55
870.473	3.06
870.641	27.47
870.808	13.78
870.975	22.23
871.143	29.31
871.31	15.55
871.478	42.94
871.645	39.31
871.812	26.01
871.98	39.27
872.147	99.43
872.314	108.7
872.482	81.18
872.649	98.41
872.816	45.77
872.983	18.97
873.15	8.2
873.318	-9.71
873.485	36.2
873.652	2.07
873.819	-33.71
873.986	-33.38
874.153	-20.32
874.32	-3.65
874.487	-84.77
874.654	-61.19
874.821	-63.18
874.988	52.99
875.155	59.11
875.322	666.05
875.489	671.33
875.656	62.48
875.823	46.65
875.99	14.3
876.157	298.03
876.324	-94.8
876.49	-4.77
876.657	-4.1
876.824	-11.95
876.991	20.88
877.157	33.68
877.324	47.51
877.491	50.5
877.658	57.75
877.824	55.62
877.991	84.98
878.157	62.13
878.324	61
878.491	94.23
878.657	92.48
878.824	59.92
878.99	41.87
879.157	8.15
879.323	35.73
879.49	15.69
879.656	34.53
879.823	27.96
879.989	86.94
880.156	73.41
880.322	-1.09
880.488	78.06
880.655	70.83
880.821	111.31
880.987	110.96
881.154	74.12
881.32	78.81
881.486	48.03
881.652	35.84
881.819	25.09
881.985	35.68
882.151	37.88
882.317	31.19
882.483	34.2
882.649	33.41
882.816	32.11
882.982	31.98
883.148	29.99
883.314	36.45
883.48	36.58
883.646	37.07
883.812	34.97
883.978	36.23
884.144	34.4
884.31	34.22
884.476	33.16
884.642	35.73
884.807	38.05
884.973	39.37
885.139	37.12
885.305	38.94
885.471	43.34
885.637	44.56
885.802	45.43
885.968	53.2
886.134	61.25
886.3	67.01
886.465	65.52
886.631	65.79
886.797	63.08
886.962	68.9
887.128	66.88
887.293	69.67
887.459	69.75
887.625	72.94
887.79	75.37
887.956	53.14
888.121	36.83
888.287	45.52
888.452	40.13
888.618	54.52
888.783	28.27
