Data from 2937831_Reflection_1.txt Node
Date: Wed Jul 15 16:45:20 EDT 2015
User: robert
Spectrometer: USB4E03001
Autoset integration time: false
Trigger mode: 4
Integration Time (sec): 1.000000E-1
Scans to average: 10
Electric dark correction enabled: true
Nonlinearity correction enabled: false
Boxcar width: 5
Stray light correction enabled: false
XAxis mode: Wavelengths
Stop averaging: false
Number of Pixels in Spectrum: 3648
>>>>>Begin Spectral Data<<<<<
177.566	-2264.29
177.785	-2598.25
178.005	218.97
178.225	174.19
178.445	64.15
178.665	62.02
178.885	49.8
179.105	408.22
179.324	-328.1
179.544	-269.25
179.764	-220.99
179.984	-227.22
180.204	-66.67
180.423	-270.38
180.643	-236.06
180.863	-146.19
181.083	-254.24
181.302	1913.78
181.522	-1511.11
181.742	233.47
181.961	252.86
182.181	262
182.401	325.91
182.621	228.4
182.84	239.29
183.06	387.98
183.279	809.31
183.499	980.82
183.719	-182.81
183.938	-236.14
184.158	-147.34
184.377	-99.68
184.597	-121.53
184.816	-77.48
185.036	-42.46
185.256	-54.58
185.475	-26.14
185.695	-29.65
185.914	-24.7
186.134	-56.28
186.353	-24.23
186.572	-45.82
186.792	-123.08
187.011	-156.03
187.231	-204.04
187.45	-108.48
187.67	-157.83
187.889	-230.34
188.108	-218.8
188.328	-218.24
188.547	-86.14
188.766	-112.39
188.986	-154.37
189.205	-154.13
189.424	-136.78
189.644	-138.08
189.863	-204.32
190.082	-101.57
190.302	-131.52
190.521	-60.66
190.74	-48.27
190.959	-143.26
191.178	-260.31
191.398	-38.35
191.617	-1.82
191.836	-73.44
192.055	-37.72
192.274	-70.94
192.494	-78.7
192.713	-97.07
192.932	-144.67
193.151	-220.85
193.37	-163
193.589	-61.77
193.808	-75.51
194.027	-33.78
194.246	4.01
194.465	-6.26
194.685	4.84
194.904	-13.72
195.123	7.11
195.342	-6.55
195.561	3.26
195.78	13.46
195.999	11.61
196.218	-1.35
196.436	-16
196.655	-24.78
196.874	-49.46
197.093	-41.94
197.312	-19.81
197.531	-46.21
197.75	-51.62
197.969	-119.82
198.188	-210.03
198.407	-308.95
198.625	-470.41
198.844	-567.64
199.063	-406.65
199.282	-202.24
199.501	-210.66
199.719	-346.49
199.938	-406.91
200.157	-1443.72
200.376	-505.11
200.594	-341.89
200.813	-546.24
201.032	-949.57
201.251	-472.08
201.469	-160.86
201.688	-92.93
201.907	-60.74
202.125	-69.32
202.344	-69.84
202.563	-59.28
202.781	-78.09
203	-56.47
203.218	-79.13
203.437	-46.15
203.656	-42.18
203.874	-124.77
204.093	-228.66
204.311	-377.97
204.53	-320.82
204.748	-245.59
204.967	-298.55
205.185	-217.71
205.404	-482.64
205.622	-262.79
205.841	-344.59
206.059	-755.21
206.278	-502.42
206.496	-279.66
206.715	-141.3
206.933	-106.4
207.151	-87.66
207.37	-70.11
207.588	-65.07
207.806	-23.17
208.025	-18.78
208.243	-17.87
208.461	-0.16
208.68	13.93
208.898	10.78
209.116	-11.91
209.335	-15.56
209.553	-16.18
209.771	-23.4
209.989	-27.46
210.208	-90.73
210.426	-96.58
210.644	-130.16
210.862	-141.67
211.081	-166.77
211.299	-187.9
211.517	-313.58
211.735	-165.19
211.953	-196.9
212.171	-149.18
212.39	-132.33
212.608	-116.48
212.826	-113.28
213.044	-145.78
213.262	-126.32
213.48	-129.41
213.698	-108.8
213.916	-56.22
214.134	-75.89
214.352	-113.46
214.57	-134.06
214.788	-122.93
215.006	-107.95
215.224	-65.06
215.442	-60.72
215.66	-83.22
215.878	-76.71
216.096	-66.23
216.314	-53.65
216.532	-50.49
216.75	-35.53
216.968	-34.13
217.185	-31.36
217.403	-39.44
217.621	-57.3
217.839	-62.93
218.057	-26.53
218.275	-15.9
218.492	-11.87
218.71	-24.56
218.928	-33.08
219.146	-36.9
219.363	-41.31
219.581	-42.13
219.799	3.99
220.017	-4.57
220.234	-8.45
220.452	-31
220.67	-51.03
220.887	-47.31
221.105	-39.98
221.323	-17.71
221.54	1.97
221.758	24.55
221.976	21.35
222.193	-129.16
222.411	-98.07
222.629	33.23
222.846	50.76
223.064	42.31
223.281	25.1
223.499	2.62
223.716	-19.27
223.934	-10.54
224.151	-38.21
224.369	-24.52
224.586	-10.46
224.804	-7.72
225.021	-16.34
225.239	-19.22
225.456	-29.25
225.674	-19.42
225.891	-23.73
226.108	-23.91
226.326	-30.18
226.543	-16.28
226.76	-15
226.978	-10.84
227.195	-6.38
227.413	-3.53
227.63	-2.73
227.847	2.76
228.064	5.54
228.282	9.38
228.499	10.32
228.716	7.16
228.934	9.2
229.151	5.15
229.368	-1.28
229.585	-2.34
229.802	0.71
230.02	3.03
230.237	-1.42
230.454	-4.97
230.671	-5.01
230.888	-3.28
231.105	-5.13
231.323	-2.67
231.54	1
231.757	8.51
231.974	6.03
232.191	2.71
232.408	0.82
232.625	-2.04
232.842	9.11
233.059	7.57
233.276	9.43
233.493	10.77
233.71	4.28
233.927	5.35
234.144	8.23
234.361	10.21
234.578	13.8
234.795	15.25
235.012	19.06
235.229	12.65
235.446	12.3
235.663	8.01
235.879	9.95
236.096	16.87
236.313	15.16
236.53	15.39
236.747	11.35
236.964	-2.15
237.181	-1.13
237.397	4.17
237.614	1.48
237.831	2.13
238.048	3.57
238.264	0.17
238.481	-4.75
238.698	-5.98
238.915	-13.96
239.131	-10.01
239.348	-2.18
239.565	1.4
239.781	-2.63
239.998	-1.23
240.215	-1.22
240.431	-2.41
240.648	-3.08
240.865	-2.41
241.081	3.8
241.298	6.13
241.514	8.97
241.731	9.34
241.947	7.43
242.164	7.52
242.38	9.42
242.597	10.72
242.814	13.92
243.03	16.24
243.246	18.42
243.463	17.28
243.679	16.57
243.896	14.04
244.112	15.59
244.329	14.48
244.545	12.51
244.762	11.01
244.978	7.93
245.194	4.7
245.411	4.46
245.627	2.3
245.843	5.71
246.06	9.33
246.276	9.71
246.492	9.52
246.709	11.88
246.925	13.48
247.141	14.02
247.357	14.75
247.574	13.96
247.79	13.46
248.006	14.62
248.222	13.8
248.439	13.03
248.655	13.79
248.871	14.03
249.087	12.79
249.303	12.9
249.519	12.32
249.736	14.19
249.952	14.13
250.168	13.78
250.384	10.42
250.6	11.44
250.816	10.93
251.032	11.29
251.248	11.07
251.464	11.08
251.68	11.29
251.896	11.69
252.112	10.21
252.328	10.59
252.544	11.52
252.76	10.74
252.976	8.84
253.192	7.87
253.408	6.71
253.624	5.4
253.84	4.68
254.056	0.71
254.272	0.18
254.487	-2.4
254.703	-0.74
254.919	-3.48
255.135	-0.45
255.351	-1.93
255.567	-3.4
255.782	-5.81
255.998	-3.05
256.214	-2.75
256.43	-0.15
256.646	1.24
256.861	-3.67
257.077	-5.87
257.293	-4.98
257.508	-9.66
257.724	-4.77
257.94	-3.86
258.155	-1.6
258.371	-1.14
258.587	-0.11
258.802	2.26
259.018	4.12
259.234	7.96
259.449	8.95
259.665	10.01
259.88	11.43
260.096	10.45
260.312	10.84
260.527	11.23
260.743	11.04
260.958	11.16
261.174	10.89
261.389	9.48
261.605	9.53
261.82	9.88
262.036	9.84
262.251	9.61
262.466	9.08
262.682	9.38
262.897	9.01
263.113	9.96
263.328	10.18
263.543	7.88
263.759	8.58
263.974	5.71
264.189	3.4
264.405	0.96
264.62	1.63
264.835	1.48
265.051	-2.05
265.266	-2.25
265.481	-3.32
265.696	-1.65
265.912	1.01
266.127	1.84
266.342	2.59
266.557	3.05
266.773	4.54
266.988	3.88
267.203	3.46
267.418	4.82
267.633	5.23
267.848	4.93
268.064	2.32
268.279	0.5
268.494	-0.16
268.709	0.11
268.924	-0.77
269.139	-2.37
269.354	-1.13
269.569	-0.61
269.784	0.95
269.999	-0.05
270.214	0.57
270.429	2.73
270.644	5.2
270.859	4.86
271.074	4.89
271.289	6.07
271.504	8.22
271.719	8.7
271.934	9.29
272.149	8.66
272.363	9.51
272.578	9.95
272.793	9.15
273.008	8.16
273.223	9.04
273.438	10.42
273.653	10.52
273.867	9.95
274.082	9.49
274.297	10.13
274.512	8.25
274.726	6.86
274.941	7.35
275.156	7.61
275.371	7.34
275.585	5.85
275.8	4.96
276.015	6.8
276.229	4.71
276.444	4.56
276.659	3.44
276.873	5.66
277.088	6.77
277.302	5.1
277.517	3.57
277.732	3.26
277.946	4.54
278.161	2.53
278.375	1.55
278.59	4.68
278.804	3.29
279.019	2.65
279.233	4.31
279.448	5.22
279.662	6.71
279.877	10.14
280.091	9.1
280.306	8.31
280.52	8.56
280.735	8.2
280.949	6.77
281.163	8.42
281.378	8.42
281.592	6.28
281.806	6.58
282.021	6.6
282.235	4.23
282.449	5.69
282.664	4.93
282.878	5.65
283.092	6.86
283.307	7.52
283.521	6.31
283.735	9.05
283.949	9.26
284.164	7.42
284.378	7.15
284.592	8.94
284.806	8.24
285.02	9.94
285.234	9.22
285.449	7.66
285.663	8.22
285.877	9
286.091	7.75
286.305	8.64
286.519	9.95
286.733	10.37
286.947	9.03
287.161	8.94
287.375	7.57
287.589	7.04
287.803	7.22
288.017	6.13
288.231	5.89
288.445	5.71
288.659	5.96
288.873	3.64
289.087	1.97
289.301	4.42
289.515	5.27
289.729	5.06
289.943	5.55
290.157	6.61
290.371	6.87
290.584	6.57
290.798	7.08
291.012	8.17
291.226	9.08
291.44	9.53
291.654	7.14
291.867	6.66
292.081	5.72
292.295	5.9
292.509	5.24
292.722	5.58
292.936	4.21
293.15	3.25
293.364	0.82
293.577	0.77
293.791	0.79
294.005	-0.49
294.218	0.26
294.432	1.83
294.645	4.39
294.859	4.57
295.073	4.47
295.286	5.51
295.5	4.67
295.713	5.02
295.927	5.6
296.14	6.6
296.354	8.29
296.568	8.63
296.781	9.2
296.994	6.6
297.208	7.1
297.421	7.63
297.635	8.36
297.848	8.85
298.062	8.6
298.275	8.97
298.489	8.73
298.702	9
298.915	7.76
299.129	7.05
299.342	8.78
299.555	9.27
299.769	7.95
299.982	6.58
300.195	6.53
300.409	7.08
300.622	7.87
300.835	10.17
301.048	8.66
301.262	9.8
301.475	11.17
301.688	10.21
301.901	9.21
302.115	10.05
302.328	11.51
302.541	11.7
302.754	9.92
302.967	8.77
303.18	6.43
303.393	7.53
303.607	7.29
303.82	6.19
304.033	6.82
304.246	6.77
304.459	8.26
304.672	7.67
304.885	7.01
305.098	7.85
305.311	8.7
305.524	9.09
305.737	7.39
305.95	7.95
306.163	8.58
306.376	7.75
306.589	8.26
306.802	7.12
307.015	7.72
307.228	7.4
307.44	8.12
307.653	7.68
307.866	6.06
308.079	9.2
308.292	7.95
308.505	6.93
308.718	7.32
308.93	6.25
309.143	7.03
309.356	5.91
309.569	7.61
309.781	9.23
309.994	9.88
310.207	11.31
310.42	8.94
310.632	9.15
310.845	9.74
311.058	10.39
311.27	10.35
311.483	10.13
311.696	9.38
311.908	9.92
312.121	8.04
312.333	7.47
312.546	6.03
312.759	6.25
312.971	5.47
313.184	5.38
313.396	5.8
313.609	4.07
313.821	1.17
314.034	1.75
314.246	-1.29
314.459	0.41
314.671	1.43
314.884	-0.78
315.096	0.12
315.309	2.3
315.521	1.64
315.733	1.6
315.946	2.84
316.158	4.05
316.371	3.62
316.583	4.47
316.795	2.91
317.008	0.23
317.22	2.54
317.432	2.07
317.644	3.22
317.857	4.01
318.069	3.09
318.281	4.18
318.494	3.54
318.706	5.98
318.918	7.8
319.13	9.25
319.342	10.23
319.555	10.54
319.767	11.95
319.979	9.98
320.191	9.74
320.403	10.09
320.615	9.86
320.827	10.58
321.039	10.12
321.252	8.44
321.464	7.52
321.676	7.55
321.888	8.06
322.1	6.21
322.312	5.79
322.524	6.21
322.736	5.01
322.948	5.17
323.16	6.08
323.372	4.47
323.584	4.14
323.796	5.05
324.007	4.92
324.219	4.62
324.431	4.9
324.643	6.37
324.855	6.85
325.067	7.1
325.279	6.54
325.491	5.46
325.702	5.5
325.914	6.25
326.126	6.3
326.338	6.13
326.55	6.52
326.761	6.79
326.973	6.56
327.185	5.41
327.396	5.85
327.608	6.43
327.82	6.12
328.032	8.22
328.243	8.29
328.455	8.11
328.666	8.82
328.878	9.27
329.09	10.07
329.301	8.96
329.513	9.1
329.725	8.76
329.936	7.33
330.148	8.71
330.359	7.42
330.571	6.84
330.782	5.36
330.994	6.58
331.205	7.11
331.417	8.26
331.628	8.71
331.84	9.19
332.051	9.95
332.262	11.62
332.474	12.72
332.685	11.28
332.897	10.34
333.108	12.47
333.319	10.24
333.531	9.56
333.742	8.34
333.953	7.44
334.165	8.66
334.376	8.2
334.587	6.69
334.799	5.41
335.01	7.38
335.221	7.98
335.432	7.33
335.644	7.95
335.855	8.62
336.066	9.11
336.277	9.22
336.488	8.96
336.7	9.57
336.911	9.73
337.122	9.34
337.333	8.45
337.544	9.5
337.755	7.72
337.966	6.76
338.177	5.96
338.388	5.53
338.599	6.05
338.811	4.17
339.022	2.8
339.233	3.52
339.444	2.51
339.655	1.62
339.866	0.78
340.076	0.99
340.287	2.37
340.498	2.17
340.709	1.21
340.92	1.59
341.131	2.13
341.342	3.87
341.553	3.87
341.764	5.43
341.975	6.36
342.185	5.64
342.396	6.44
342.607	6.59
342.818	6.83
343.029	8.66
343.239	9.12
343.45	8.84
343.661	7.74
343.872	6.98
344.082	7.3
344.293	6.9
344.504	7.75
344.714	7.9
344.925	7.28
345.136	7.98
345.346	7.38
345.557	7.28
345.768	6.65
345.978	7.42
346.189	8.56
346.399	7.71
346.61	8.31
346.821	7.69
347.031	7.99
347.242	8.77
347.452	7.48
347.663	6.62
347.873	7.64
348.084	8.42
348.294	7.29
348.504	6.72
348.715	6.64
348.925	5.94
349.136	7
349.346	6.17
349.557	6.6
349.767	7.71
349.977	7.76
350.188	5.85
350.398	6.9
350.608	6.86
350.819	7.07
351.029	6.72
351.239	6.61
351.449	5.64
351.66	4.75
351.87	3.37
352.08	3.14
352.29	2.77
352.501	3.38
352.711	2.51
352.921	3.2
353.131	3.01
353.341	4.53
353.552	5.32
353.762	4.96
353.972	7.06
354.182	6.72
354.392	6.63
354.602	6.46
354.812	4.66
355.022	5.28
355.232	5.82
355.442	6.18
355.652	5.85
355.862	4.59
356.072	5.05
356.282	4.85
356.492	5.84
356.702	4.69
356.912	5.28
357.122	5.42
357.332	5.43
357.542	4.49
357.752	4.09
357.962	4.22
358.171	5.9
358.381	6.45
358.591	5.48
358.801	5.12
359.011	5.22
359.221	5.65
359.43	6.65
359.64	6.13
359.85	5.65
360.06	6.12
360.269	5.29
360.479	5.88
360.689	5.98
360.899	6.71
361.108	6.82
361.318	6.83
361.528	6.17
361.737	6.15
361.947	5.67
362.156	6.43
362.366	6.13
362.576	6.59
362.785	5.68
362.995	5.64
363.204	5.24
363.414	4.88
363.623	5.52
363.833	6.04
364.042	6.46
364.252	7.4
364.461	6.84
364.671	7.04
364.88	6.57
365.09	6.53
365.299	6.17
365.509	6.63
365.718	7.26
365.927	6.85
366.137	6.58
366.346	6.75
366.555	6.49
366.765	6.4
366.974	6.54
367.183	7.54
367.393	6.8
367.602	6.33
367.811	5.91
368.021	5.77
368.23	6.47
368.439	5.37
368.648	4.45
368.857	3.69
369.067	4.44
369.276	4.46
369.485	3.73
369.694	4.05
369.903	4.24
370.112	3.42
370.321	3.52
370.531	2.79
370.74	3.59
370.949	4.47
371.158	4.63
371.367	5.17
371.576	4.72
371.785	4.64
371.994	4.5
372.203	4.56
372.412	5.43
372.621	4.86
372.83	4.8
373.039	5.5
373.248	4.83
373.457	4.74
373.666	3.82
373.874	3.53
374.083	3.5
374.292	3.93
374.501	4.09
374.71	3.7
374.919	3.64
375.128	4
375.336	3.85
375.545	3.6
375.754	4.53
375.963	4.96
376.171	5.18
376.38	5.74
376.589	5.42
376.798	6.49
377.006	6.5
377.215	7.03
377.424	7.1
377.632	7.21
377.841	7.42
378.05	6.85
378.258	6.65
378.467	6.69
378.675	5.95
378.884	6.48
379.093	5.11
379.301	5.79
379.51	5.23
379.718	4.78
379.927	4.48
380.135	4.48
380.344	4.81
380.552	4.45
380.761	4.77
380.969	5.35
381.177	5.6
381.386	5.56
381.594	4.95
381.803	5.08
382.011	5.37
382.219	5.06
382.428	4.47
382.636	3.75
382.845	3.88
383.053	4.2
383.261	4.32
383.469	3.68
383.678	3.61
383.886	3.93
384.094	4.16
384.302	4.13
384.511	4.52
384.719	4.52
384.927	4.92
385.135	4.75
385.343	4.29
385.552	3.63
385.76	3.39
385.968	3.81
386.176	3.65
386.384	3.38
386.592	3.44
386.8	3.14
387.008	3.57
387.216	3.46
387.424	4.3
387.633	3.91
387.841	3.93
388.049	3.67
388.257	3.36
388.465	3.3
388.672	3.07
388.88	2.89
389.088	3.41
389.296	3.54
389.504	3.53
389.712	2.93
389.92	2.98
390.128	3.12
390.336	3.66
390.544	3.8
390.751	3.25
390.959	3.27
391.167	3.58
391.375	3.39
391.583	3.58
391.79	3.52
391.998	3.5
392.206	3.46
392.414	3.65
392.621	3.39
392.829	3.79
393.037	4.24
393.244	4.32
393.452	4.09
393.66	3.97
393.867	3.78
394.075	4.05
394.283	3.66
394.49	3.71
394.698	3.84
394.905	3.82
395.113	3.56
395.32	3.4
395.528	3.6
395.735	3.71
395.943	3.55
396.15	3.52
396.358	3.72
396.565	3.93
396.773	3.71
396.98	3.75
397.188	4.02
397.395	3.96
397.602	4.02
397.81	3.87
398.017	3.85
398.225	3.92
398.432	3.69
398.639	3.24
398.847	3.54
399.054	3.58
399.261	3.49
399.468	3.41
399.676	3.03
399.883	2.9
400.09	2.86
400.297	2.55
400.505	2.24
400.712	2.6
400.919	2.86
401.126	2.77
401.333	2.95
401.54	2.66
401.748	2.7
401.955	2.85
402.162	3.13
402.369	3.13
402.576	3.16
402.783	3.15
402.99	2.87
403.197	2.5
403.404	2.51
403.611	2.49
403.818	2.56
404.025	2.52
404.232	2.27
404.439	2.15
404.646	2.43
404.853	2.69
405.06	3.17
405.267	3.33
405.474	3.39
405.681	3.23
405.887	3.35
406.094	3.45
406.301	3.54
406.508	3.95
406.715	3.88
406.922	3.61
407.128	3.7
407.335	3.67
407.542	3.89
407.749	4.11
407.955	4.19
408.162	4.01
408.369	3.85
408.575	3.53
408.782	3.74
408.989	3.85
409.195	3.68
409.402	3.36
409.609	3.25
409.815	3.09
410.022	2.94
410.228	3.14
410.435	3.55
410.642	3.59
410.848	3.59
411.055	3.06
411.261	3.3
411.468	3.51
411.674	3.61
411.881	3.59
412.087	3.56
412.294	3.74
412.5	3.85
412.706	3.61
412.913	3.38
413.119	3.53
413.326	3.73
413.532	3.42
413.738	3.2
413.945	3.22
414.151	3.43
414.357	3.46
414.564	3.49
414.77	3.3
414.976	3.31
415.182	3.61
415.389	3.53
415.595	3.49
415.801	3.93
416.007	4.19
416.214	3.85
416.42	3.42
416.626	3.46
416.832	3.41
417.038	3.24
417.244	3.13
417.45	2.92
417.657	3.28
417.863	3.48
418.069	3.16
418.275	3.06
418.481	3.29
418.687	3.45
418.893	3.37
419.099	3.27
419.305	3.48
419.511	3.56
419.717	3.75
419.923	3.59
420.129	3.59
420.335	3.54
420.541	3.52
420.746	3.61
420.952	3.58
421.158	3.55
421.364	3.44
421.57	3.23
421.776	3.23
421.982	3.1
422.187	3.08
422.393	3.03
422.599	3.13
422.805	3.19
423.01	3.09
423.216	2.94
423.422	3.03
423.628	3.07
423.833	3.19
424.039	3.06
424.245	3.13
424.45	3.13
424.656	3.06
424.862	3.08
425.067	3.15
425.273	3.23
425.478	3.33
425.684	3.33
425.889	3.53
426.095	3.57
426.301	3.77
426.506	3.83
426.712	3.81
426.917	3.87
427.123	3.67
427.328	3.82
427.533	3.64
427.739	3.51
427.944	3.37
428.15	3.07
428.355	2.99
428.561	3.09
428.766	3.05
428.971	3.09
429.177	3.16
429.382	3.3
429.587	2.81
429.793	3
429.998	3.18
430.203	2.96
430.408	2.86
430.614	2.79
430.819	2.48
431.024	2.67
431.229	2.64
431.434	2.53
431.64	2.73
431.845	2.9
432.05	2.75
432.255	2.83
432.46	3.11
432.665	3.15
432.87	3.16
433.076	3.26
433.281	3.16
433.486	3.14
433.691	3.16
433.896	2.86
434.101	2.8
434.306	2.77
434.511	2.78
434.716	2.78
434.921	2.98
435.126	2.95
435.331	2.92
435.535	2.65
435.74	2.46
435.945	2.36
436.15	2.49
436.355	2.63
436.56	2.8
436.765	2.71
436.97	2.45
437.174	2.25
437.379	2.09
437.584	2.24
437.789	2.44
437.993	2.65
438.198	2.57
438.403	2.59
438.608	2.39
438.812	2.16
439.017	2.11
439.222	2.31
439.426	2.36
439.631	2.39
439.836	2.32
440.04	2.31
440.245	2.28
440.45	2.49
440.654	2.56
440.859	2.63
441.063	2.65
441.268	2.67
441.472	2.65
441.677	2.81
441.881	3.15
442.086	3.1
442.29	3.07
442.495	3.12
442.699	2.88
442.904	2.82
443.108	2.86
443.312	3.1
443.517	3.28
443.721	3.29
443.925	3.24
444.13	2.9
444.334	2.92
444.538	3.05
444.743	2.92
444.947	3.06
445.151	3
445.356	3.18
445.56	3.11
445.764	3.12
445.968	3.14
446.173	3.18
446.377	3.27
446.581	3.2
446.785	3.16
446.989	3.34
447.193	3.43
447.398	3.51
447.602	3.31
447.806	3.41
448.01	3.23
448.214	3.24
448.418	3.2
448.622	3.21
448.826	3.32
449.03	3.25
449.234	3.11
449.438	3.2
449.642	3.14
449.846	3.32
450.05	3.12
450.254	3.1
450.458	3
450.662	3.11
450.866	3.21
451.069	3.25
451.273	3.46
451.477	3.45
451.681	3.15
451.885	3.19
452.089	2.92
452.292	2.93
452.496	3.11
452.7	2.88
452.904	2.61
453.107	2.6
453.311	2.52
453.515	2.38
453.719	2.26
453.922	2.39
454.126	2.22
454.33	2.44
454.533	2.52
454.737	2.38
454.94	2.66
455.144	2.63
455.348	2.35
455.551	2.14
455.755	1.93
455.958	2.1
456.162	1.78
456.365	1.78
456.569	1.67
456.772	1.51
456.976	1.53
457.179	1.64
457.383	1.69
457.586	1.73
457.79	1.98
457.993	2.06
458.196	1.88
458.4	2.08
458.603	2.2
458.807	2.24
459.01	2.26
459.213	2.27
459.417	2.35
459.62	2.42
459.823	2.61
460.026	2.59
460.23	2.7
460.433	2.92
460.636	3.06
460.839	2.95
461.042	3.01
461.246	3.02
461.449	3
461.652	2.87
461.855	2.88
462.058	2.77
462.261	2.69
462.464	2.57
462.668	2.42
462.871	2.31
463.074	2.55
463.277	2.59
463.48	2.74
463.683	2.82
463.886	3.03
464.089	2.85
464.292	2.92
464.495	2.75
464.698	2.88
464.901	2.96
465.104	2.86
465.306	2.62
465.509	2.55
465.712	2.37
465.915	2.5
466.118	2.27
466.321	2.18
466.524	2.04
466.726	2.18
466.929	2.07
467.132	1.79
467.335	1.79
467.538	1.93
467.74	1.84
467.943	1.95
468.146	1.56
468.348	1.68
468.551	1.93
468.754	1.87
468.956	2.07
469.159	1.97
469.362	2.25
469.564	2.18
469.767	2.22
469.969	2.25
470.172	2.11
470.375	2.5
470.577	2.37
470.78	2.41
470.982	2.56
471.185	2.47
471.387	2.67
471.59	2.43
471.792	2.51
471.995	2.33
472.197	2.2
472.399	2.53
472.602	2.38
472.804	2.28
473.007	2.37
473.209	2.28
473.411	2.28
473.614	2.14
473.816	2.42
474.018	2.73
474.22	2.63
474.423	2.49
474.625	2.53
474.827	2.58
475.03	2.51
475.232	2.42
475.434	2.46
475.636	2.25
475.838	2.38
476.04	2.42
476.243	2.05
476.445	2.36
476.647	2.64
476.849	2.46
477.051	2.6
477.253	2.85
477.455	2.75
477.657	2.82
477.859	2.99
478.061	2.89
478.263	2.76
478.465	3.01
478.667	2.78
478.869	2.68
479.071	2.78
479.273	2.67
479.475	2.67
479.677	2.76
479.879	2.84
480.081	2.78
480.283	2.91
480.485	2.75
480.686	2.95
480.888	2.96
481.09	3.13
481.292	3
481.494	3.27
481.695	3.26
481.897	3.22
482.099	3.2
482.301	3.2
482.502	3.13
482.704	3.1
482.906	2.88
483.107	2.94
483.309	2.94
483.511	2.88
483.712	2.82
483.914	2.77
484.115	2.79
484.317	2.74
484.519	2.78
484.72	2.81
484.922	2.87
485.123	2.92
485.325	2.94
485.526	2.9
485.728	2.96
485.929	2.89
486.131	3
486.332	2.97
486.534	3.02
486.735	2.99
486.936	3.01
487.138	2.97
487.339	2.94
487.541	2.91
487.742	2.9
487.943	2.85
488.144	2.93
488.346	2.86
488.547	2.87
488.748	2.83
488.95	2.81
489.151	2.75
489.352	2.83
489.553	2.75
489.755	2.75
489.956	2.77
490.157	2.85
490.358	2.74
490.559	2.74
490.76	2.67
490.961	2.7
491.163	2.74
491.364	2.77
491.565	2.71
491.766	2.75
491.967	2.79
492.168	2.75
492.369	2.64
492.57	2.58
492.771	2.58
492.972	2.69
493.173	2.63
493.374	2.6
493.575	2.54
493.776	2.57
493.976	2.68
494.177	2.61
494.378	2.49
494.579	2.63
494.78	2.75
494.981	2.79
495.182	2.72
495.382	2.75
495.583	2.74
495.784	2.77
495.985	2.81
496.185	2.69
496.386	2.74
496.587	2.87
496.788	2.87
496.988	2.98
497.189	3.02
497.39	3.07
497.59	3.06
497.791	2.98
497.992	2.72
498.192	2.81
498.393	2.79
498.593	2.7
498.794	2.64
498.994	2.6
499.195	2.44
499.395	2.29
499.596	2.33
499.796	2.47
499.997	2.39
500.197	2.67
500.398	2.51
500.598	2.6
500.799	2.62
500.999	2.58
501.199	2.42
501.4	2.48
501.6	2.52
501.801	2.22
502.001	2.01
502.201	2.05
502.402	2.07
502.602	2.05
502.802	2.02
503.002	2.04
503.203	2.12
503.403	2.32
503.603	2.34
503.803	2.27
504.003	2.51
504.204	2.57
504.404	2.68
504.604	2.72
504.804	2.62
505.004	2.68
505.204	2.88
505.404	2.98
505.604	2.9
505.804	2.8
506.005	2.84
506.205	2.68
506.405	2.75
506.605	2.64
506.805	2.65
507.005	2.72
507.204	2.69
507.404	2.61
507.604	2.58
507.804	2.64
508.004	2.61
508.204	2.64
508.404	2.74
508.604	2.76
508.804	3.04
509.003	3.01
509.203	2.87
509.403	2.75
509.603	2.65
509.803	2.65
510.002	2.57
510.202	2.83
510.402	2.86
510.602	2.8
510.801	2.72
511.001	2.62
511.201	2.38
511.4	2.58
511.6	2.79
511.8	2.87
511.999	2.87
512.199	3.03
512.398	2.96
512.598	2.96
512.797	3.07
512.997	3.12
513.197	3.13
513.396	3.34
513.596	3.27
513.795	3.2
513.994	3.19
514.194	3.25
514.393	3.22
514.593	3.03
514.792	3.15
514.992	3.1
515.191	3.18
515.39	3.28
515.59	3.41
515.789	3.28
515.988	3.22
516.188	3.21
516.387	3.13
516.586	3.39
516.786	3.57
516.985	3.41
517.184	3.45
517.383	3.36
517.582	3.4
517.782	3.43
517.981	3.67
518.18	3.7
518.379	3.82
518.578	3.84
518.777	3.68
518.976	3.63
519.176	3.76
519.375	3.8
519.574	3.83
519.773	3.7
519.972	3.66
520.171	3.61
520.37	3.69
520.569	3.52
520.768	3.42
520.967	3.49
521.166	3.48
521.365	3.42
521.564	3.52
521.762	3.51
521.961	3.59
522.16	3.63
522.359	3.7
522.558	3.55
522.757	3.59
522.956	3.7
523.154	3.56
523.353	3.63
523.552	3.66
523.751	3.55
523.949	3.7
524.148	3.81
524.347	3.92
524.546	3.91
524.744	4.03
524.943	4.14
525.142	4.2
525.34	4.32
525.539	4.34
525.737	4.35
525.936	4.35
526.135	4.36
526.333	4.32
526.532	4.18
526.73	4.27
526.929	4.39
527.127	4.43
527.326	4.51
527.524	4.55
527.723	4.72
527.921	4.79
528.12	4.79
528.318	4.79
528.516	4.87
528.715	4.93
528.913	4.92
529.112	4.94
529.31	4.87
529.508	4.91
529.707	4.92
529.905	4.77
530.103	4.74
530.301	4.76
530.5	4.74
530.698	4.65
530.896	4.65
531.094	4.58
531.293	4.49
531.491	4.62
531.689	4.59
531.887	4.53
532.085	4.68
532.283	4.76
532.481	4.73
532.68	4.82
532.878	4.88
533.076	4.91
533.274	5.01
533.472	5.07
533.67	5.19
533.868	5.17
534.066	5.31
534.264	5.33
534.462	5.29
534.66	5.34
534.858	5.41
535.056	5.44
535.253	5.43
535.451	5.42
535.649	5.42
535.847	5.31
536.045	5.39
536.243	5.32
536.441	5.35
536.638	5.43
536.836	5.51
537.034	5.36
537.232	5.37
537.43	5.42
537.627	5.48
537.825	5.43
538.023	5.34
538.22	5.41
538.418	5.36
538.616	5.3
538.813	5.34
539.011	5.58
539.209	5.65
539.406	5.61
539.604	5.75
539.801	5.79
539.999	5.95
540.196	6.21
540.394	6.11
540.591	6.16
540.789	6.19
540.986	6.14
541.184	6.1
541.381	6.14
541.579	6.33
541.776	6.38
541.974	6.4
542.171	6.38
542.368	6.34
542.566	6.45
542.763	6.49
542.96	6.62
543.158	6.72
543.355	6.75
543.552	6.77
543.75	6.71
543.947	6.76
544.144	6.79
544.341	6.93
544.539	6.98
544.736	6.91
544.933	6.94
545.13	6.82
545.327	6.8
545.524	6.89
545.722	6.95
545.919	7.05
546.116	7.15
546.313	7.29
546.51	7.37
546.707	7.37
546.904	7.4
547.101	7.42
547.298	7.41
547.495	7.5
547.692	7.54
547.889	7.61
548.086	7.5
548.283	7.26
548.48	7.25
548.677	7.13
548.874	7.33
549.07	7.55
549.267	7.7
549.464	8.08
549.661	8.18
549.858	7.91
550.055	8.05
550.251	8.07
550.448	8.2
550.645	7.94
550.842	8.15
551.038	7.9
551.235	7.84
551.432	7.87
551.628	7.9
551.825	7.82
552.022	8.01
552.218	7.92
552.415	8.16
552.612	8.19
552.808	8.46
553.005	8.46
553.201	8.71
553.398	8.83
553.594	8.76
553.791	8.77
553.987	8.69
554.184	8.74
554.38	8.91
554.577	8.89
554.773	9.09
554.97	9.22
555.166	9.21
555.362	9.3
555.559	9.3
555.755	9.36
555.952	9.25
556.148	9.59
556.344	9.72
556.541	9.74
556.737	10.03
556.933	9.97
557.129	9.84
557.326	9.92
557.522	10.07
557.718	10.27
557.914	10.34
558.11	10.4
558.307	10.4
558.503	10.5
558.699	10.56
558.895	10.28
559.091	10.52
559.287	10.58
559.483	10.79
559.679	10.47
559.876	10.57
560.072	10.55
560.268	10.56
560.464	10.8
560.66	10.95
560.856	11.09
561.052	11.19
561.247	11.25
561.443	11.52
561.639	11.44
561.835	11.63
562.031	11.69
562.227	11.94
562.423	12.19
562.619	12.22
562.815	12.15
563.01	12.32
563.206	12.57
563.402	12.74
563.598	12.56
563.793	12.67
563.989	12.68
564.185	12.76
564.381	12.75
564.576	12.85
564.772	12.93
564.968	12.96
565.163	12.95
565.359	12.94
565.555	12.91
565.75	13.22
565.946	13.39
566.141	13.59
566.337	13.58
566.532	13.75
566.728	13.82
566.923	13.84
567.119	14
567.314	13.99
567.51	14.17
567.705	14.29
567.901	14.16
568.096	14.24
568.292	14.23
568.487	14.28
568.682	14.3
568.878	14.28
569.073	14.39
569.268	14.56
569.464	14.91
569.659	14.95
569.854	15.16
570.05	15.28
570.245	15.2
570.44	15.31
570.635	15.25
570.831	15.25
571.026	15.42
571.221	15.37
571.416	15.51
571.611	15.45
571.806	15.36
572.002	15.21
572.197	15.31
572.392	15.31
572.587	15.36
572.782	15.56
572.977	15.68
573.172	15.93
573.367	15.99
573.562	16.01
573.757	15.99
573.952	16.21
574.147	16.17
574.342	16.26
574.537	16.44
574.732	16.55
574.927	16.6
575.121	16.67
575.316	16.57
575.511	16.7
575.706	16.51
575.901	16.46
576.096	16.44
576.29	16.7
576.485	16.77
576.68	16.89
576.875	17.07
577.069	17.16
577.264	17.18
577.459	17
577.654	16.91
577.848	17.23
578.043	17.48
578.238	17.67
578.432	17.62
578.627	17.68
578.821	17.64
579.016	17.65
579.21	17.64
579.405	17.64
579.6	17.95
579.794	17.93
579.989	17.84
580.183	17.89
580.378	17.88
580.572	17.97
580.766	17.73
580.961	18.04
581.155	17.88
581.35	17.88
581.544	17.82
581.738	17.68
581.933	17.83
582.127	17.78
582.321	17.65
582.516	17.59
582.71	17.7
582.904	17.62
583.099	17.16
583.293	17.28
583.487	17.32
583.681	17.61
583.875	17.48
584.07	17.8
584.264	18.04
584.458	18.44
584.652	18.49
584.846	18.59
585.04	19.09
585.234	19.36
585.428	19.42
585.623	19.56
585.817	19.64
586.011	20.06
586.205	20.21
586.399	20.21
586.593	20.26
586.787	20.45
586.981	20.36
587.174	20.3
587.368	20.41
587.562	20.52
587.756	20.37
587.95	20.5
588.144	20.15
588.338	19.86
588.532	19.87
588.725	19.73
588.919	19.66
589.113	19.88
589.307	20.12
589.501	20.19
589.694	20.27
589.888	20.26
590.082	20.39
590.275	20.8
590.469	21
590.663	21.1
590.856	20.91
591.05	20.93
591.244	20.72
591.437	20.33
591.631	20.37
591.824	20.28
592.018	20.48
592.212	20.3
592.405	20.15
592.599	20.17
592.792	19.93
592.986	20.12
593.179	19.78
593.372	19.92
593.566	20.28
593.759	20.25
593.953	20.37
594.146	20.47
594.339	20.59
594.533	20.55
594.726	20.52
594.92	20.67
595.113	20.95
595.306	21.33
595.499	21.43
595.693	21.41
595.886	21.5
596.079	21.41
596.272	21.37
596.466	21.21
596.659	21.37
596.852	21.46
597.045	21.72
597.238	21.58
597.431	21.39
597.624	21.46
597.818	21.31
598.011	21.38
598.204	21.3
598.397	21.2
598.59	21.28
598.783	20.85
598.976	20.77
599.169	20.33
599.362	20.19
599.555	20.14
599.748	20.09
599.941	20.2
600.134	20.12
600.326	20.28
600.519	20.72
600.712	20.83
600.905	21.45
601.098	21.49
601.291	21.81
601.483	21.95
601.676	22.34
601.869	22.54
602.062	22.69
602.255	22.86
602.447	22.87
602.64	22.62
602.833	22.56
603.025	22.42
603.218	22.31
603.411	22.47
603.603	22.55
603.796	22.57
603.989	22.5
604.181	22.77
604.374	22.45
604.566	22.4
604.759	22.52
604.951	22.48
605.144	22.62
605.336	22.98
605.529	22.84
605.721	22.84
605.914	22.75
606.106	22.74
606.299	22.4
606.491	22.64
606.683	22.65
606.876	22.53
607.068	22.68
607.26	22.51
607.453	22.15
607.645	22.4
607.837	22.41
608.03	22.36
608.222	22.54
608.414	22.53
608.606	22.42
608.799	22.68
608.991	23
609.183	22.99
609.375	23.08
609.567	23.11
609.759	22.89
609.952	22.75
610.144	22.93
610.336	22.58
610.528	22.61
610.72	22.58
610.912	22.46
611.104	22.25
611.296	22.03
611.488	22.21
611.68	22.51
611.872	22.63
612.064	22.52
612.256	22.31
612.448	22.46
612.64	22.38
612.832	22.26
613.023	22.18
613.215	22.37
613.407	22.61
613.599	22.43
613.791	22.36
613.983	22.16
614.174	22.4
614.366	22.62
614.558	22.84
614.75	23.14
614.941	23.39
615.133	23.23
615.325	23
615.516	23.01
615.708	22.94
615.9	22.69
616.091	22.97
616.283	23.08
616.475	22.81
616.666	23.04
616.858	22.86
617.049	23.04
617.241	23.23
617.432	23.24
617.624	23.39
617.815	23.38
618.007	23.76
618.198	23.69
618.39	23.82
618.581	24.29
618.773	23.94
618.964	24.18
619.155	24.36
619.347	24.23
619.538	24.06
619.729	24.06
619.921	24.03
620.112	23.73
620.303	23.47
620.494	23.28
620.686	23.15
620.877	23.22
621.068	23.03
621.259	22.75
621.451	23.13
621.642	23.37
621.833	23.63
622.024	24
622.215	24
622.406	24.36
622.597	24.39
622.788	24.07
622.98	24.06
623.171	23.89
623.362	24.09
623.553	23.9
623.744	23.6
623.935	23.41
624.126	22.99
624.317	22.92
624.508	23.21
624.698	23.42
624.889	23.7
625.08	23.72
625.271	24.11
625.462	24.14
625.653	24.28
625.844	24.71
626.034	24.68
626.225	24.99
626.416	25.1
626.607	25.07
626.798	25.08
626.988	25
627.179	25.05
627.37	25.1
627.56	24.93
627.751	24.81
627.942	24.79
628.132	24.86
628.323	24.85
628.514	25.07
628.704	24.89
628.895	24.8
629.085	25
629.276	25.33
629.466	25.15
629.657	25.3
629.847	25.3
630.038	25.3
630.228	25.27
630.419	25.33
630.609	25.11
630.8	25.17
630.99	25.04
631.181	25.04
631.371	24.92
631.561	25.06
631.752	25.04
631.942	25.37
632.132	25.5
632.323	25.58
632.513	25.59
632.703	25.41
632.893	25.44
633.084	25.54
633.274	25.5
633.464	25.37
633.654	25.16
633.844	25.17
634.034	25.09
634.225	24.98
634.415	24.7
634.605	25.15
634.795	25.61
634.985	25.5
635.175	25.57
635.365	25.67
635.555	25.43
635.745	25.62
635.935	25.49
636.125	25.56
636.315	25.56
636.505	25.78
636.695	25.1
636.885	25.14
637.075	24.78
637.265	24.93
637.455	24.62
637.644	24.66
637.834	24.89
638.024	25.25
638.214	24.97
638.404	25.17
638.593	25.2
638.783	25.65
638.973	25.27
639.163	25.76
639.352	25.97
639.542	26.23
639.732	26.2
639.921	25.86
640.111	25.23
640.301	25.53
640.49	25.44
640.68	25.65
640.87	25.38
641.059	25.36
641.249	25.03
641.438	24.88
641.628	24.65
641.817	25.06
642.007	24.96
642.196	25.32
642.386	25.1
642.575	25.1
642.764	25.22
642.954	25.27
643.143	25.56
643.333	25.66
643.522	25.21
643.711	25.53
643.901	25.07
644.09	25.2
644.279	25.71
644.469	26.04
644.658	26.07
644.847	25.59
645.036	25.69
645.226	25.46
645.415	25.47
645.604	25.79
645.793	25.73
645.982	25.82
646.171	26.37
646.361	26.15
646.55	26.05
646.739	25.58
646.928	25.34
647.117	25.56
647.306	25.59
647.495	25.85
647.684	26.08
647.873	26.03
648.062	26.33
648.251	25.68
648.44	26.05
648.629	25.94
648.818	26.55
649.007	26.91
649.196	26.88
649.384	27.08
649.573	27.21
649.762	26.84
649.951	27
650.14	26.92
650.328	27.66
650.517	26.94
650.706	26.86
650.895	26.3
651.083	26.62
651.272	26.54
651.461	26.57
651.65	26.46
651.838	26.52
652.027	26.46
652.216	26.43
652.404	26.03
652.593	26.92
652.781	27.2
652.97	27.83
653.158	27.83
653.347	27.86
653.535	27.83
653.724	27.38
653.912	27.78
654.101	27.83
654.289	27.61
654.478	27.89
654.666	27.39
654.855	27.2
655.043	27.16
655.231	27.2
655.42	27.63
655.608	27.67
655.796	28.1
655.985	27.9
656.173	28
656.361	28.09
656.55	27.21
656.738	27.12
656.926	27.5
657.114	27.61
657.302	27.45
657.491	27.34
657.679	27.2
657.867	27.18
658.055	27.43
658.243	27.45
658.431	27.84
658.619	28.55
658.807	28.83
658.996	28.82
659.184	28.88
659.372	28.76
659.56	28.76
659.748	28.78
659.936	29.32
660.124	29.17
660.311	29.27
660.499	29.41
660.687	29.37
660.875	29.07
661.063	28.87
661.251	28.67
661.439	28.92
661.627	28.73
661.814	28.97
662.002	28.25
662.19	28.09
662.378	28.25
662.565	28.34
662.753	28.17
662.941	28.67
663.129	28.93
663.316	28.4
663.504	27.96
663.692	27.73
663.879	27.73
664.067	27.93
664.254	27.86
664.442	27.18
664.63	26.13
664.817	26.26
665.005	26.05
665.192	25.61
665.38	26.02
665.567	26.3
665.755	26.47
665.942	26.39
666.13	26.51
666.317	26.98
666.504	27.01
666.692	27.55
666.879	27.4
667.067	27.12
667.254	27.57
667.441	27.8
667.629	28.14
667.816	28.05
668.003	28.52
668.19	28.64
668.378	28.4
668.565	28.77
668.752	28.94
668.939	29.48
669.127	29.25
669.314	28.8
669.501	28.64
669.688	27.39
669.875	27.36
670.062	27.06
670.249	26.88
670.436	27.04
670.623	27.13
670.81	27.05
670.997	26.46
671.184	27.05
671.371	27.38
671.558	28.14
671.745	29.28
671.932	29.74
672.119	29.14
672.306	29.56
672.493	29.72
672.68	29.75
672.867	30.08
673.054	30.47
673.24	30.78
673.427	30.67
673.614	30.05
673.801	29.92
673.988	29.35
674.174	29.45
674.361	29.2
674.548	28.66
674.734	28.58
674.921	27.99
675.108	27.57
675.294	26.92
675.481	26.97
675.668	26.95
675.854	27.08
676.041	27.41
676.227	27.73
676.414	27.98
676.601	28.5
676.787	28.02
676.974	28.75
677.16	28.88
677.347	29.45
677.533	28.96
677.719	29.35
677.906	28.89
678.092	28.44
678.279	29.09
678.465	28.82
678.651	28.61
678.838	28.77
679.024	28.32
679.21	28.51
679.397	28.58
679.583	30
679.769	29.82
679.955	30.41
680.142	30.88
680.328	30.46
680.514	30.57
680.7	30.62
680.886	30.95
681.073	31.14
681.259	30.82
681.445	30.4
681.631	29.73
681.817	29.93
682.003	29.87
682.189	29.46
682.375	29.56
682.561	29.16
682.747	29.06
682.933	29.2
683.119	29.16
683.305	29.39
683.491	29.82
683.677	29.98
683.863	29.74
684.049	30.29
684.235	31.23
684.42	30.84
684.606	31.41
684.792	31.77
684.978	31.76
685.164	31.72
685.349	32.11
685.535	31.76
685.721	31.43
685.907	30.88
686.092	30.01
686.278	29.22
686.464	30.02
686.649	30.57
686.835	31.04
687.021	31.2
687.206	30.82
687.392	30.23
687.577	30.02
687.763	29.78
687.948	30.97
688.134	31.33
688.319	31.68
688.505	31.15
688.69	30.68
688.876	30.05
689.061	29.84
689.247	30.16
689.432	30.48
689.618	31.21
689.803	31.98
689.988	31.93
690.174	32.09
690.359	31.99
690.544	32.22
690.73	32.04
690.915	32.06
691.1	31.81
691.285	32.31
691.471	32.2
691.656	31.93
691.841	31.97
692.026	31.22
692.211	31.21
692.396	31
692.582	30.85
692.767	30.57
692.952	30.71
693.137	31.4
693.322	31.16
693.507	31.55
693.692	30.96
693.877	30.37
694.062	30.41
694.247	30.8
694.432	31.44
694.617	31.69
694.802	32.47
694.987	32.28
695.172	31.33
695.357	31.48
695.541	31.39
695.726	32.13
695.911	32.23
696.096	32.46
696.281	32.46
696.466	32.07
696.65	31.44
696.835	31.3
697.02	31.22
697.204	31.3
697.389	31.04
697.574	30.86
697.759	30.97
697.943	30.97
698.128	30.75
698.312	30.31
698.497	30.43
698.682	30.82
698.866	30.88
699.051	30.65
699.235	30.74
699.42	31.28
699.604	31.75
699.789	31.29
699.973	31.18
700.158	31.59
700.342	31.43
700.527	31.11
700.711	30.56
700.895	29.87
701.08	30.76
701.264	30.62
701.448	29.97
701.633	29.51
701.817	30.16
702.001	30.15
702.186	29.79
702.37	29.6
702.554	30.08
702.738	30.35
702.923	30.95
703.107	30.04
703.291	30.83
703.475	31.02
703.659	30.64
703.843	29.76
704.027	29.77
704.212	29.55
704.396	29.96
704.58	30.2
704.764	29.98
704.948	29.74
705.132	29.7
705.316	28.45
705.5	28.81
705.684	29.31
705.868	29.73
706.052	29.44
706.235	29.06
706.419	29.43
706.603	29.4
706.787	29.68
706.971	29.57
707.155	29.45
707.339	30.63
707.522	29.86
707.706	29.88
707.89	30.57
708.074	31.66
708.257	32.52
708.441	31.79
708.625	31.7
708.808	31.98
708.992	31.98
709.176	32.72
709.359	32.29
709.543	31.99
709.727	31.59
709.91	30.78
710.094	30.23
710.277	29.93
710.461	29.46
710.644	29.76
710.828	29.75
711.011	30.17
711.195	30.48
711.378	30.78
711.562	31.47
711.745	31.61
711.928	32.11
712.112	32.57
712.295	32.44
712.478	33.22
712.662	32.81
712.845	33
713.028	32.62
713.212	31.78
713.395	31.3
713.578	30.27
713.761	30.19
713.945	29.77
714.128	29.21
714.311	28.94
714.494	29.14
714.677	29.15
714.86	29.5
715.043	30.12
715.227	30.18
715.41	30.74
715.593	31.57
715.776	31.73
715.959	31.6
716.142	31.82
716.325	31.85
716.508	31.56
716.691	31.56
716.874	30.6
717.057	30.37
717.239	30.78
717.422	30.17
717.605	30.23
717.788	30.16
717.971	30.47
718.154	30.18
718.337	31.14
718.519	31.6
718.702	31.9
718.885	32.15
719.068	32.73
719.25	32.37
719.433	33.29
719.616	33.36
719.798	34.31
719.981	33.78
720.164	33.94
720.346	33.21
720.529	32.44
720.712	32
720.894	32.05
721.077	31.87
721.259	31.9
721.442	32.09
721.624	32
721.807	31.24
721.989	31.08
722.172	31.75
722.354	31.62
722.537	32.25
722.719	32.15
722.901	32.09
723.084	31.32
723.266	31.17
723.448	30.05
723.631	29.8
723.813	30.35
723.995	31.39
724.178	30.31
724.36	31.09
724.542	30.82
724.724	31.87
724.907	32.88
725.089	32.49
725.271	31.98
725.453	32.1
725.635	32.15
725.817	31.36
725.999	31.94
726.181	33.12
726.364	33.18
726.546	34.41
726.728	34.55
726.91	33.83
727.092	34.25
727.274	34.77
727.456	34.88
727.638	35.04
727.819	35.14
728.001	35.08
728.183	33.77
728.365	33.35
728.547	32.43
728.729	31.49
728.911	31.32
729.093	32.25
729.274	31.82
729.456	32.33
729.638	31.96
729.82	31.85
730.001	31.2
730.183	32.06
730.365	31.64
730.546	31.7
730.728	31.11
730.91	31.41
731.091	31.37
731.273	32.13
731.455	30.8
731.636	31.31
731.818	32.08
731.999	31.83
732.181	32.15
732.362	32.76
732.544	32.68
732.725	33.76
732.907	32.89
733.088	32.19
733.27	32.04
733.451	32.38
733.633	32.7
733.814	32.81
733.995	33.01
734.177	32.62
734.358	32.26
734.539	32.28
734.721	32.04
734.902	32.28
735.083	32.21
735.264	31.3
735.446	32.17
735.627	31.57
735.808	30.73
735.989	29.76
736.17	29.22
736.351	29.31
736.533	28.61
736.714	26.59
736.895	26.76
737.076	26.89
737.257	27.86
737.438	27.07
737.619	26.75
737.8	26.12
737.981	26.43
738.162	27.21
738.343	27.48
738.524	28.07
738.705	29.16
738.886	29.89
739.067	29.93
739.247	29.4
739.428	29.76
739.609	29.6
739.79	30.52
739.971	31.63
740.151	31.29
740.332	30.57
740.513	30.75
740.694	31.45
740.874	31.76
741.055	31.87
741.236	31.81
741.417	31.56
741.597	32.73
741.778	33.5
741.958	32.62
742.139	31.31
742.32	32.81
742.5	32.51
742.681	31.66
742.861	30.79
743.042	31.34
743.222	31.88
743.403	32.39
743.583	30.68
743.764	29.09
743.944	28.93
744.124	29.91
744.305	27.72
744.485	28.04
744.666	28.82
744.846	27.98
745.026	27.08
745.207	27.61
745.387	27.99
745.567	29.57
745.747	29.74
745.928	31.48
746.108	32.58
746.288	34.11
746.468	35.66
746.648	35.95
746.829	36.23
747.009	36.4
747.189	35.61
747.369	34.36
747.549	34.32
747.729	32.53
747.909	30.83
748.089	29.57
748.269	28.86
748.449	26.78
748.629	25.65
748.809	26.74
748.989	25.61
749.169	25.36
749.349	26.36
749.529	24.68
749.709	25.19
749.889	26.3
750.068	26.95
750.248	27.18
750.428	26.99
750.608	28.69
750.788	28.62
750.967	29.2
751.147	29.09
751.327	28.95
751.507	30.09
751.686	30.68
751.866	30.09
752.046	30.62
752.225	30.46
752.405	30.91
752.585	30.13
752.764	30.64
752.944	31.3
753.123	33.17
753.303	32.8
753.482	32.42
753.662	33.24
753.841	32.9
754.021	31.91
754.2	32.93
754.38	31.81
754.559	31.99
754.739	30.69
754.918	30.73
755.097	28.42
755.277	27.8
755.456	26.65
755.635	26.62
755.815	26.78
755.994	26.69
756.173	26.05
756.352	27.68
756.532	25.69
756.711	27.11
756.89	27.67
757.069	29.56
757.248	30.86
757.427	31.09
757.607	29.68
757.786	29.08
757.965	29.81
758.144	30.39
758.323	29.93
758.502	31.97
758.681	31.41
758.86	31.2
759.039	30.65
759.218	30.74
759.397	32.21
759.576	33.51
759.755	35.18
759.934	35.24
760.113	34.65
760.291	35.44
760.47	34.09
760.649	34.6
760.828	33.66
761.007	33.73
761.186	33.47
761.364	32.73
761.543	33.08
761.722	31.31
761.901	31.3
762.079	32.53
762.258	32.44
762.437	32.73
762.615	32.79
762.794	33.93
762.972	34.34
763.151	33.97
763.33	34.08
763.508	33.78
763.687	34.41
763.865	34.56
764.044	33.55
764.222	34.09
764.401	34.77
764.579	34.51
764.758	33.55
764.936	33.02
765.114	32.37
765.293	32.15
765.471	31.7
765.65	31.18
765.828	30.48
766.006	30.21
766.184	29
766.363	28.47
766.541	28.06
766.719	28.43
766.898	28.34
767.076	29.76
767.254	29.55
767.432	29.12
767.61	28.88
767.788	30.03
767.967	29.16
768.145	29.7
768.323	28.36
768.501	28.68
768.679	29.59
768.857	28.51
769.035	28.2
769.213	29.29
769.391	30.53
769.569	31.86
769.747	30.88
769.925	31.52
770.103	30.8
770.281	31.85
770.459	31.23
770.636	29.19
770.814	30.59
770.992	30.08
771.17	29.24
771.348	29.58
771.525	27.96
771.703	27.95
771.881	28.63
772.059	28.06
772.236	28.18
772.414	28.14
772.592	29.94
772.769	30.19
772.947	30
773.125	29.4
773.302	29.66
773.48	31.26
773.657	31.81
773.835	33.09
774.013	33.33
774.19	33.78
774.368	33.05
774.545	31.33
774.723	31.55
774.9	31.75
775.077	32.94
775.255	32.29
775.432	30.84
775.61	30.52
775.787	30.12
775.964	32.25
776.142	31.72
776.319	32.15
776.496	32.83
776.674	30.39
776.851	29.26
777.028	29.03
777.205	29.13
777.382	30.14
777.56	29.24
777.737	27.48
777.914	26.26
778.091	27.9
778.268	26.87
778.445	28.24
778.622	31.64
778.8	30.55
778.977	34.33
779.154	34.37
779.331	33.02
779.508	35.93
779.685	39.89
779.862	40.53
780.038	37.16
780.215	38.99
780.392	37.41
780.569	35.17
780.746	34.76
780.923	29.33
781.1	29.4
781.277	31.78
781.453	27.76
781.63	25.16
781.807	24.95
781.984	29.22
782.16	28.3
782.337	27.18
782.514	27.01
782.691	31.89
782.867	32.18
783.044	31.02
783.221	30.1
783.397	34.92
783.574	33.35
783.75	29.32
783.927	26.01
784.103	28.09
784.28	26.33
784.456	27.77
784.633	24.54
784.809	26.33
784.986	26.01
785.162	23.26
785.339	19.31
785.515	21.4
785.692	25.83
785.868	24.19
786.044	22.83
786.221	26.07
786.397	27.01
786.573	25.69
786.749	25.01
786.926	26.88
787.102	29.65
787.278	31.02
787.454	33.18
787.631	30.03
787.807	32.83
787.983	33.54
788.159	32.23
788.335	28.92
788.511	29.97
788.687	29.85
788.863	30.75
789.039	30.58
789.216	27.54
789.392	23.85
789.568	27.06
789.744	25.62
789.919	24.04
790.095	23.77
790.271	24.43
790.447	25.91
790.623	26.36
790.799	22.11
790.975	19.79
791.151	20.46
791.327	21.96
791.502	21.9
791.678	25.25
791.854	25.84
792.03	25.59
792.205	25.02
792.381	23.83
792.557	24.2
792.733	24.1
792.908	26.47
793.084	27.74
793.259	26.11
793.435	25.21
793.611	22.18
793.786	19.51
793.962	20.02
794.137	23.04
794.313	23.73
794.488	18.53
794.664	20.48
794.839	20.43
795.015	22.02
795.19	21.98
795.366	20.97
795.541	18.4
795.716	22.9
795.892	25.28
796.067	24.65
796.242	23.95
796.418	28.21
796.593	29.01
796.768	30.84
796.944	30.83
797.119	32.78
797.294	30.29
797.469	31.41
797.644	28.27
797.82	23.84
797.995	19.82
798.17	19.93
798.345	19.47
798.52	19.04
798.695	15.63
798.87	15.45
799.045	14.92
799.22	18.34
799.395	20.14
799.57	21.23
799.745	22.69
799.92	25.67
800.095	23.32
800.27	23.78
800.445	19.09
800.62	17.86
800.795	16.91
800.97	16.91
801.145	16.99
801.319	17.97
801.494	19.76
801.669	21.22
801.844	17.43
802.018	22.67
802.193	21.5
802.368	24.78
802.543	27.04
802.717	27.15
802.892	27.66
803.067	30.5
803.241	27.54
803.416	27.74
803.59	25.02
803.765	28.35
803.94	24.32
804.114	25.66
804.289	27.69
804.463	27.55
804.638	29.16
804.812	26.09
804.986	18.93
805.161	20.9
805.335	17.61
805.51	23.48
805.684	24.67
805.858	26.69
806.033	27.99
806.207	27.33
806.381	26.7
806.556	24.53
806.73	29.83
806.904	34.01
807.078	34.3
807.253	32.04
807.427	32.27
807.601	29.75
807.775	30.2
807.949	27.89
808.123	23.67
808.298	24.86
808.472	28.28
808.646	23.66
808.82	24.06
808.994	22.53
809.168	26.95
809.342	22.29
809.516	22.8
809.69	23.64
809.864	26.73
810.038	30.67
810.212	25.54
810.385	18.31
810.559	21.5
810.733	16.03
810.907	15.11
811.081	11.21
811.255	12.4
811.428	14.59
811.602	11.79
811.776	6.93
811.95	4.49
812.123	10.6
812.297	14.32
812.471	10.46
812.644	14.62
812.818	16.43
812.992	15.05
813.165	10.1
813.339	8.15
813.512	6.08
813.686	5.15
813.86	10.52
814.033	9.87
814.207	9.74
814.38	11.42
814.554	13.89
814.727	9.02
814.9	13.38
815.074	15.7
815.247	19.3
815.421	21.42
815.594	26.22
815.767	25.37
815.941	26.18
816.114	26.48
816.287	29.33
816.46	25.63
816.634	32.92
816.807	37.29
816.98	37.97
817.153	36.1
817.327	31.91
817.5	31.79
817.673	30.44
817.846	27.47
818.019	28.89
818.192	22.93
818.365	24.95
818.538	21.53
818.711	17.83
818.884	20.25
819.057	17.28
819.23	23.56
819.403	21.33
819.576	19.32
819.749	25.2
819.922	26.02
820.095	25.38
820.268	23.8
820.441	24.57
820.614	23.91
820.786	21.56
820.959	23.3
821.132	25.83
821.305	28.08
821.477	31.44
821.65	32.09
821.823	33.21
821.996	34.52
822.168	35.57
822.341	36.54
822.514	36.9
822.686	37
822.859	37.89
823.031	36.98
823.204	36.87
823.376	36.21
823.549	36.36
823.722	35.82
823.894	35.58
824.067	35.47
824.239	34.91
824.411	35.05
824.584	35.46
824.756	35.08
824.929	35.27
825.101	34.57
825.273	34.7
825.446	34.25
825.618	33.32
825.79	34.96
825.963	34.37
826.135	35.27
826.307	34.82
826.479	35.62
826.652	36.05
826.824	36.34
826.996	37.76
827.168	36.85
827.34	36.26
827.512	37.4
827.684	36.01
827.856	36.65
828.029	34.93
828.201	33.99
828.373	33.04
828.545	33.17
828.717	33.96
828.889	31.15
829.061	31.3
829.232	30.41
829.404	28.93
829.576	27.24
829.748	26.68
829.92	26.1
830.092	28.28
830.264	26.14
830.436	24.46
830.607	23.45
830.779	26.28
830.951	26.16
831.123	25.82
831.294	25.47
831.466	25.38
831.638	24.15
831.809	27.41
831.981	21.57
832.153	23.48
832.324	21.8
832.496	17.49
832.667	12.31
832.839	14.09
833.011	17.22
833.182	20.42
833.354	20.11
833.525	22.26
833.697	19.64
833.868	28.92
834.039	28.21
834.211	25.55
834.382	31.41
834.554	33.61
834.725	33.02
834.896	34.43
835.068	30.8
835.239	30.4
835.41	29.56
835.581	31.19
835.753	26.31
835.924	28.62
836.095	29.44
836.266	23.44
836.438	23.54
836.609	20.55
836.78	18.52
836.951	20.25
837.122	20.78
837.293	16.81
837.464	12.56
837.635	7.88
837.806	0.43
837.977	2.84
838.148	2.72
838.319	-1.81
838.49	1.47
838.661	-0.07
838.832	0.94
839.003	-3.28
839.174	4.65
839.345	5.31
839.516	16.41
839.687	18.31
839.857	16.95
840.028	21.64
840.199	15.58
840.37	15.8
840.54	14.23
840.711	13.25
840.882	15.07
841.053	8.91
841.223	10.82
841.394	7.38
841.564	6.12
841.735	9.91
841.906	7.61
842.076	11.53
842.247	11.31
842.417	8.08
842.588	6.21
842.758	5.24
842.929	8.81
843.099	8.54
843.27	11.38
843.44	13.45
843.611	10.73
843.781	2.16
843.951	0.07
844.122	-3.83
844.292	-10.12
844.462	-3.17
844.633	0.53
844.803	2.1
844.973	0.33
845.144	-9.57
845.314	-5.31
845.484	-7.95
845.654	-1.85
845.824	6.15
845.995	4.07
846.165	12.29
846.335	6.72
846.505	3.71
846.675	4.15
846.845	13.72
847.015	12.69
847.185	8.22
847.355	12.79
847.525	7.32
847.695	3.21
847.865	9.63
848.035	14.49
848.205	13.44
848.375	13.36
848.545	6.98
848.715	-4.59
848.884	3.72
849.054	-2.44
849.224	-3.32
849.394	-0.51
849.564	-7.78
849.733	-12.47
849.903	-18.19
850.073	-14.81
850.243	-20.15
850.412	-17.99
850.582	-21.52
850.752	-10.92
850.921	-3.47
851.091	0.35
851.26	7.67
851.43	18.1
851.599	10.63
851.769	12.98
851.939	11.03
852.108	13.22
852.278	2.63
852.447	-11.31
852.616	-13.57
852.786	-35.46
852.955	-35.49
853.125	-50.14
853.294	-45.19
853.463	-44.71
853.633	-60.02
853.802	-60.13
853.971	-46.05
854.141	-27.41
854.31	-21.81
854.479	-26.46
854.648	-17.09
854.818	-16.59
854.987	-11.11
855.156	-21.18
855.325	-12.35
855.494	-9.39
855.663	-6.02
855.832	-7.33
856.001	-14.07
856.171	-9.11
856.34	-10.89
856.509	-6.31
856.678	-0.76
856.847	-14.6
857.016	-14.04
857.185	-23.56
857.353	-51.56
857.522	-32.1
857.691	-22.08
857.86	-14.26
858.029	-25.9
858.198	-42.1
858.367	-38.57
858.535	-42.35
858.704	-38.49
858.873	-19.86
859.042	-27.66
859.21	-9.6
859.379	-19.54
859.548	-66.09
859.717	-55
859.885	-31.31
860.054	-33.57
860.222	-40.66
860.391	-48.04
860.56	-51
860.728	-51.09
860.897	-21.66
861.065	-26.79
861.234	-22.01
861.402	-2.99
861.571	-7.11
861.739	-18.42
861.908	-2.6
862.076	10.82
862.244	14.04
862.413	9.35
862.581	-9.32
862.749	-49.99
862.918	-13.75
863.086	-17.88
863.254	-15.75
863.423	-24.09
863.591	-35.48
863.759	-15.89
863.927	-20
864.096	-13.21
864.264	0.57
864.432	9.62
864.6	13.97
864.768	-7.95
864.936	-10.87
865.104	-18.18
865.272	-10.6
865.44	-6.74
865.608	-22.79
865.776	-17.87
865.944	-29.49
866.112	-46.57
866.28	-36.77
866.448	-32.74
866.616	-27.39
866.784	-19.46
866.952	-26.63
867.12	-31.02
867.288	-38.44
867.455	-54.32
867.623	-63.1
867.791	-43.41
867.959	-19.18
868.127	-40.01
868.294	-33.64
868.462	-14.14
868.63	-24.97
868.797	-19.34
868.965	-11.57
869.133	-4.96
869.3	26.36
869.468	36.82
869.636	27.62
869.803	9.1
869.971	12.99
870.138	14.25
870.306	9.14
870.473	9.64
870.641	11.85
870.808	5.85
870.975	1.17
871.143	-8.38
871.31	-13.9
871.478	-9.79
871.645	1.43
871.812	6.95
871.98	-13.4
872.147	-16.92
872.314	-28.64
872.482	-24.92
872.649	-22.66
872.816	-29.33
872.983	-41.43
873.15	-62.57
873.318	-92.37
873.485	-109.53
873.652	-132.62
873.819	-104.11
873.986	-70.95
874.153	-73.29
874.32	-65.42
874.487	-55.65
874.654	-24.45
874.821	-4.04
874.988	11.23
875.155	28.4
875.322	19.78
875.489	16.72
875.656	17.03
875.823	19.24
875.99	24.61
876.157	13.78
876.324	10.93
876.49	5.5
876.657	3.53
876.824	-0.68
876.991	-6.7
877.157	-0.88
877.324	10.67
877.491	15.36
877.658	12.83
877.824	7.26
877.991	15.78
878.157	22.65
878.324	27.43
878.491	28.91
878.657	20.87
878.824	-3.93
878.99	-6.85
879.157	5.67
879.323	-5.42
879.49	5.53
879.656	9.79
879.823	20.32
879.989	9.37
880.156	19.18
880.322	2.32
880.488	-9.93
880.655	-8.14
880.821	-8.29
880.987	-19.48
881.154	-11.03
881.32	-6.64
881.486	-0.53
881.652	-1.97
881.819	1.8
881.985	-3.28
882.151	7.07
882.317	16.54
882.483	27
882.649	27.76
882.816	23.89
882.982	24.51
883.148	24.07
883.314	25.65
883.48	25.29
883.646	27.7
883.812	26.74
883.978	27.3
884.144	29.58
884.31	27.48
884.476	29.8
884.642	35.19
884.807	35.57
884.973	35.42
885.139	40.77
885.305	42.13
885.471	41.09
885.637	43.52
885.802	41.77
885.968	36.97
886.134	37.59
886.3	35.06
886.465	31.74
886.631	32.51
886.797	26.71
886.962	14.37
887.128	11.93
887.293	9.27
887.459	6.53
887.625	1
887.79	1.68
887.956	-1.99
888.121	-0.74
888.287	-3.93
888.452	-11.11
888.618	-11.12
888.783	-11.32
