Data from 2937862_Reflection_1.txt Node
Date: Wed Jul 15 15:22:09 EDT 2015
User: robert
Spectrometer: USB4E03001
Autoset integration time: false
Trigger mode: 4
Integration Time (sec): 1.000000E-1
Scans to average: 10
Electric dark correction enabled: true
Nonlinearity correction enabled: false
Boxcar width: 5
Stray light correction enabled: false
XAxis mode: Wavelengths
Stop averaging: false
Number of Pixels in Spectrum: 3648
>>>>>Begin Spectral Data<<<<<
177.566	-143.68
177.785	-68.5
178.005	1805.34
178.225	-860.49
178.445	609.58
178.665	67.8
178.885	-7.98
179.105	-281.47
179.324	-39.35
179.544	-1.49
179.764	6.32
179.984	-16.51
180.204	-15.58
180.423	-143.08
180.643	-240.57
180.863	-172.8
181.083	189.15
181.302	95.4
181.522	78.56
181.742	39.02
181.961	54.56
182.181	84.95
182.401	113.56
182.621	86.57
182.84	10.07
183.06	13.78
183.279	13.31
183.499	4.55
183.719	-42.28
183.938	-114.29
184.158	-47.68
184.377	-50.62
184.597	8.04
184.816	1.45
185.036	25.85
185.256	19.68
185.475	23.69
185.695	31.15
185.914	31.86
186.134	37.78
186.353	-4.17
186.572	5.8
186.792	-125.98
187.011	395.32
187.231	1842.12
187.45	-183.89
187.67	-63.27
187.889	3.73
188.108	-35.65
188.328	-105.97
188.547	-47.14
188.766	-18.19
188.986	-3.06
189.205	34.44
189.424	29.87
189.644	45.34
189.863	42.66
190.082	42.51
190.302	6.16
190.521	5.9
190.74	6.52
190.959	44.17
191.178	38.99
191.398	14.81
191.617	-35.03
191.836	-41.39
192.055	-161.56
192.274	-108.34
192.494	-3342.33
192.713	-458.67
192.932	-769.01
193.151	-498.74
193.37	1070.73
193.589	1309.7
193.808	708.91
194.027	-621.64
194.246	-761.05
194.465	-252.08
194.685	-301.52
194.904	-276.58
195.123	-627.05
195.342	-446.73
195.561	-2365.63
195.78	-513.67
195.999	-463.26
196.218	-736.24
196.436	-4041.23
196.655	-705.81
196.874	-734.62
197.093	-504.47
197.312	-265
197.531	-103.65
197.75	-108.83
197.969	-81.51
198.188	-15.96
198.407	-5.19
198.625	-80.28
198.844	-92.88
199.063	-85.01
199.282	-20265
199.501	-275.97
199.719	-170.03
199.938	-454.7
200.157	-687.58
200.376	-229.44
200.594	-202.69
200.813	-260.16
201.032	-159.39
201.251	-127.27
201.469	-83.71
201.688	-71.76
201.907	-81.96
202.125	-75.81
202.344	-39.89
202.563	-28.79
202.781	-20.13
203	-26.84
203.218	-9.34
203.437	-23.59
203.656	-24.92
203.874	-87.56
204.093	-0.8
204.311	-17.09
204.53	-6.08
204.748	-26.85
204.967	7.49
205.185	-189.31
205.404	-210.94
205.622	-448.21
205.841	-83.46
206.059	-216.09
206.278	-406.37
206.496	340.21
206.715	652.09
206.933	251.11
207.151	364.26
207.37	928.45
207.588	555.63
207.806	-1279.76
208.025	46784.21
208.243	1394.66
208.461	-323.1
208.68	-222.48
208.898	-114.87
209.116	-156.33
209.335	-55.35
209.553	-12.4
209.771	-23.46
209.989	25.82
210.208	36.84
210.426	35.1
210.644	44.47
210.862	29.17
211.081	-0.81
211.299	8.56
211.517	-6.78
211.735	-17.37
211.953	-48.69
212.171	-41.01
212.39	-202.73
212.608	-270.38
212.826	-320.61
213.044	-191.83
213.262	-546.2
213.48	-305.09
213.698	-1241.67
213.916	-571.55
214.134	-263.36
214.352	-319.21
214.57	-154.56
214.788	-43.4
215.006	-5.8
215.224	-51.34
215.442	-131.27
215.66	-68.73
215.878	-115.87
216.096	-153.85
216.314	-137.18
216.532	-122.49
216.75	-127.44
216.968	-173.54
217.185	-119.36
217.403	-154.25
217.621	-63.21
217.839	-39.38
218.057	-45.89
218.275	-51.02
218.492	-44.61
218.71	-70
218.928	-88.49
219.146	-55.09
219.363	-35.77
219.581	-43.02
219.799	-47.86
220.017	-88.88
220.234	-132.67
220.452	-90.13
220.67	-75.31
220.887	-41.12
221.105	-41.18
221.323	-13.48
221.54	-34.77
221.758	-54.01
221.976	-94.12
222.193	-42.13
222.411	-21.72
222.629	-18.11
222.846	-13.54
223.064	-17.09
223.281	-25.09
223.499	-30.75
223.716	-29.08
223.934	-11.29
224.151	-29.49
224.369	-25.48
224.586	-30.48
224.804	-144.17
225.021	-79.41
225.239	-108.02
225.456	-18.05
225.674	-6.91
225.891	29.24
226.108	2.78
226.326	-16.4
226.543	-13.64
226.76	-6.28
226.978	-19.86
227.195	-14.74
227.413	-15.89
227.63	-13.1
227.847	-8.17
228.064	-10.25
228.282	-10.94
228.499	-11
228.716	-2.41
228.934	2.88
229.151	3.37
229.368	5.19
229.585	9.41
229.802	9.09
230.02	10.78
230.237	6.61
230.454	11.63
230.671	8.19
230.888	15.44
231.105	9.13
231.323	6.85
231.54	6.73
231.757	7.49
231.974	3.86
232.191	3.99
232.408	2.82
232.625	-4.31
232.842	-13.1
233.059	-3.36
233.276	-9.72
233.493	-11.16
233.71	-13.94
233.927	-9.73
234.144	-7.37
234.361	-3.08
234.578	-4.59
234.795	-1.44
235.012	12.15
235.229	14.97
235.446	13.36
235.663	11.72
235.879	14.53
236.096	15.03
236.313	11.94
236.53	5.04
236.747	-5.69
236.964	-8.2
237.181	-6.58
237.397	-11.47
237.614	-16.31
237.831	-13
238.048	-5.45
238.264	-1.46
238.481	2.04
238.698	-3.08
238.915	-3.98
239.131	1.36
239.348	0.94
239.565	6.46
239.781	7.64
239.998	9.6
240.215	6.97
240.431	1.93
240.648	2.31
240.865	6.12
241.081	11.18
241.298	14.95
241.514	15.72
241.731	17.68
241.947	16.43
242.164	15.44
242.38	16.15
242.597	19.45
242.814	19.8
243.03	20.72
243.246	19.44
243.463	18.82
243.679	18.86
243.896	20.33
244.112	18.47
244.329	17.42
244.545	16.04
244.762	14.99
244.978	8.38
245.194	7.93
245.411	6.89
245.627	8.67
245.843	8.74
246.06	9.48
246.276	8.85
246.492	10.51
246.709	11.42
246.925	12.48
247.141	13.32
247.357	14.26
247.574	14.55
247.79	14.83
248.006	15.38
248.222	14.2
248.439	13.19
248.655	13.02
248.871	13.01
249.087	11.34
249.303	10.78
249.519	8.59
249.736	6.7
249.952	6.68
250.168	3.91
250.384	1.18
250.6	0.65
250.816	0.23
251.032	-2.35
251.248	-3.34
251.464	-1.61
251.68	-0.27
251.896	-0.6
252.112	2.82
252.328	1
252.544	2.03
252.76	-0.9
252.976	0.72
253.192	-1.26
253.408	-1.17
253.624	-3.36
253.84	-2.35
254.056	-3.03
254.272	-0.64
254.487	-2.37
254.703	0.96
254.919	0.15
255.135	6.54
255.351	4.84
255.567	10.14
255.782	10.43
255.998	14.34
256.214	14.11
256.43	12.04
256.646	10.5
256.861	9.33
257.077	9.14
257.293	8.3
257.508	7.5
257.724	8.61
257.94	8.1
258.155	7.62
258.371	6.37
258.587	6.99
258.802	6.26
259.018	7.49
259.234	8.17
259.449	8.18
259.665	8.55
259.88	8.32
260.096	8.56
260.312	7.57
260.527	8.39
260.743	8.57
260.958	7.48
261.174	7.73
261.389	7.63
261.605	5.72
261.82	6.03
262.036	5.97
262.251	3.89
262.466	3.59
262.682	3.74
262.897	3.1
263.113	2.37
263.328	3.01
263.543	4.36
263.759	3.67
263.974	4.56
264.189	2.36
264.405	-0.06
264.62	1.42
264.835	1.81
265.051	4.3
265.266	2.56
265.481	0.29
265.696	-0.05
265.912	-0.81
266.127	-1.03
266.342	1.89
266.557	2.73
266.773	5.29
266.988	6.15
267.203	6.42
267.418	5.62
267.633	7.23
267.848	7.92
268.064	8.55
268.279	9.73
268.494	10.37
268.709	8.77
268.924	7.66
269.139	6.89
269.354	6.09
269.569	6.36
269.784	6.56
269.999	5.11
270.214	4.76
270.429	4.07
270.644	1.77
270.859	1.61
271.074	1.48
271.289	0.54
271.504	1.23
271.719	2.19
271.934	2.29
272.149	2.39
272.363	2.48
272.578	2.97
272.793	4.13
273.008	5.94
273.223	6.27
273.438	7.21
273.653	8.39
273.867	6.8
274.082	6.27
274.297	5.25
274.512	4.54
274.726	4.79
274.941	5.51
275.156	4.63
275.371	2.44
275.585	2.01
275.8	-0.33
276.015	-1.99
276.229	-0.7
276.444	-0.74
276.659	-1.1
276.873	-1.75
277.088	-0.13
277.302	0.87
277.517	-1.48
277.732	0.25
277.946	0.71
278.161	2.17
278.375	4.8
278.59	4.83
278.804	5.29
279.019	5.41
279.233	4.16
279.448	2.83
279.662	1.67
279.877	4.49
280.091	3.85
280.306	3.69
280.52	5.41
280.735	6.08
280.949	4.9
281.163	3.94
281.378	4.65
281.592	7.49
281.806	7.97
282.021	8.54
282.235	8.73
282.449	9.25
282.664	10.42
282.878	9.62
283.092	8.86
283.307	10.52
283.521	10.17
283.735	9.23
283.949	9.01
284.164	9.64
284.378	8.58
284.592	8.48
284.806	8.04
285.02	7.37
285.234	7.86
285.449	7.22
285.663	7.83
285.877	8.39
286.091	9.21
286.305	9.22
286.519	8.63
286.733	9.79
286.947	9.7
287.161	10.92
287.375	11.6
287.589	11.64
287.803	10.66
288.017	10.72
288.231	12.32
288.445	11.96
288.659	10.51
288.873	11.42
289.087	9.68
289.301	9.94
289.515	8.8
289.729	6.44
289.943	5.84
290.157	6.75
290.371	3.71
290.584	3.32
290.798	2.46
291.012	3.71
291.226	3.08
291.44	3.84
291.654	3.01
291.867	4.16
292.081	6
292.295	6.94
292.509	7.08
292.722	9.77
292.936	8.59
293.15	8.07
293.364	7.46
293.577	6.42
293.791	6.26
294.005	8.51
294.218	8.28
294.432	8.29
294.645	6.91
294.859	8.12
295.073	7.27
295.286	7.62
295.5	8.76
295.713	7.91
295.927	8.53
296.14	9.08
296.354	7.87
296.568	8.05
296.781	7.26
296.994	9.87
297.208	9.26
297.421	9.47
297.635	9.94
297.848	10.3
298.062	11.65
298.275	11.34
298.489	11.99
298.702	10.8
298.915	9.91
299.129	10.06
299.342	7.17
299.555	8.61
299.769	9.09
299.982	10.36
300.195	11.21
300.409	10.67
300.622	12.42
300.835	11.6
301.048	13.27
301.262	14.01
301.475	13.05
301.688	13.56
301.901	12.02
302.115	11.49
302.328	10.54
302.541	9.17
302.754	7.93
302.967	7.57
303.18	6.51
303.393	6.47
303.607	5.67
303.82	6.78
304.033	7.95
304.246	7.98
304.459	8.22
304.672	8.75
304.885	8.86
305.098	9.38
305.311	8.4
305.524	8.79
305.737	8.31
305.95	9.12
306.163	8.88
306.376	8.77
306.589	9.11
306.802	9.64
307.015	8.4
307.228	8.16
307.44	9.08
307.653	8.59
307.866	7.66
308.079	7.66
308.292	6.42
308.505	6.58
308.718	5.83
308.93	6
309.143	6.08
309.356	5.36
309.569	6.12
309.781	5.99
309.994	6.46
310.207	7.75
310.42	6.52
310.632	6.82
310.845	7.18
311.058	7.11
311.27	7.95
311.483	7.98
311.696	7.77
311.908	6.78
312.121	5.27
312.333	3.53
312.546	2.99
312.759	4.72
312.971	3.93
313.184	5.38
313.396	5.41
313.609	4.29
313.821	3.59
314.034	4.74
314.246	6.5
314.459	7.95
314.671	9.05
314.884	10.54
315.096	10.13
315.309	10.56
315.521	10.03
315.733	10.69
315.946	9.3
316.158	8.74
316.371	9.15
316.583	8.62
316.795	7.18
317.008	8.56
317.22	6.74
317.432	7.48
317.644	8.45
317.857	6.26
318.069	5.86
318.281	6.33
318.494	6.46
318.706	3.43
318.918	2.29
319.13	3.86
319.342	1.8
319.555	2.24
319.767	1.58
319.979	0.62
320.191	2.22
320.403	1.44
320.615	2.32
320.827	1.89
321.039	3.35
321.252	3.13
321.464	3.14
321.676	5.08
321.888	5.71
322.1	6.72
322.312	6.09
322.524	4.95
322.736	5.45
322.948	6.01
323.16	6.92
323.372	7.81
323.584	8.09
323.796	7.8
324.007	7.34
324.219	7.59
324.431	6.94
324.643	7.75
324.855	8
325.067	7.09
325.279	5.73
325.491	5.17
325.702	5.15
325.914	5.52
326.126	6.19
326.338	6
326.55	3.68
326.761	2.33
326.973	3.46
327.185	4.07
327.396	5.32
327.608	6.08
327.82	6.22
328.032	7.51
328.243	6.96
328.455	6.87
328.666	6.28
328.878	8.12
329.09	10.66
329.301	10.87
329.513	11.11
329.725	12.38
329.936	10.5
330.148	11.21
330.359	10.95
330.571	12.57
330.782	12.4
330.994	14.35
331.205	14.53
331.417	12.77
331.628	12.35
331.84	10.68
332.051	8.85
332.262	10.82
332.474	10.53
332.685	9.26
332.897	8.77
333.108	8.17
333.319	6.53
333.531	5.86
333.742	6.72
333.953	6.13
334.165	8.34
334.376	9.35
334.587	9.21
334.799	10.82
335.01	10.98
335.221	9.61
335.432	10.37
335.644	11.51
335.855	12.89
336.066	13.37
336.277	13.32
336.488	12.69
336.7	11.98
336.911	11.79
337.122	11.86
337.333	11.74
337.544	11.8
337.755	11.87
337.966	11.17
338.177	9.82
338.388	8.3
338.599	9.3
338.811	7.53
339.022	7.71
339.233	8.31
339.444	6.41
339.655	6.7
339.866	7.79
340.076	6.69
340.287	6.72
340.498	7.02
340.709	7.57
340.92	6.8
341.131	8.35
341.342	7.96
341.553	7.04
341.764	7.96
341.975	7.05
342.185	5.89
342.396	6.24
342.607	6.12
342.818	6.12
343.029	5.7
343.239	5.91
343.45	5.32
343.661	7.27
343.872	6.62
344.082	6.44
344.293	7.18
344.504	8.06
344.714	7.6
344.925	7.28
345.136	6.19
345.346	5.93
345.557	5.64
345.768	5.28
345.978	4.35
346.189	5.62
346.399	5.44
346.61	4.91
346.821	5.03
347.031	6.24
347.242	6.64
347.452	6.79
347.663	7.74
347.873	6.78
348.084	6.33
348.294	6.27
348.504	5.71
348.715	5.34
348.925	6.83
349.136	6.8
349.346	6.39
349.557	6.99
349.767	8.59
349.977	7.49
350.188	7.3
350.398	7.79
350.608	6.88
350.819	7.18
351.029	6.47
351.239	5.14
351.449	5.01
351.66	6.15
351.87	6.95
352.08	5.97
352.29	5.72
352.501	8.02
352.711	9.45
352.921	10.16
353.131	8.85
353.341	9.77
353.552	10.71
353.762	11.05
353.972	10.05
354.182	9.52
354.392	9.94
354.602	11.06
354.812	10.8
355.022	11.02
355.232	10.7
355.442	12.39
355.652	12.39
355.862	11.63
356.072	12.26
356.282	13.18
356.492	11.92
356.702	11.54
356.912	11.72
357.122	10.53
357.332	8.94
357.542	9.89
357.752	9.89
357.962	9.75
358.171	9.94
358.381	9.06
358.591	8.91
358.801	9.48
359.011	8.88
359.221	8.04
359.43	8.87
359.64	9.91
359.85	8.9
360.06	8.18
360.269	8.6
360.479	9.05
360.689	9.71
360.899	9.26
361.108	9.17
361.318	9.46
361.528	9.81
361.737	9.86
361.947	9.11
362.156	9.7
362.366	10.05
362.576	10.06
362.785	9.75
362.995	9.19
363.204	9.35
363.414	9.07
363.623	9.13
363.833	9
364.042	8.35
364.252	8.4
364.461	8.01
364.671	8.32
364.88	8.4
365.09	8.57
365.299	7.62
365.509	7.61
365.718	8.33
365.927	8.22
366.137	8.07
366.346	8.02
366.555	7.74
366.765	7.32
366.974	6.88
367.183	6.12
367.393	5.7
367.602	6.19
367.811	4.58
368.021	3.81
368.23	4.02
368.439	4.56
368.648	4.75
368.857	5.41
369.067	4.79
369.276	5.1
369.485	5.14
369.694	5.08
369.903	6.18
370.112	7.95
370.321	8.34
370.531	8.1
370.74	7.63
370.949	7.2
371.158	6.71
371.367	7.78
371.576	7.4
371.785	7.26
371.994	7.52
372.203	6.19
372.412	6.04
372.621	5.89
372.83	5.57
373.039	5.56
373.248	6.52
373.457	7.1
373.666	6.56
373.874	6.47
374.083	6.98
374.292	7.17
374.501	8.09
374.71	7.76
374.919	8.13
375.128	8.17
375.336	7.94
375.545	8.05
375.754	7.52
375.963	8.12
376.171	8.29
376.38	7.82
376.589	7.95
376.798	7.52
377.006	7.27
377.215	7.08
377.424	7.99
377.632	9.14
377.841	8.99
378.05	9.33
378.258	8.94
378.467	8.98
378.675	9.3
378.884	9.05
379.093	9.03
379.301	9.28
379.51	9.43
379.718	8.28
379.927	7.73
380.135	7.34
380.344	7.18
380.552	7.62
380.761	7.14
380.969	6.71
381.177	6.6
381.386	6.8
381.594	6.69
381.803	6.42
382.011	6.9
382.219	6.53
382.428	6.85
382.636	7.1
382.845	6.76
383.053	6.66
383.261	6.73
383.469	6.54
383.678	6.51
383.886	6.22
384.094	5.9
384.302	5.99
384.511	5.73
384.719	5.29
384.927	4.94
385.135	4.64
385.343	5
385.552	5.36
385.76	5.23
385.968	5.71
386.176	6.12
386.384	6.45
386.592	6.32
386.8	6.44
387.008	6.46
387.216	6.74
387.424	6.9
387.633	6.62
387.841	6.17
388.049	6.2
388.257	5.91
388.465	5.35
388.672	4.94
388.88	5.32
389.088	5.15
389.296	5.29
389.504	4.95
389.712	5.52
389.92	5.88
390.128	6.19
390.336	6.48
390.544	5.82
390.751	5.97
390.959	6.24
391.167	5.96
391.375	5.99
391.583	5.9
391.79	5.78
391.998	5.32
392.206	5.23
392.414	5.05
392.621	4.78
392.829	5.2
393.037	5.25
393.244	5.23
393.452	5.46
393.66	5.15
393.867	5.15
394.075	5.5
394.283	5.24
394.49	5.24
394.698	5.02
394.905	5.16
395.113	4.89
395.32	5.33
395.528	5.26
395.735	4.95
395.943	5.26
396.15	5.24
396.358	5.31
396.565	5.62
396.773	5.56
396.98	6.07
397.188	6.04
397.395	6.19
397.602	5.85
397.81	5.91
398.017	5.97
398.225	6.31
398.432	5.94
398.639	5.6
398.847	5.5
399.054	5.45
399.261	4.98
399.468	4.7
399.676	4.27
399.883	3.9
400.09	3.74
400.297	3.87
400.505	3.43
400.712	3.79
400.919	4.05
401.126	3.85
401.333	3.96
401.54	4.3
401.748	4.5
401.955	4.78
402.162	4.52
402.369	4.7
402.576	4.38
402.783	4.35
402.99	4.06
403.197	3.66
403.404	4.09
403.611	3.8
403.818	3.55
404.025	3.5
404.232	3.77
404.439	4.48
404.646	4.71
404.853	4.75
405.06	4.76
405.267	4.67
405.474	4.82
405.681	4.63
405.887	4.83
406.094	5.01
406.301	5.23
406.508	4.88
406.715	4.53
406.922	4.49
407.128	4.45
407.335	4.35
407.542	4.96
407.749	4.89
407.955	5.06
408.162	4.97
408.369	4.86
408.575	4.72
408.782	5.04
408.989	5.12
409.195	5.09
409.402	5.32
409.609	5.3
409.815	5.06
410.022	4.98
410.228	4.64
410.435	4.83
410.642	4.9
410.848	4.98
411.055	4.86
411.261	4.58
411.468	4.54
411.674	4.3
411.881	4.46
412.087	4.33
412.294	4.43
412.5	4.72
412.706	4.51
412.913	4.42
413.119	4.32
413.326	4.23
413.532	4.43
413.738	4.4
413.945	4.37
414.151	4.45
414.357	4.55
414.564	4.52
414.77	4.39
414.976	4.39
415.182	4.49
415.389	4.42
415.595	4.28
415.801	4.41
416.007	4.33
416.214	4.67
416.42	4.4
416.626	4.4
416.832	4.44
417.038	4.39
417.244	4.34
417.45	4.34
417.657	4.53
417.863	4.59
418.069	4.68
418.275	4.72
418.481	4.56
418.687	4.75
418.893	4.8
419.099	4.83
419.305	4.79
419.511	4.87
419.717	4.89
419.923	4.77
420.129	4.84
420.335	4.66
420.541	4.66
420.746	4.61
420.952	4.55
421.158	4.54
421.364	4.62
421.57	4.63
421.776	4.6
421.982	4.47
422.187	4.54
422.393	4.56
422.599	4.67
422.805	4.62
423.01	4.75
423.216	4.88
423.422	4.88
423.628	4.81
423.833	4.81
424.039	4.87
424.245	4.92
424.45	4.89
424.656	4.91
424.862	5
425.067	5.13
425.273	4.99
425.478	5.02
425.684	4.89
425.889	4.82
426.095	4.8
426.301	4.64
426.506	4.48
426.712	4.41
426.917	4.36
427.123	4.16
427.328	4.19
427.533	4.25
427.739	4.07
427.944	4.27
428.15	4.29
428.355	4.16
428.561	4.35
428.766	4.44
428.971	4.57
429.177	4.64
429.382	4.5
429.587	4.22
429.793	4.19
429.998	3.91
430.203	3.88
430.408	3.9
430.614	4.01
430.819	4.06
431.024	4.41
431.229	4.11
431.434	4.11
431.64	4
431.845	3.93
432.05	3.73
432.255	4.01
432.46	4.07
432.665	4.14
432.87	4.35
433.076	4.3
433.281	4.15
433.486	4.47
433.691	4.3
433.896	4.44
434.101	4.63
434.306	4.9
434.511	5
434.716	4.85
434.921	4.95
435.126	4.94
435.331	5.01
435.535	5.03
435.74	4.67
435.945	4.81
436.15	4.79
436.355	4.53
436.56	4.49
436.765	4.24
436.97	4.26
437.174	3.99
437.379	3.89
437.584	3.82
437.789	3.73
437.993	4.13
438.198	4.11
438.403	4.29
438.608	4.27
438.812	4.21
439.017	4.26
439.222	4.17
439.426	4.22
439.631	4.28
439.836	4.23
440.04	4.21
440.245	4.11
440.45	4.08
440.654	3.92
440.859	4.09
441.063	4.18
441.268	4.06
441.472	4.14
441.677	4.08
441.881	3.94
442.086	3.87
442.29	3.75
442.495	3.65
442.699	3.61
442.904	3.65
443.108	3.62
443.312	3.48
443.517	3.57
443.721	3.62
443.925	3.84
444.13	3.83
444.334	3.77
444.538	4.03
444.743	4.06
444.947	4.12
445.151	4.22
445.356	4.07
445.56	4.07
445.764	4.09
445.968	4.01
446.173	4.06
446.377	4.02
446.581	4.08
446.785	4.06
446.989	4.06
447.193	4.09
447.398	3.85
447.602	3.92
447.806	3.96
448.01	3.87
448.214	3.99
448.418	3.78
448.622	3.94
448.826	3.99
449.03	3.87
449.234	3.86
449.438	3.68
449.642	3.74
449.846	3.77
450.05	3.85
450.254	4.08
450.458	4.15
450.662	4.19
450.866	4.13
451.069	4.06
451.273	3.97
451.477	3.94
451.681	4.15
451.885	4.18
452.089	4.32
452.292	4.08
452.496	4.08
452.7	3.79
452.904	3.9
453.107	3.67
453.311	3.74
453.515	3.96
453.719	3.86
453.922	4.02
454.126	4
454.33	3.62
454.533	3.76
454.737	3.48
454.94	3.66
455.144	3.64
455.348	3.7
455.551	3.82
455.755	3.72
455.958	3.95
456.162	3.77
456.365	3.95
456.569	4.18
456.772	4.11
456.976	4.38
457.179	4.28
457.383	4.24
457.586	4.11
457.79	3.99
457.993	4
458.196	3.99
458.4	3.97
458.603	3.79
458.807	3.75
459.01	3.86
459.213	3.62
459.417	3.64
459.62	3.71
459.823	3.93
460.026	3.93
460.23	4.01
460.433	3.94
460.636	3.98
460.839	4.07
461.042	4.14
461.246	3.98
461.449	4.04
461.652	4.11
461.855	3.96
462.058	3.68
462.261	3.5
462.464	3.43
462.668	3.25
462.871	3.15
463.074	3.14
463.277	3.12
463.48	3.22
463.683	3.31
463.886	3.21
464.089	3.21
464.292	3.6
464.495	3.7
464.698	3.66
464.901	3.81
465.104	3.9
465.306	3.9
465.509	3.69
465.712	3.85
465.915	3.64
466.118	3.58
466.321	3.71
466.524	3.57
466.726	3.55
466.929	3.71
467.132	3.74
467.335	3.6
467.538	3.72
467.74	3.71
467.943	3.54
468.146	3.71
468.348	3.87
468.551	3.83
468.754	4.01
468.956	4.05
469.159	3.83
469.362	3.64
469.564	3.64
469.767	3.44
469.969	3.54
470.172	3.52
470.375	3.41
470.577	3.43
470.78	3.47
470.982	3.39
471.185	3.38
471.387	3.26
471.59	3.58
471.792	3.62
471.995	3.63
472.197	3.55
472.399	3.82
472.602	4.09
472.804	3.91
473.007	3.62
473.209	3.75
473.411	3.86
473.614	3.96
473.816	3.84
474.018	3.57
474.22	3.65
474.423	3.98
474.625	3.65
474.827	3.35
475.03	3.52
475.232	3.77
475.434	3.49
475.636	3.51
475.838	3.5
476.04	3.68
476.243	4.23
476.445	4.27
476.647	3.97
476.849	3.99
477.051	4.18
477.253	3.98
477.455	3.92
477.657	3.84
477.859	3.75
478.061	3.84
478.263	3.46
478.465	3.29
478.667	3.11
478.869	3.19
479.071	3.33
479.273	3.32
479.475	3.53
479.677	3.63
479.879	3.81
480.081	3.79
480.283	3.55
480.485	3.6
480.686	3.62
480.888	3.74
481.09	3.78
481.292	3.82
481.494	3.95
481.695	3.91
481.897	3.9
482.099	3.81
482.301	3.89
482.502	3.99
482.704	4.12
482.906	4.12
483.107	4.16
483.309	4.19
483.511	4.12
483.712	4.08
483.914	4
484.115	3.99
484.317	4
484.519	3.98
484.72	4.01
484.922	3.99
485.123	3.94
485.325	3.95
485.526	3.88
485.728	3.95
485.929	3.93
486.131	3.97
486.332	4.01
486.534	4.04
486.735	4.07
486.936	4.02
487.138	4.08
487.339	4.16
487.541	4.05
487.742	4.02
487.943	3.96
488.144	3.89
488.346	3.96
488.547	3.88
488.748	3.87
488.95	3.91
489.151	3.91
489.352	3.78
489.553	3.68
489.755	3.71
489.956	3.78
490.157	3.86
490.358	3.96
490.559	3.93
490.76	3.98
490.961	3.95
491.163	3.84
491.364	3.84
491.565	3.93
491.766	3.97
491.967	3.98
492.168	3.97
492.369	3.92
492.57	3.88
492.771	3.79
492.972	3.76
493.173	3.77
493.374	3.79
493.575	3.76
493.776	3.67
493.976	3.6
494.177	3.53
494.378	3.43
494.579	3.38
494.78	3.44
494.981	3.39
495.182	3.41
495.382	3.51
495.583	3.54
495.784	3.46
495.985	3.5
496.185	3.5
496.386	3.7
496.587	3.74
496.788	3.79
496.988	3.79
497.189	3.82
497.39	3.95
497.59	3.92
497.791	4
497.992	4.12
498.192	4.17
498.393	4.27
498.593	4.25
498.794	4.46
498.994	4.41
499.195	4.38
499.395	4.58
499.596	4.59
499.796	4.53
499.997	4.49
500.197	4.44
500.398	4.31
500.598	4.32
500.799	4.36
500.999	4.21
501.199	4.36
501.4	4.45
501.6	4.42
501.801	4.26
502.001	4.34
502.201	4.37
502.402	4.58
502.602	4.84
502.802	4.7
503.002	4.55
503.203	4.55
503.403	4.5
503.603	4.36
503.803	4.17
504.003	4.16
504.204	4.19
504.404	4.18
504.604	4.07
504.804	3.97
505.004	4.2
505.204	4.3
505.404	4.24
505.604	4.3
505.804	4.56
506.005	4.83
506.205	4.78
506.405	4.74
506.605	4.63
506.805	4.62
507.005	4.57
507.204	4.53
507.404	4.55
507.604	4.63
507.804	4.59
508.004	4.28
508.204	4.25
508.404	4.36
508.604	4.42
508.804	4.53
509.003	4.5
509.203	4.56
509.403	4.52
509.603	4.58
509.803	4.46
510.002	4.48
510.202	4.82
510.402	4.8
510.602	4.76
510.801	4.64
511.001	4.6
511.201	4.74
511.4	4.77
511.6	4.74
511.8	4.57
511.999	4.65
512.199	4.54
512.398	4.31
512.598	4.44
512.797	4.47
512.997	4.53
513.197	4.65
513.396	4.73
513.596	4.8
513.795	4.84
513.994	4.89
514.194	4.89
514.393	4.88
514.593	4.95
514.792	4.79
514.992	4.84
515.191	4.97
515.39	5.09
515.59	5.13
515.789	5.14
515.988	5.16
516.188	5.1
516.387	5.13
516.586	5.17
516.786	5.22
516.985	5.22
517.184	5.32
517.383	5.31
517.582	5.15
517.782	5.11
517.981	5.07
518.18	5.07
518.379	5.22
518.578	5.27
518.777	5.35
518.976	5.44
519.176	5.46
519.375	5.33
519.574	5.43
519.773	5.47
519.972	5.42
520.171	5.45
520.37	5.36
520.569	5.41
520.768	5.34
520.967	5.31
521.166	5.01
521.365	5.04
521.564	5.09
521.762	4.97
521.961	4.9
522.16	4.98
522.359	4.86
522.558	4.98
522.757	4.87
522.956	4.99
523.154	5.03
523.353	5.13
523.552	5.18
523.751	5.29
523.949	5.24
524.148	5.26
524.347	5.26
524.546	5.44
524.744	5.46
524.943	5.54
525.142	5.61
525.34	5.8
525.539	5.86
525.737	5.91
525.936	5.97
526.135	6.1
526.333	6.26
526.532	6.25
526.73	6.28
526.929	6.23
527.127	6.22
527.326	6.19
527.524	6.12
527.723	6.18
527.921	6.15
528.12	6.15
528.318	6.11
528.516	6.05
528.715	6.08
528.913	6.1
529.112	6.23
529.31	6.29
529.508	6.28
529.707	6.31
529.905	6.31
530.103	6.29
530.301	6.3
530.5	6.37
530.698	6.41
530.896	6.46
531.094	6.51
531.293	6.45
531.491	6.48
531.689	6.6
531.887	6.56
532.085	6.66
532.283	6.8
532.481	6.85
532.68	6.78
532.878	6.73
533.076	6.71
533.274	6.79
533.472	6.77
533.67	6.76
533.868	6.71
534.066	6.8
534.264	6.73
534.462	6.72
534.66	6.76
534.858	6.92
535.056	6.94
535.253	6.99
535.451	6.91
535.649	6.99
535.847	7.06
536.045	7.18
536.243	7.26
536.441	7.45
536.638	7.39
536.836	7.45
537.034	7.35
537.232	7.49
537.43	7.51
537.627	7.55
537.825	7.52
538.023	7.48
538.22	7.51
538.418	7.48
538.616	7.33
538.813	7.53
539.011	7.47
539.209	7.72
539.406	7.82
539.604	8.04
539.801	8.11
539.999	8.16
540.196	8.18
540.394	8.22
540.591	8.14
540.789	8.28
540.986	8.23
541.184	8.25
541.381	8.16
541.579	8.12
541.776	8.03
541.974	8.08
542.171	8.08
542.368	8.18
542.566	8.19
542.763	8.37
542.96	8.36
543.158	8.46
543.355	8.51
543.552	8.51
543.75	8.68
543.947	8.83
544.144	8.84
544.341	8.83
544.539	8.87
544.736	8.84
544.933	8.82
545.13	8.96
545.327	8.96
545.524	9.07
545.722	9.18
545.919	9
546.116	8.97
546.313	9.09
546.51	9.29
546.707	9.36
546.904	9.35
547.101	9.41
547.298	9.4
547.495	9.42
547.692	9.49
547.889	9.52
548.086	9.6
548.283	9.57
548.48	9.56
548.677	9.51
548.874	9.51
549.07	9.6
549.267	9.55
549.464	9.5
549.661	9.5
549.858	9.54
550.055	9.64
550.251	9.87
550.448	9.99
550.645	9.9
550.842	10.09
551.038	10.07
551.235	10.4
551.432	10.53
551.628	10.6
551.825	10.75
552.022	10.77
552.218	10.7
552.415	10.56
552.612	10.59
552.808	10.76
553.005	10.84
553.201	11.04
553.398	10.98
553.594	10.9
553.791	10.89
553.987	10.83
554.184	10.82
554.38	10.96
554.577	11.13
554.773	11.33
554.97	11.29
555.166	11.21
555.362	11.26
555.559	11.36
555.755	11.68
555.952	11.95
556.148	12.18
556.344	12.45
556.541	12.54
556.737	12.72
556.933	12.66
557.129	12.68
557.326	12.83
557.522	12.78
557.718	12.84
557.914	12.73
558.11	12.8
558.307	12.68
558.503	12.52
558.699	12.42
558.895	12.41
559.091	12.37
559.287	12.31
559.483	12.33
559.679	12.48
559.876	12.33
560.072	12.48
560.268	12.39
560.464	12.52
560.66	12.71
560.856	12.8
561.052	12.75
561.247	12.8
561.443	12.93
561.639	12.92
561.835	12.91
562.031	13
562.227	12.96
562.423	13.06
562.619	13.25
562.815	13.24
563.01	13.43
563.206	13.62
563.402	13.7
563.598	14.01
563.793	14.19
563.989	14.06
564.185	14.19
564.381	14.24
564.576	14.2
564.772	13.91
564.968	13.99
565.163	13.84
565.359	13.88
565.555	14.21
565.75	14.19
565.946	14.28
566.141	14.44
566.337	14.42
566.532	14.37
566.728	14.35
566.923	14.48
567.119	14.41
567.314	14.58
567.51	14.57
567.705	14.32
567.901	14.39
568.096	14.32
568.292	14.45
568.487	14.64
568.682	14.78
568.878	14.9
569.073	15.04
569.268	15.44
569.464	15.46
569.659	15.51
569.854	15.66
570.05	15.74
570.245	15.82
570.44	15.94
570.635	15.78
570.831	15.75
571.026	16.03
571.221	16.06
571.416	16.01
571.611	16.14
571.806	16.24
572.002	16.22
572.197	16.2
572.392	16.2
572.587	16.23
572.782	16.48
572.977	16.67
573.172	16.59
573.367	16.71
573.562	16.57
573.757	16.58
573.952	16.45
574.147	16.56
574.342	16.71
574.537	16.81
574.732	16.62
574.927	16.58
575.121	16.59
575.316	16.82
575.511	16.85
575.706	17.02
575.901	17.04
576.096	17.1
576.29	17.19
576.485	17.14
576.68	17.09
576.875	17.4
577.069	17.36
577.264	17.27
577.459	17.07
577.654	16.9
577.848	16.75
578.043	16.74
578.238	16.89
578.432	16.92
578.627	16.88
578.821	17.02
579.016	16.66
579.21	16.66
579.405	16.84
579.6	16.85
579.794	17.24
579.989	17.62
580.183	17.68
580.378	18
580.572	18.12
580.766	18.22
580.961	18.26
581.155	18.46
581.35	18.46
581.544	18.39
581.738	18.66
581.933	18.61
582.127	18.36
582.321	18.16
582.516	17.68
582.71	17.57
582.904	17.67
583.099	17.43
583.293	17.56
583.487	17.67
583.681	17.45
583.875	17.41
584.07	17.12
584.264	17.28
584.458	17.4
584.652	17.89
584.846	17.94
585.04	18.21
585.234	18.39
585.428	18.47
585.623	18.55
585.817	18.78
586.011	18.77
586.205	18.97
586.399	19.01
586.593	18.93
586.787	18.68
586.981	18.84
587.174	18.08
587.368	18.21
587.562	18.28
587.756	18.24
587.95	18.29
588.144	17.93
588.338	17.9
588.532	17.7
588.725	17.94
588.919	17.85
589.113	17.84
589.307	18.39
589.501	18.26
589.694	18.23
589.888	18.24
590.082	18.25
590.275	18.59
590.469	18.74
590.663	18.95
590.856	19
591.05	19.01
591.244	18.77
591.437	18.52
591.631	18.7
591.824	18.73
592.018	18.73
592.212	18.48
592.405	18.23
592.599	18.22
592.792	18.42
592.986	18.62
593.179	18.91
593.372	18.84
593.566	19.16
593.759	19.25
593.953	19.15
594.146	19.36
594.339	19.71
594.533	19.72
594.726	19.93
594.92	19.55
595.113	19.52
595.306	19.34
595.499	19.6
595.693	19.59
595.886	19.58
596.079	19.7
596.272	19.81
596.466	19.91
596.659	20.09
596.852	19.98
597.045	20.11
597.238	20.08
597.431	20.33
597.624	20.36
597.818	20.26
598.011	20.09
598.204	19.96
598.397	19.79
598.59	19.83
598.783	19.85
598.976	19.94
599.169	19.93
599.362	19.84
599.555	19.78
599.748	19.69
599.941	19.68
600.134	19.98
600.326	20.15
600.519	20.42
600.712	20.08
600.905	20.13
601.098	20.11
601.291	20.23
601.483	20.25
601.676	20.33
601.869	20.36
602.062	20.66
602.255	20.5
602.447	20.45
602.64	20.2
602.833	20.4
603.025	20.37
603.218	20.41
603.411	20.34
603.603	20.43
603.796	20.52
603.989	20.53
604.181	20.44
604.374	20.66
604.566	20.69
604.759	20.85
604.951	20.84
605.144	20.79
605.336	20.74
605.529	20.82
605.721	20.87
605.914	20.68
606.106	20.73
606.299	20.77
606.491	20.77
606.683	20.69
606.876	20.53
607.068	20.47
607.26	20.58
607.453	20.38
607.645	20.44
607.837	20.42
608.03	20.49
608.222	20.65
608.414	20.57
608.606	20.36
608.799	20.45
608.991	20.43
609.183	20.73
609.375	20.85
609.567	20.92
609.759	20.9
609.952	20.98
610.144	20.96
610.336	20.72
610.528	20.78
610.72	21.12
610.912	21.15
611.104	21.34
611.296	21.17
611.488	20.93
611.68	21.03
611.872	21.26
612.064	21.05
612.256	20.98
612.448	21.09
612.64	21.1
612.832	20.53
613.023	20.7
613.215	20.57
613.407	20.46
613.599	20.43
613.791	20.37
613.983	20.1
614.174	19.91
614.366	19.95
614.558	19.98
614.75	19.89
614.941	20.42
615.133	20.17
615.325	19.78
615.516	19.9
615.708	20.53
615.9	20.75
616.091	20.64
616.283	21.13
616.475	21.24
616.666	21.23
616.858	21.29
617.049	20.87
617.241	21.11
617.432	21.25
617.624	21.22
617.815	20.55
618.007	20.12
618.198	20.15
618.39	20.3
618.581	20.15
618.773	20.47
618.964	20.53
619.155	20.97
619.347	20.57
619.538	20.53
619.729	20.31
619.921	20.73
620.112	20.96
620.303	21.23
620.494	20.81
620.686	20.82
620.877	20.39
621.068	20.43
621.259	19.97
621.451	20.19
621.642	20.3
621.833	20.51
622.024	20.32
622.215	20.62
622.406	20.51
622.597	20.56
622.788	20.9
622.98	21.28
623.171	21.09
623.362	21.42
623.553	21.48
623.744	21.68
623.935	21.86
624.126	22.14
624.317	22.02
624.508	22.16
624.698	22.19
624.889	22.15
625.08	22.21
625.271	22.1
625.462	21.84
625.653	21.76
625.844	21.65
626.034	21.47
626.225	21.42
626.416	21.42
626.607	21.42
626.798	21.59
626.988	21.39
627.179	21.41
627.37	21.55
627.56	21.66
627.751	21.68
627.942	21.7
628.132	21.61
628.323	21.61
628.514	21.64
628.704	21.5
628.895	21.49
629.085	21.75
629.276	21.64
629.466	21.55
629.657	21.51
629.847	21.42
630.038	21.85
630.228	22.12
630.419	21.92
630.609	22.07
630.8	22.07
630.99	22.27
631.181	21.82
631.371	21.61
631.561	21.56
631.752	21.74
631.942	21.93
632.132	21.7
632.323	21.77
632.513	21.72
632.703	21.52
632.893	21.64
633.084	21.46
633.274	21.89
633.464	21.89
633.654	22.06
633.844	22.06
634.034	22.02
634.225	21.95
634.415	21.72
634.605	21.7
634.795	21.78
634.985	21.68
635.175	21.7
635.365	21.65
635.555	21.86
635.745	21.87
635.935	21.21
636.125	21.16
636.315	21.04
636.505	21.11
636.695	21.4
636.885	21.45
637.075	21.73
637.265	22.01
637.455	21.94
637.644	22.12
637.834	22.02
638.024	22.66
638.214	22.77
638.404	22.61
638.593	22.83
638.783	22.92
638.973	22.8
639.163	22.34
639.352	21.79
639.542	21.67
639.732	21.43
639.921	21.18
640.111	21.19
640.301	21.12
640.49	21.39
640.68	21.46
640.87	21.57
641.059	21.57
641.249	22.2
641.438	22.32
641.628	22.34
641.817	22.14
642.007	22.21
642.196	22.2
642.386	22.29
642.575	22.22
642.764	22.16
642.954	22.18
643.143	22.11
643.333	21.85
643.522	21.9
643.711	21.74
643.901	22.02
644.09	22.14
644.279	22.16
644.469	22.18
644.658	22.64
644.847	22.79
645.036	22.66
645.226	22.44
645.415	22.5
645.604	22.48
645.793	22.54
645.982	22.48
646.171	22.71
646.361	22.49
646.55	22.15
646.739	21.8
646.928	21.51
647.117	21.31
647.306	21.46
647.495	21.58
647.684	21.73
647.873	21.8
648.062	22.02
648.251	21.84
648.44	22.36
648.629	22.39
648.818	22.5
649.007	22.41
649.196	22.39
649.384	22.37
649.573	21.81
649.762	21.64
649.951	21.7
650.14	21.39
650.328	21.49
650.517	21.29
650.706	21.48
650.895	21.25
651.083	21.66
651.272	21.79
651.461	21.68
651.65	22.4
651.838	22.54
652.027	22.73
652.216	22.6
652.404	22.66
652.593	22.38
652.781	22.26
652.97	22.41
653.158	22.22
653.347	22.26
653.535	22.78
653.724	22.32
653.912	22.29
654.101	22.12
654.289	22.27
654.478	22.55
654.666	22.85
654.855	23.18
655.043	23.12
655.231	22.91
655.42	22.75
655.608	22.87
655.796	22.8
655.985	22.55
656.173	22.86
656.361	22.44
656.55	22.11
656.738	22.44
656.926	22.34
657.114	22.46
657.302	22.81
657.491	23
657.679	22.49
657.867	22.69
658.055	22.86
658.243	22.6
658.431	23.51
658.619	23.63
658.807	23.12
658.996	23.63
659.184	23.88
659.372	23.66
659.56	23.59
659.748	23.76
659.936	23.48
660.124	23.61
660.311	23.75
660.499	23.01
660.687	22.77
660.875	23.14
661.063	22.79
661.251	22.68
661.439	22.7
661.627	22.59
661.814	22.54
662.002	22.82
662.19	22.69
662.378	22.75
662.565	22.93
662.753	23.41
662.941	23.23
663.129	23.05
663.316	22.85
663.504	22.95
663.692	22.89
663.879	23
664.067	22.95
664.254	23
664.442	22.8
664.63	23.05
664.817	22.38
665.005	22.59
665.192	22.53
665.38	22.75
665.567	22.66
665.755	23.04
665.942	23.05
666.13	23.18
666.317	23.08
666.504	22.65
666.692	22.49
666.879	22.53
667.067	22.18
667.254	22.28
667.441	22.14
667.629	21.89
667.816	22.09
668.003	22.11
668.19	22.38
668.378	22.64
668.565	23.33
668.752	23.66
668.939	23.98
669.127	24.05
669.314	23.92
669.501	24.24
669.688	24.3
669.875	24.32
670.062	23.9
670.249	23.46
670.436	23.09
670.623	22.4
670.81	22.33
670.997	22.17
671.184	22.15
671.371	22.32
671.558	21.9
671.745	22.36
671.932	22.02
672.119	22.83
672.306	22.64
672.493	23.1
672.68	23.3
672.867	23.7
673.054	23.78
673.24	23.82
673.427	23.76
673.614	24.01
673.801	23.43
673.988	23.81
674.174	23.3
674.361	23.76
674.548	23.82
674.734	24.51
674.921	24.06
675.108	24.48
675.294	24.25
675.481	24.14
675.668	23.87
675.854	24.31
676.041	24.13
676.227	24.1
676.414	24.19
676.601	24.27
676.787	23.62
676.974	23.42
677.16	22.8
677.347	23.37
677.533	23.44
677.719	23.54
677.906	23.58
678.092	23.74
678.279	23.75
678.465	23.39
678.651	22.95
678.838	23.39
679.024	23.51
679.21	23.65
679.397	23.39
679.583	23.61
679.769	23.42
679.955	23.28
680.142	22.76
680.328	23.19
680.514	23.42
680.7	23.23
680.886	23.14
681.073	23.66
681.259	23.95
681.445	24.27
681.631	24.22
681.817	24.26
682.003	24.45
682.189	24.68
682.375	24.09
682.561	24.07
682.747	24.17
682.933	23.88
683.119	23.04
683.305	22.6
683.491	21.96
683.677	22.05
683.863	22.08
684.049	21.9
684.235	21.79
684.42	22.15
684.606	22.16
684.792	22.51
684.978	22.58
685.164	22.51
685.349	22.83
685.535	23.16
685.721	22.77
685.907	22.83
686.092	23.29
686.278	23.43
686.464	23.36
686.649	23.11
686.835	23.1
687.021	23.4
687.206	23.75
687.392	23.54
687.577	23.72
687.763	24.21
687.948	24.32
688.134	23.89
688.319	23.61
688.505	23.76
688.69	23.85
688.876	24.06
689.061	24.15
689.247	24.43
689.432	24.64
689.618	24.74
689.803	24.27
689.988	23.75
690.174	23.62
690.359	23.88
690.544	23.88
690.73	23.95
690.915	23.91
691.1	23.48
691.285	22.86
691.471	22.64
691.656	21.78
691.841	21.82
692.026	22.06
692.211	21.83
692.396	21.86
692.582	21.9
692.767	21.88
692.952	21.73
693.137	21.68
693.322	22.15
693.507	22.11
693.692	22.78
693.877	22.7
694.062	22.65
694.247	23.29
694.432	23.3
694.617	22.84
694.802	22.69
694.987	22.67
695.172	23.24
695.357	22.99
695.541	22.83
695.726	22.79
695.911	23.08
696.096	23.61
696.281	23.18
696.466	23.5
696.65	24.02
696.835	24.31
697.02	24.27
697.204	24.33
697.389	24.47
697.574	24.7
697.759	24.78
697.943	24.77
698.128	24.19
698.312	24.29
698.497	23.84
698.682	23.81
698.866	23.7
699.051	23.62
699.235	23.26
699.42	23.33
699.604	23.37
699.789	23.5
699.973	23.24
700.158	23.6
700.342	24.05
700.527	24.31
700.711	24.01
700.895	23.97
701.08	23.65
701.264	23.85
701.448	24.21
701.633	24.21
701.817	23.97
702.001	24.5
702.186	24.13
702.37	23.74
702.554	23.67
702.738	24.1
702.923	24.09
703.107	24.63
703.291	24.25
703.475	23.21
703.659	23.26
703.843	22.86
704.027	22.89
704.212	22.52
704.396	22.76
704.58	23.07
704.764	23.04
704.948	22.77
705.132	22.57
705.316	22.48
705.5	22.89
705.684	22.86
705.868	24.02
706.052	23.74
706.235	24
706.419	23.39
706.603	22.34
706.787	21.75
706.971	21.44
707.155	21.16
707.339	21.88
707.522	21.86
707.706	21.85
707.89	21.16
708.074	20.75
708.257	21.24
708.441	20.84
708.625	21.39
708.808	21.41
708.992	22.27
709.176	22.44
709.359	23.1
709.543	23.65
709.727	23.92
709.91	24.3
710.094	24.13
710.277	23.61
710.461	23.89
710.644	24.83
710.828	24.06
711.011	23.5
711.195	23.67
711.378	23.24
711.562	22.57
711.745	22.25
711.928	21.74
712.112	21.88
712.295	22.3
712.478	22.51
712.662	22.25
712.845	23.27
713.028	23.95
713.212	24.33
713.395	24.41
713.578	24.72
713.761	24.74
713.945	25.52
714.128	25.33
714.311	25.53
714.494	24.88
714.677	24.83
714.86	24.26
715.043	24.25
715.227	23.24
715.41	23.09
715.593	23.07
715.776	23.39
715.959	22.69
716.142	23.41
716.325	23.81
716.508	24.36
716.691	23.48
716.874	24.94
717.057	24.04
717.239	24.76
717.422	24.5
717.605	24.38
717.788	24.38
717.971	24.01
718.154	23.22
718.337	22.58
718.519	22.96
718.702	23.62
718.885	21.83
719.068	22.03
719.25	21.31
719.433	22.08
719.616	22.12
719.798	20.96
719.981	21.59
720.164	22.08
720.346	22.61
720.529	22.54
720.712	22.77
720.894	24.13
721.077	24.47
721.259	25.15
721.442	24.22
721.624	24.64
721.807	25.24
721.989	23.76
722.172	23.58
722.354	23.15
722.537	23.68
722.719	22.71
722.901	22.43
723.084	22.2
723.266	22.18
723.448	21.75
723.631	21.07
723.813	21.62
723.995	23.11
724.178	23.54
724.36	23.67
724.542	23.4
724.724	23.96
724.907	22.92
725.089	23.74
725.271	23.74
725.453	24.27
725.635	24.32
725.817	23.43
725.999	23.93
726.181	22.92
726.364	23.21
726.546	22.36
726.728	22.75
726.91	23.68
727.092	23.19
727.274	23.46
727.456	23.33
727.638	23.41
727.819	24.49
728.001	24.2
728.183	24.64
728.365	24.62
728.547	24.75
728.729	24.65
728.911	25.04
729.093	25.21
729.274	25.75
729.456	26.78
729.638	27.39
729.82	28
730.001	27.78
730.183	27.96
730.365	27.36
730.546	27.46
730.728	27.74
730.91	27.41
731.091	26.9
731.273	25.99
731.455	24.56
731.636	24.31
731.818	23.69
731.999	23.54
732.181	24.45
732.362	24.57
732.544	22.59
732.725	22.88
732.907	21.77
733.088	22.17
733.27	22.33
733.451	22.89
733.633	22.43
733.814	21.4
733.995	21.39
734.177	21.57
734.358	21.11
734.539	23.47
734.721	23.83
734.902	25.11
735.083	25.45
735.264	26.3
735.446	26.05
735.627	26.06
735.808	26.96
735.989	27.03
736.17	25.99
736.351	26.14
736.533	26.07
736.714	24.69
736.895	23.24
737.076	23.02
737.257	21.76
737.438	21.57
737.619	21.83
737.8	21.86
737.981	22.48
738.162	22.37
738.343	23.42
738.524	24.07
738.705	24.63
738.886	25.37
739.067	25.77
739.247	26.6
739.428	26.69
739.609	26.61
739.79	26.24
739.971	25.57
740.151	26.23
740.332	25.07
740.513	24.11
740.694	23.77
740.874	23.73
741.055	23.94
741.236	24.64
741.417	25.18
741.597	25.42
741.778	24.41
741.958	25.27
742.139	24.45
742.32	25.8
742.5	26.47
742.681	26.57
742.861	25.77
743.042	24.31
743.222	22.89
743.403	21.65
743.583	20.16
743.764	20.49
743.944	19.38
744.124	19.87
744.305	18.79
744.485	19.45
744.666	19.51
744.846	21.41
745.026	22.07
745.207	20.49
745.387	21.85
745.567	22.99
745.747	24.21
745.928	24.2
746.108	24.54
746.288	24.64
746.468	22.34
746.648	22.84
746.829	21.33
747.009	20.8
747.189	22.56
747.369	22.15
747.549	22.74
747.729	22.66
747.909	22.46
748.089	23.07
748.269	22.53
748.449	23.61
748.629	23.23
748.809	23.8
748.989	24.45
749.169	24.87
749.349	24.58
749.529	23.49
749.709	22.76
749.889	22.46
750.068	22.35
750.248	22.49
750.428	21.93
750.608	21.4
750.788	21.7
750.967	22.69
751.147	22.07
751.327	22.29
751.507	22.41
751.686	22.2
751.866	23.13
752.046	21.05
752.225	21.38
752.405	22.49
752.585	23.67
752.764	22.99
752.944	22.44
753.123	23.24
753.303	23.34
753.482	24.82
753.662	25.12
753.841	24.66
754.021	25.48
754.2	26.26
754.38	24.38
754.559	23.22
754.739	21.34
754.918	20.81
755.097	20.58
755.277	20.02
755.456	19.46
755.635	20.26
755.815	22.01
755.994	20.99
756.173	19.35
756.352	20.47
756.532	20.59
756.711	23.26
756.89	23.06
757.069	23.84
757.248	24.07
757.427	22.79
757.607	22.37
757.786	21.59
757.965	22.68
758.144	23.93
758.323	23.86
758.502	22.54
758.681	22.55
758.86	22.69
759.039	21.92
759.218	20.99
759.397	21.08
759.576	20.75
759.755	20.64
759.934	20.41
760.113	21.15
760.291	21.54
760.47	22.81
760.649	24.04
760.828	23.09
761.007	23.1
761.186	24.79
761.364	26.09
761.543	26.07
761.722	25.18
761.901	25.4
762.079	25.43
762.258	26.55
762.437	26.9
762.615	25.92
762.794	27.19
762.972	26.86
763.151	26.81
763.33	26.88
763.508	26.84
763.687	26.99
763.865	27.36
764.044	27.18
764.222	26.32
764.401	26.01
764.579	25.26
764.758	24.84
764.936	24.04
765.114	23.81
765.293	23.89
765.471	24.12
765.65	24.5
765.828	23.82
766.006	22.18
766.184	22.27
766.363	22.15
766.541	21.98
766.719	20.42
766.898	20.45
767.076	20.46
767.254	19.64
767.432	19.88
767.61	19.2
767.788	19.04
767.967	19.89
768.145	18.61
768.323	19.1
768.501	19.48
768.679	21.54
768.857	21.58
769.035	21.26
769.213	20.62
769.391	19.74
769.569	20.34
769.747	20.47
769.925	19.82
770.103	21.26
770.281	21.18
770.459	20.57
770.636	20.73
770.814	21.57
770.992	22.07
771.17	22.03
771.348	22.08
771.525	21.45
771.703	21.15
771.881	21.25
772.059	21.85
772.236	19.82
772.414	21.16
772.592	22.08
772.769	21.75
772.947	22.62
773.125	23.96
773.302	22.97
773.48	23.37
773.657	23.31
773.835	24.9
774.013	22.38
774.19	24.83
774.368	24.73
774.545	21.72
774.723	22.57
774.9	20.48
775.077	17.7
775.255	19.32
775.432	22.13
775.61	22.85
775.787	21.88
775.964	24.56
776.142	24.43
776.319	23.7
776.496	25.6
776.674	24.59
776.851	24.06
777.028	24.78
777.205	27
777.382	25.51
777.56	23.58
777.737	22.61
777.914	21.56
778.091	19.07
778.268	19.94
778.445	18.29
778.622	20.57
778.8	21.96
778.977	23.07
779.154	19.28
779.331	16.66
779.508	18.71
779.685	18.34
779.862	17.9
780.038	18.81
780.215	17.33
780.392	16.43
780.569	13.6
780.746	10.56
780.923	8.5
781.1	9.97
781.277	11.07
781.453	12.08
781.63	13.45
781.807	13.86
781.984	14.84
782.16	18.26
782.337	18.88
782.514	18.97
782.691	21.89
782.867	23.4
783.044	24.84
783.221	25.72
783.397	23.72
783.574	25.3
783.75	25.79
783.927	24.73
784.103	24.11
784.28	24.94
784.456	24.87
784.633	25.52
784.809	25.1
784.986	23.3
785.162	24.55
785.339	26.2
785.515	22.77
785.692	24.31
785.868	20.67
786.044	20.92
786.221	22.44
786.397	22.36
786.573	21.69
786.749	23.36
786.926	25.29
787.102	21.8
787.278	21.66
787.454	22.35
787.631	20.68
787.807	24.04
787.983	22.82
788.159	23
788.335	24.6
788.511	25.71
788.687	25.99
788.863	23.26
789.039	25.07
789.216	25.69
789.392	26.33
789.568	26.49
789.744	24.69
789.919	24.94
790.095	20.57
790.271	21.18
790.447	22.1
790.623	20.96
790.799	23.23
790.975	22.26
791.151	20.1
791.327	19.39
791.502	16.64
791.678	16.74
791.854	16
792.03	19.95
792.205	20.63
792.381	17.68
792.557	17.32
792.733	15.79
792.908	17.53
793.084	18.27
793.259	22.01
793.435	24.78
793.611	25.9
793.786	26.84
793.962	27.96
794.137	29.48
794.313	29.71
794.488	27.69
794.664	27.36
794.839	25.48
795.015	25.34
795.19	22.22
795.366	20.2
795.541	17.93
795.716	17.93
795.892	14.6
796.067	12.88
796.242	12.87
796.418	14.94
796.593	16.63
796.768	18.81
796.944	18.54
797.119	19.4
797.294	20.64
797.469	23.42
797.644	23.69
797.82	29.78
797.995	27.5
798.17	26.87
798.345	25.87
798.52	25.35
798.695	23.32
798.87	25.41
799.045	25.03
799.22	24.26
799.395	23.14
799.57	21.16
799.745	18.49
799.92	19.78
800.095	22.51
800.27	23.57
800.445	22.25
800.62	22.24
800.795	22.42
800.97	23.22
801.145	24.13
801.319	22.75
801.494	21.84
801.669	20.52
801.844	19.39
802.018	17.93
802.193	18.39
802.368	17.44
802.543	17.19
802.717	15.76
802.892	15.45
803.067	13.57
803.241	15.59
803.416	18.58
803.59	18.86
803.765	22.51
803.94	23.44
804.114	25.08
804.289	24.44
804.463	28.28
804.638	30.91
804.812	28.5
804.986	29.47
805.161	28.65
805.335	29.81
805.51	31.27
805.684	30.98
805.858	29.99
806.033	26.74
806.207	28.74
806.381	27.04
806.556	26.6
806.73	27.98
806.904	26.23
807.078	25.51
807.253	22.65
807.427	20.33
807.601	17.3
807.775	11.78
807.949	10.36
808.123	7.02
808.298	1.31
808.472	-2.85
808.646	-0.79
808.82	4.94
808.994	4.08
809.168	6.09
809.342	7.41
809.516	8.09
809.69	13.02
809.864	14.63
810.038	16.55
810.212	20.05
810.385	20.12
810.559	19.22
810.733	17.08
810.907	14.42
811.081	10.57
811.255	10.14
811.428	10.1
811.602	13.37
811.776	15.67
811.95	17.96
812.123	20.8
812.297	22.32
812.471	19.92
812.644	21.43
812.818	27.19
812.992	30.01
813.165	28.55
813.339	31.58
813.512	28.72
813.686	25.51
813.86	24.85
814.033	21.37
814.207	18.5
814.38	23.56
814.554	14.16
814.727	7.81
814.9	8.94
815.074	11.1
815.247	9.12
815.421	12.15
815.594	14.08
815.767	12.35
815.941	8.97
816.114	11.58
816.287	8.79
816.46	15.66
816.634	18.56
816.807	14.94
816.98	14.7
817.153	9.92
817.327	10.67
817.5	6.67
817.673	6.39
817.846	13.43
818.019	13.45
818.192	11.44
818.365	11.91
818.538	9.34
818.711	15.06
818.884	11.92
819.057	16.33
819.23	13.49
819.403	14.51
819.576	16.64
819.749	15.48
819.922	13.94
820.095	17.59
820.268	16.47
820.441	18.33
820.614	17.95
820.786	20.83
820.959	21.23
821.132	22.65
821.305	24.12
821.477	25.1
821.65	24.79
821.823	25.59
821.996	23.82
822.168	24.59
822.341	24.52
822.514	24.04
822.686	24.87
822.859	24.81
823.031	24.67
823.204	25.33
823.376	24.69
823.549	24.91
823.722	25.33
823.894	25.93
824.067	26.26
824.239	27.34
824.411	27.3
824.584	27.63
824.756	26.35
824.929	27.53
825.101	26.35
825.273	27.14
825.446	28.04
825.618	27.87
825.79	27.79
825.963	26.48
826.135	24.81
826.307	25.86
826.479	24.33
826.652	25.88
826.824	24.56
826.996	25.43
827.168	24.56
827.34	22.2
827.512	21.04
827.684	21.48
827.856	21.73
828.029	21.23
828.201	19.72
828.373	20.87
828.545	20.6
828.717	19.79
828.889	18.73
829.061	17.9
829.232	18.43
829.404	20.81
829.576	22.04
829.748	21.18
829.92	23.46
830.092	25.34
830.264	23.83
830.436	24.94
830.607	24.98
830.779	24.52
830.951	25.76
831.123	23.69
831.294	21.33
831.466	18.7
831.638	21.03
831.809	19.11
831.981	14.63
832.153	11.32
832.324	9.32
832.496	11.46
832.667	9.41
832.839	6.3
833.011	11.01
833.182	12.39
833.354	12.71
833.525	11.41
833.697	11.76
833.868	15.01
834.039	17.62
834.211	18.02
834.382	18.39
834.554	20.21
834.725	21.51
834.896	22.3
835.068	20.36
835.239	19
835.41	18.88
835.581	17.98
835.753	16.89
835.924	16.88
836.095	15.33
836.266	15.05
836.438	12.57
836.609	12.94
836.78	12.75
836.951	14.02
837.122	18.97
837.293	19.36
837.464	19.7
837.635	21.39
837.806	22.04
837.977	22.01
838.148	17.7
838.319	19.7
838.49	19.22
838.661	18.07
838.832	18.06
839.003	16.38
839.174	13.8
839.345	16.81
839.516	15.94
839.687	14.33
839.857	13.66
840.028	13.31
840.199	14.96
840.37	11.45
840.54	9.09
840.711	8.21
840.882	7.16
841.053	8.15
841.223	5.13
841.394	6.11
841.564	0.47
841.735	2.55
841.906	6.11
842.076	7.8
842.247	13.67
842.417	16.12
842.588	15.06
842.758	9.5
842.929	5.64
843.099	6.67
843.27	6.76
843.44	8.2
843.611	8.65
843.781	18.48
843.951	12.97
844.122	-2.29
844.292	-0.85
844.462	3.84
844.633	10.61
844.803	18.33
844.973	20.91
845.144	15.81
845.314	21.07
845.484	19.92
845.654	3.73
845.824	2.46
845.995	13.33
846.165	16.33
846.335	7.8
846.505	5.28
846.675	3.23
846.845	4.94
847.015	6.58
847.185	8.57
847.355	11
847.525	13.96
847.695	14.72
847.865	10.07
848.035	7.99
848.205	10.06
848.375	6.39
848.545	9.39
848.715	6.62
848.884	11.38
849.054	4.1
849.224	-5.7
849.394	-15.25
849.564	-9.06
849.733	0.69
849.903	4.6
850.073	6.74
850.243	6.26
850.412	-10.35
850.582	-19
850.752	-33.6
850.921	-24.69
851.091	-17.38
851.26	-6.98
851.43	-17.24
851.599	-25.74
851.769	-26.88
851.939	-18.23
852.108	-23.95
852.278	-3.84
852.447	5.69
852.616	1.2
852.786	-4.46
852.955	6.82
853.125	17.71
853.294	32.01
853.463	42.82
853.633	46.64
853.802	48.8
853.971	62.91
854.141	50.16
854.31	51.34
854.479	70.16
854.648	69.53
854.818	49.64
854.987	30.48
855.156	17.3
855.325	-8.23
855.494	-17.78
855.663	-14.93
855.832	-20.19
856.001	-16.28
856.171	-35.63
856.34	-53.76
856.509	-79.8
856.678	-71.81
856.847	-47.56
857.016	-29.96
857.185	6.91
857.353	-14.72
857.522	-23.62
857.691	-33.59
857.86	-18.27
858.029	-2.56
858.198	7.6
858.367	16.56
858.535	24.42
858.704	27.42
858.873	20.15
859.042	10.76
859.21	3.66
859.379	-9.25
859.548	-7.26
859.717	-6.74
859.885	-25.72
860.054	-32.27
860.222	-62.94
860.391	-75.73
860.56	-90.88
860.728	-82.81
860.897	-86.98
861.065	-69.08
861.234	-41.62
861.402	-45.74
861.571	-48.2
861.739	-33.09
861.908	-36.73
862.076	-30.46
862.244	-16.62
862.413	-12.17
862.581	-16.61
862.749	-42.31
862.918	-53.75
863.086	-148.39
863.254	-146.11
863.423	-175.16
863.591	-149.14
863.759	-109.78
863.927	-71.25
864.096	-45.47
864.264	-79.1
864.432	-86.97
864.6	-49.28
864.768	-39.34
864.936	-32.21
865.104	-37.62
865.272	-35.4
865.44	-47.35
865.608	-63.56
865.776	-67.68
865.944	-74.63
866.112	-42.25
866.28	-24.19
866.448	-40.42
866.616	-31.79
866.784	0.94
866.952	2.12
867.12	-6.73
867.288	-4.63
867.455	-12.74
867.623	-18.98
867.791	-18.31
867.959	-39.35
868.127	-4.8
868.294	-2.58
868.462	-8.85
868.63	-43.53
868.797	-22.81
868.965	4.28
869.133	-1.92
869.3	5.26
869.468	14
869.636	8.66
869.803	11.88
869.971	-16.57
870.138	-2.46
870.306	1.8
870.473	-9.93
870.641	-13.1
870.808	-25.05
870.975	-14.59
871.143	-31.45
871.31	-56.01
871.478	-62.2
871.645	-56.65
871.812	4.12
871.98	8.97
872.147	9.52
872.314	11.92
872.482	18.25
872.649	13.88
872.816	25.66
872.983	38.33
873.15	26.5
873.318	21.01
873.485	15.06
873.652	-15.97
873.819	-25.37
873.986	-31.39
874.153	-24.73
874.32	-25.74
874.487	-23.28
874.654	-36.17
874.821	-53.94
874.988	-48.33
875.155	-74.8
875.322	-45.78
875.489	-25.02
875.656	-10.92
875.823	-11.35
875.99	0.52
876.157	-2.49
876.324	-0.38
876.49	-7.54
876.657	-5.56
876.824	3.05
876.991	16.69
877.157	15.57
877.324	18.85
877.491	14.14
877.658	18.54
877.824	19.2
877.991	23.47
878.157	12.6
878.324	17.46
878.491	21.13
878.657	14.24
878.824	11.8
878.99	-3.88
879.157	-2.86
879.323	5.55
879.49	-4.55
879.656	-22.92
879.823	-33.59
879.989	-23.3
880.156	-25.77
880.322	1.02
880.488	2.45
880.655	4.87
880.821	13.98
880.987	9.84
881.154	15.66
881.32	14.06
881.486	16.99
881.652	14.78
881.819	21.65
881.985	25.01
882.151	17.91
882.317	15.79
882.483	13.77
882.649	15.59
882.816	14.6
882.982	11.64
883.148	15.68
883.314	17.67
883.48	15.29
883.646	18.27
883.812	14.73
883.978	17.09
884.144	19.52
884.31	21.2
884.476	20.24
884.642	19.86
884.807	20.08
884.973	19.88
885.139	16.75
885.305	16.67
885.471	12.79
885.637	13.08
885.802	8
885.968	6.67
886.134	-0.36
886.3	-0.67
886.465	-0.43
886.631	-5.52
886.797	-8.32
886.962	-7.44
887.128	-3.63
887.293	4.36
887.459	6.32
887.625	7.03
887.79	10.86
887.956	14.76
888.121	17.73
888.287	18.06
888.452	28.28
888.618	27.8
888.783	33.73
