Data from 2937837_Reflection_1.txt Node
Date: Wed Jul 15 16:27:46 EDT 2015
User: robert
Spectrometer: USB4E03001
Autoset integration time: false
Trigger mode: 4
Integration Time (sec): 1.000000E-1
Scans to average: 10
Electric dark correction enabled: true
Nonlinearity correction enabled: false
Boxcar width: 5
Stray light correction enabled: false
XAxis mode: Wavelengths
Stop averaging: false
Number of Pixels in Spectrum: 3648
>>>>>Begin Spectral Data<<<<<
177.566	-296.49
177.785	-244.83
178.005	-194.21
178.225	-187.8
178.445	-202.43
178.665	-232.49
178.885	-102.62
179.105	-91
179.324	-269.33
179.544	-267.38
179.764	-239.38
179.984	-276.24
180.204	-306.56
180.423	-150.66
180.643	-217.68
180.863	-155.65
181.083	-151.8
181.302	-163.2
181.522	-220.16
181.742	-196.98
181.961	-298.44
182.181	135.8
182.401	100.17
182.621	204.95
182.84	80.8
183.06	80.95
183.279	85.08
183.499	98.71
183.719	90.36
183.938	124.12
184.158	249.76
184.377	1418.89
184.597	-4295.12
184.816	-358.3
185.036	-508.19
185.256	-148.35
185.475	-286.78
185.695	-593.99
185.914	-382.38
186.134	-11814.29
186.353	412.85
186.572	704.42
186.792	355.07
187.011	1343.73
187.231	185.48
187.45	143.06
187.67	149.81
187.889	140.54
188.108	101.85
188.328	-74.82
188.547	108.45
188.766	-293.79
188.986	604.12
189.205	321.41
189.424	448.62
189.644	-79.93
189.863	-121.84
190.082	-46.38
190.302	-90.62
190.521	-45.44
190.74	-132.42
190.959	-57.27
191.178	39.2
191.398	1.62
191.617	-4.32
191.836	-29.47
192.055	-224.36
192.274	-202.13
192.494	-133.1
192.713	-230.48
192.932	-282.53
193.151	-444.44
193.37	350
193.589	301
193.808	241.84
194.027	169.7
194.246	147.95
194.465	125.95
194.685	117.87
194.904	85.19
195.123	47.18
195.342	58.68
195.561	102.57
195.78	-166.27
195.999	-60.54
196.218	10.01
196.436	-13.05
196.655	-38.88
196.874	-34.99
197.093	-430.42
197.312	-223.68
197.531	579.51
197.75	-335.24
197.969	-1522.39
198.188	152.97
198.407	72.44
198.625	89.42
198.844	109.39
199.063	81.35
199.282	139.26
199.501	-425.81
199.719	-125.66
199.938	-196.33
200.157	681.31
200.376	-196.69
200.594	-4.64
200.813	-70.51
201.032	-66.15
201.251	10.8
201.469	-20.42
201.688	-17.69
201.907	-23.95
202.125	-337.14
202.344	245.28
202.563	1268.56
202.781	-1970.76
203	1098.45
203.218	632.16
203.437	808.75
203.656	9375.41
203.874	-1642.89
204.093	2206.34
204.311	-33488.24
204.53	-1250.24
204.748	-27.49
204.967	-38.06
205.185	-91.98
205.404	-131.19
205.622	-184.69
205.841	-79.92
206.059	-0.67
206.278	44.32
206.496	17.49
206.715	-44.82
206.933	-52.94
207.151	-110.34
207.37	-75.97
207.588	-96.2
207.806	-136.54
208.025	21.63
208.243	389.8
208.461	-303.26
208.68	442.86
208.898	66.59
209.116	29.06
209.335	146.1
209.553	-94.74
209.771	-5.98
209.989	26.31
210.208	-8.58
210.426	-328.07
210.644	-304.27
210.862	248.47
211.081	1732.73
211.299	-8966.67
211.517	56.54
211.735	-651.55
211.953	288.75
212.171	57.97
212.39	-532.84
212.608	247.93
212.826	625.36
213.044	251.52
213.262	-268.67
213.48	222.84
213.698	270.93
213.916	114.44
214.134	975.38
214.352	267.55
214.57	193.88
214.788	126.2
215.006	63.17
215.224	127.52
215.442	176.36
215.66	751.47
215.878	211.4
216.096	324.29
216.314	-204.49
216.532	-391.41
216.75	-24.48
216.968	62.44
217.185	58.15
217.403	18
217.621	41.17
217.839	45.15
218.057	36.95
218.275	146.98
218.492	23.44
218.71	-40.18
218.928	12.16
219.146	9.1
219.363	-101.3
219.581	-47.51
219.799	-23.46
220.017	-8.36
220.234	33.86
220.452	58.39
220.67	87.15
220.887	107.52
221.105	124.92
221.323	226.82
221.54	126.97
221.758	102.67
221.976	101.27
222.193	99.41
222.411	94.6
222.629	94.04
222.846	89.8
223.064	46.73
223.281	63.54
223.499	55.42
223.716	35.8
223.934	59.88
224.151	50.79
224.369	64.7
224.586	68.34
224.804	62.81
225.021	57.21
225.239	56.37
225.456	61.81
225.674	48.33
225.891	45.7
226.108	29.65
226.326	23.93
226.543	27.68
226.76	32.02
226.978	25.96
227.195	22.59
227.413	27.71
227.63	19.15
227.847	21.42
228.064	12.11
228.282	14.05
228.499	18.59
228.716	16.07
228.934	20.04
229.151	18.54
229.368	22.22
229.585	22.56
229.802	18.28
230.02	16.93
230.237	15.72
230.454	18
230.671	18.86
230.888	16.5
231.105	21.59
231.323	20.79
231.54	16.82
231.757	9.99
231.974	11.57
232.191	20.16
232.408	21.51
232.625	18.11
232.842	21.52
233.059	18.55
233.276	22.72
233.493	14.08
233.71	7.58
233.927	5.2
234.144	10.1
234.361	-0.5
234.578	0.04
234.795	12.17
235.012	14.64
235.229	11.46
235.446	10.68
235.663	14.1
235.879	22.5
236.096	21.53
236.313	21.43
236.53	21.41
236.747	30.08
236.964	25.2
237.181	12.28
237.397	8.11
237.614	13.55
237.831	17.85
238.048	17.87
238.264	17.66
238.481	19.55
238.698	26
238.915	29.39
239.131	24.51
239.348	25.53
239.565	24.04
239.781	27.22
239.998	19.1
240.215	19.33
240.431	16.66
240.648	15.54
240.865	16.23
241.081	15.33
241.298	13.39
241.514	13.56
241.731	12.78
241.947	13.84
242.164	12
242.38	14.42
242.597	14.03
242.814	13.3
243.03	11.84
243.246	11.4
243.463	9.1
243.679	9.27
243.896	8.69
244.112	10.26
244.329	8.83
244.545	8.82
244.762	5.3
244.978	7.06
245.194	9.33
245.411	9.88
245.627	9.94
245.843	13.24
246.06	11.8
246.276	11.91
246.492	11.25
246.709	12.68
246.925	12.27
247.141	13.09
247.357	12.69
247.574	12.29
247.79	12.85
248.006	13.93
248.222	12.79
248.439	12.44
248.655	12.44
248.871	11.48
249.087	10.84
249.303	11.26
249.519	12.5
249.736	12.73
249.952	11.8
250.168	13.14
250.384	13.43
250.6	15.34
250.816	18.16
251.032	20.05
251.248	20.32
251.464	21.42
251.68	21.18
251.896	20.49
252.112	19.59
252.328	20.65
252.544	19.83
252.76	18.62
252.976	16.95
253.192	15.1
253.408	13.75
253.624	16.2
253.84	13.44
254.056	14.12
254.272	15.28
254.487	14.27
254.703	13.34
254.919	10.74
255.135	6.82
255.351	6.45
255.567	6.14
255.782	6.47
255.998	6.29
256.214	10.19
256.43	11.71
256.646	10.38
256.861	9.28
257.077	9.07
257.293	12.34
257.508	11.11
257.724	13.72
257.94	12.27
258.155	10.09
258.371	8.84
258.587	9.2
258.802	7.88
259.018	7.3
259.234	8.13
259.449	9.06
259.665	7.39
259.88	9.06
260.096	8.5
260.312	8.76
260.527	9.09
260.743	9.24
260.958	9.28
261.174	10.31
261.389	10.69
261.605	9.69
261.82	8.97
262.036	9.89
262.251	10.28
262.466	10.62
262.682	9.78
262.897	10.46
263.113	9.71
263.328	7.39
263.543	4.8
263.759	4.61
263.974	5.62
264.189	4.48
264.405	2.86
264.62	3.26
264.835	4.73
265.051	4.73
265.266	6.95
265.481	9.19
265.696	10.19
265.912	9.56
266.127	8.75
266.342	10.3
266.557	11.77
266.773	12.8
266.988	10.09
267.203	9.32
267.418	11
267.633	10.98
267.848	9.87
268.064	10.59
268.279	10.51
268.494	11.15
268.709	10.41
268.924	8.35
269.139	7.57
269.354	8.21
269.569	7.53
269.784	7.89
269.999	7.52
270.214	7.88
270.429	8.25
270.644	9.26
270.859	9.75
271.074	10.55
271.289	12.31
271.504	12.57
271.719	11.89
271.934	11.42
272.149	10.79
272.363	8.52
272.578	8.82
272.793	8.07
273.008	7.55
273.223	7.58
273.438	6.39
273.653	5.3
273.867	4.45
274.082	5.78
274.297	6.3
274.512	6.15
274.726	7.45
274.941	8.09
275.156	7.48
275.371	7.87
275.585	7.62
275.8	7.96
276.015	8.84
276.229	9.46
276.444	9.53
276.659	9.13
276.873	9.76
277.088	10.29
277.302	8.68
277.517	6.97
277.732	7.19
277.946	8.45
278.161	9.14
278.375	8.53
278.59	9.73
278.804	7.16
279.019	7.1
279.233	7.12
279.448	6.54
279.662	5.84
279.877	6.94
280.091	6.88
280.306	6.31
280.52	7.69
280.735	8.66
280.949	6.79
281.163	9.5
281.378	9.07
281.592	8.14
281.806	9.29
282.021	10.12
282.235	9.71
282.449	10.37
282.664	9.16
282.878	7.33
283.092	6.97
283.307	8.07
283.521	8.25
283.735	8.89
283.949	6.99
284.164	5.53
284.378	5.74
284.592	7.11
284.806	6.64
285.02	7.73
285.234	8.64
285.449	7.34
285.663	5.79
285.877	4.81
286.091	5.38
286.305	8.1
286.519	8.74
286.733	9.4
286.947	8.77
287.161	9.05
287.375	7.04
287.589	6.56
287.803	8.36
288.017	9.45
288.231	9.07
288.445	8.6
288.659	7.95
288.873	8.84
289.087	8.08
289.301	9.56
289.515	10.37
289.729	10.45
289.943	10.34
290.157	9.9
290.371	10.66
290.584	11.24
290.798	12.22
291.012	11.02
291.226	10.92
291.44	10.06
291.654	10.03
291.867	8.62
292.081	10.09
292.295	10.29
292.509	10.93
292.722	12.07
292.936	11.15
293.15	8.31
293.364	9.35
293.577	8.52
293.791	9.1
294.005	7.5
294.218	8.82
294.432	9.37
294.645	10.26
294.859	10.15
295.073	10.04
295.286	10.05
295.5	11.62
295.713	11.45
295.927	11.58
296.14	11.84
296.354	13.24
296.568	12.71
296.781	12.66
296.994	11.1
297.208	11.14
297.421	10.45
297.635	11
297.848	10.98
298.062	11.1
298.275	10.72
298.489	11.01
298.702	10.81
298.915	10.67
299.129	9.31
299.342	10.88
299.555	10.76
299.769	10.98
299.982	9.22
300.195	7.99
300.409	6.83
300.622	7.51
300.835	6.57
301.048	6.05
301.262	7.25
301.475	7.79
301.688	5.91
301.901	5.95
302.115	5.6
302.328	8.09
302.541	8.96
302.754	10.22
302.967	9.87
303.18	10.73
303.393	10.74
303.607	9.36
303.82	9.48
304.033	10.36
304.246	10.68
304.459	10.62
304.672	9.93
304.885	11.15
305.098	10.73
305.311	10.43
305.524	10.94
305.737	10.42
305.95	10.75
306.163	11.56
306.376	11.49
306.589	10.99
306.802	10.49
307.015	9.93
307.228	10.13
307.44	10.12
307.653	10.98
307.866	9.97
308.079	10.71
308.292	10.77
308.505	10.1
308.718	10.88
308.93	12.11
309.143	12.26
309.356	11.81
309.569	10.35
309.781	9.76
309.994	9.63
310.207	10.75
310.42	10.75
310.632	10.15
310.845	10.46
311.058	10.73
311.27	9.2
311.483	9.16
311.696	9.95
311.908	10.38
312.121	10.63
312.333	10.11
312.546	9.81
312.759	9.48
312.971	9.57
313.184	10.02
313.396	7.98
313.609	7.16
313.821	7.2
314.034	7.85
314.246	8.63
314.459	9.7
314.671	9.67
314.884	8.52
315.096	8.98
315.309	8.92
315.521	8.13
315.733	8.92
315.946	10.28
316.158	9.64
316.371	8.94
316.583	6.92
316.795	6.03
317.008	6.25
317.22	5.83
317.432	7.25
317.644	7.85
317.857	9.45
318.069	9.98
318.281	10.71
318.494	11.8
318.706	11.3
318.918	12.22
319.13	12.45
319.342	12.75
319.555	11.31
319.767	11.1
319.979	12.56
320.191	11.21
320.403	9.84
320.615	7.62
320.827	6.18
321.039	6.64
321.252	5.44
321.464	5.15
321.676	6.04
321.888	8.94
322.1	7.64
322.312	6.74
322.524	6.79
322.736	8.46
322.948	9.63
323.16	10.45
323.372	10.59
323.584	12.44
323.796	13.78
324.007	13.65
324.219	14.17
324.431	13.69
324.643	14.03
324.855	15.35
325.067	14.25
325.279	13.82
325.491	14.17
325.702	12.89
325.914	12.1
326.126	10.88
326.338	10.4
326.55	9.47
326.761	9.4
326.973	9.12
327.185	6.67
327.396	7.35
327.608	7.11
327.82	7.16
328.032	8.37
328.243	7.24
328.455	7.79
328.666	8.39
328.878	8.1
329.09	8.49
329.301	7.93
329.513	10.67
329.725	9.96
329.936	9.87
330.148	9.55
330.359	9.96
330.571	11.7
330.782	12.65
330.994	12.73
331.205	13
331.417	13.37
331.628	13.88
331.84	12.51
332.051	13.62
332.262	13.5
332.474	12.54
332.685	14.25
332.897	13.78
333.108	14.06
333.319	13.6
333.531	14.01
333.742	13.11
333.953	13.05
334.165	12.53
334.376	13.61
334.587	13.45
334.799	14.95
335.01	13.33
335.221	13.84
335.432	13.42
335.644	13.43
335.855	13.11
336.066	14.86
336.277	13.81
336.488	13.98
336.7	12.97
336.911	13.41
337.122	12.88
337.333	12.81
337.544	11.85
337.755	12.15
337.966	11.35
338.177	11.48
338.388	10.44
338.599	11.96
338.811	12.47
339.022	11.64
339.233	12.14
339.444	12.1
339.655	11.5
339.866	12.79
340.076	11.25
340.287	12.7
340.498	12.55
340.709	12.05
340.92	10.75
341.131	9.92
341.342	11.07
341.553	11.57
341.764	10.82
341.975	11.11
342.185	11.16
342.396	12.41
342.607	12.91
342.818	13.72
343.029	14.22
343.239	15.01
343.45	16.07
343.661	14.98
343.872	14.2
344.082	15.13
344.293	15.23
344.504	14.83
344.714	14.38
344.925	14.5
345.136	13.54
345.346	13.27
345.557	13.46
345.768	12.47
345.978	12.28
346.189	13
346.399	12.67
346.61	12.03
346.821	12.34
347.031	11.57
347.242	8.92
347.452	9.74
347.663	8.31
347.873	7.59
348.084	8.81
348.294	9.68
348.504	8.64
348.715	9.7
348.925	10.83
349.136	10.98
349.346	11.23
349.557	12.49
349.767	11.9
349.977	13.71
350.188	13.73
350.398	12.45
350.608	12.43
350.819	13.51
351.029	13.04
351.239	13.03
351.449	13.44
351.66	14.22
351.87	13.34
352.08	12.55
352.29	11.61
352.501	12.36
352.711	12.86
352.921	11.83
353.131	10.83
353.341	10.59
353.552	10.72
353.762	10.3
353.972	9.77
354.182	10.85
354.392	11.67
354.602	12.81
354.812	12.33
355.022	12.5
355.232	13.47
355.442	13.86
355.652	13.45
355.862	13.5
356.072	12.65
356.282	12.46
356.492	12.8
356.702	11.9
356.912	11.8
357.122	11.16
357.332	10.91
357.542	10.55
357.752	10.06
357.962	10.5
358.171	9.88
358.381	10.33
358.591	10.02
358.801	9.33
359.011	10.33
359.221	10.65
359.43	10.49
359.64	11.12
359.85	12.28
360.06	12.83
360.269	12.5
360.479	12.72
360.689	12.49
360.899	12.83
361.108	13.2
361.318	13
361.528	12.31
361.737	13.46
361.947	12.77
362.156	12.36
362.366	12.23
362.576	12.22
362.785	12.52
362.995	12.45
363.204	13.16
363.414	13.16
363.623	13.4
363.833	13.41
364.042	13.03
364.252	13.92
364.461	13.01
364.671	12.41
364.88	12.64
365.09	12.39
365.299	13.9
365.509	12.95
365.718	12.93
365.927	12.42
366.137	12.56
366.346	12.24
366.555	11.08
366.765	11.59
366.974	12.13
367.183	12.98
367.393	13.31
367.602	12.17
367.811	12.72
368.021	11.3
368.23	11.43
368.439	11.35
368.648	11.05
368.857	11.87
369.067	11.34
369.276	10.18
369.485	9.37
369.694	8.97
369.903	8.19
370.112	7.1
370.321	8.29
370.531	8.95
370.74	8.76
370.949	8.94
371.158	8.72
371.367	9.85
371.576	11.28
371.785	10.76
371.994	11
372.203	11.76
372.412	12.36
372.621	12.38
372.83	12.03
373.039	12.2
373.248	11.82
373.457	12.54
373.666	11.98
373.874	11.23
374.083	11.25
374.292	10.06
374.501	9.02
374.71	8.83
374.919	8.75
375.128	8.64
375.336	8.33
375.545	8.85
375.754	8.5
375.963	8.42
376.171	8.69
376.38	8.15
376.589	8.52
376.798	8.76
377.006	8.52
377.215	9.05
377.424	8.95
377.632	9.11
377.841	9.08
378.05	8.38
378.258	8.27
378.467	8.35
378.675	8.8
378.884	9.16
379.093	9.01
379.301	8.88
379.51	8.07
379.718	8.17
379.927	8.27
380.135	8.18
380.344	8.71
380.552	8.68
380.761	8.65
380.969	9.1
381.177	9.12
381.386	8.89
381.594	9.42
381.803	8.97
382.011	8.39
382.219	8.53
382.428	8.62
382.636	8.39
382.845	8.56
383.053	8.53
383.261	8.5
383.469	8.39
383.678	9.22
383.886	9.02
384.094	9.69
384.302	10.17
384.511	9.85
384.719	9.46
384.927	9.19
385.135	9.01
385.343	8.42
385.552	8.28
385.76	8.3
385.968	7.69
386.176	7.82
386.384	7.89
386.592	7.96
386.8	8.03
387.008	8.23
387.216	8.45
387.424	8.39
387.633	8.41
387.841	7.94
388.049	7.64
388.257	8.27
388.465	7.91
388.672	7.38
388.88	6.81
389.088	6.64
389.296	6.99
389.504	6.87
389.712	6.79
389.92	7.18
390.128	6.99
390.336	7.42
390.544	6.89
390.751	6.62
390.959	6.49
391.167	6.87
391.375	6.98
391.583	6.51
391.79	6.66
391.998	6.7
392.206	6.8
392.414	6.94
392.621	6.6
392.829	6.41
393.037	6.54
393.244	6.41
393.452	6.28
393.66	6.22
393.867	6.17
394.075	6.2
394.283	6.06
394.49	5.67
394.698	5.71
394.905	6
395.113	5.98
395.32	6.14
395.528	6.33
395.735	6.05
395.943	6.44
396.15	6.23
396.358	6.31
396.565	6.28
396.773	6.2
396.98	6.58
397.188	6.28
397.395	6.55
397.602	6.57
397.81	6.82
398.017	6.85
398.225	6.68
398.432	6.98
398.639	6.7
398.847	6.59
399.054	6.92
399.261	6.54
399.468	6.68
399.676	6.47
399.883	6.53
400.09	6.2
400.297	6.37
400.505	6.23
400.712	6.13
400.919	6.24
401.126	6.76
401.333	6.48
401.54	6.93
401.748	6.88
401.955	7.17
402.162	7.3
402.369	7.79
402.576	7.69
402.783	7.31
402.99	7.62
403.197	7.46
403.404	7.18
403.611	7.12
403.818	7.01
404.025	6.94
404.232	6.79
404.439	6.38
404.646	6.2
404.853	6.07
405.06	6.32
405.267	6.02
405.474	6.12
405.681	5.97
405.887	6.02
406.094	5.68
406.301	5.7
406.508	5.72
406.715	5.69
406.922	5.58
407.128	5.8
407.335	5.45
407.542	5.32
407.749	5.24
407.955	5.43
408.162	5.33
408.369	5.48
408.575	5.65
408.782	5.63
408.989	5.83
409.195	5.93
409.402	5.89
409.609	6.06
409.815	6.35
410.022	6.51
410.228	6.41
410.435	6.29
410.642	6.01
410.848	5.85
411.055	5.81
411.261	5.72
411.468	5.39
411.674	5.59
411.881	5.78
412.087	5.97
412.294	5.69
412.5	5.95
412.706	6.25
412.913	6.69
413.119	6.78
413.326	6.85
413.532	6.99
413.738	6.96
413.945	6.42
414.151	6.28
414.357	6.17
414.564	6.21
414.77	6.07
414.976	6.52
415.182	6.39
415.389	6.07
415.595	5.82
415.801	5.97
416.007	6.03
416.214	6.38
416.42	6.39
416.626	6.48
416.832	6.27
417.038	6.09
417.244	5.66
417.45	5.63
417.657	5.71
417.863	5.82
418.069	5.68
418.275	5.65
418.481	5.32
418.687	5.15
418.893	4.94
419.099	5.04
419.305	5.18
419.511	5.1
419.717	5.03
419.923	5.1
420.129	5.06
420.335	5.1
420.541	5.23
420.746	5.49
420.952	5.52
421.158	5.48
421.364	5.44
421.57	5.42
421.776	5.42
421.982	5.46
422.187	5.3
422.393	5.43
422.599	5.35
422.805	5.41
423.01	5.26
423.216	5.33
423.422	5.33
423.628	5.45
423.833	5.5
424.039	5.49
424.245	5.45
424.45	5.65
424.656	5.53
424.862	5.61
425.067	5.51
425.273	5.6
425.478	5.69
425.684	5.59
425.889	5.45
426.095	5.31
426.301	5.54
426.506	5.53
426.712	5.67
426.917	5.58
427.123	5.54
427.328	5.57
427.533	5.57
427.739	5.31
427.944	5.49
428.15	5.59
428.355	5.46
428.561	5.19
428.766	5.09
428.971	4.9
429.177	5.06
429.382	4.98
429.587	4.8
429.793	4.67
429.998	4.8
430.203	4.71
430.408	4.68
430.614	4.81
430.819	4.85
431.024	4.9
431.229	4.96
431.434	4.89
431.64	4.77
431.845	4.81
432.05	4.95
432.255	4.85
432.46	4.95
432.665	4.75
432.87	4.69
433.076	4.56
433.281	4.58
433.486	4.49
433.691	4.65
433.896	4.83
434.101	4.99
434.306	5.02
434.511	5.05
434.716	5.07
434.921	5.39
435.126	5.73
435.331	5.91
435.535	6.09
435.74	6.1
435.945	5.98
436.15	6.03
436.355	6.04
436.56	5.93
436.765	6.02
436.97	5.91
437.174	5.59
437.379	5.24
437.584	5.42
437.789	5.12
437.993	4.95
438.198	4.92
438.403	4.82
438.608	4.75
438.812	4.64
439.017	4.71
439.222	4.81
439.426	4.9
439.631	4.87
439.836	4.73
440.04	4.8
440.245	4.74
440.45	4.78
440.654	4.92
440.859	4.92
441.063	4.9
441.268	4.85
441.472	4.78
441.677	4.82
441.881	4.91
442.086	4.91
442.29	4.92
442.495	5.03
442.699	5.12
442.904	4.92
443.108	4.79
443.312	5.18
443.517	5.22
443.721	5.3
443.925	5.38
444.13	5.33
444.334	5.36
444.538	5.26
444.743	5.22
444.947	4.89
445.151	4.94
445.356	5
445.56	4.78
445.764	4.78
445.968	4.66
446.173	4.6
446.377	4.64
446.581	4.64
446.785	4.75
446.989	4.76
447.193	4.87
447.398	4.84
447.602	4.73
447.806	4.67
448.01	4.53
448.214	4.68
448.418	4.79
448.622	4.68
448.826	4.51
449.03	4.54
449.234	4.48
449.438	4.51
449.642	4.54
449.846	4.65
450.05	4.82
450.254	4.92
450.458	4.75
450.662	4.44
450.866	4.58
451.069	4.8
451.273	4.67
451.477	4.85
451.681	4.82
451.885	5.02
452.089	4.95
452.292	4.76
452.496	4.75
452.7	4.63
452.904	4.9
453.107	4.82
453.311	4.5
453.515	4.5
453.719	4.4
453.922	4.61
454.126	4.48
454.33	4.51
454.533	4.58
454.737	4.5
454.94	4.83
455.144	4.55
455.348	4.61
455.551	4.96
455.755	4.89
455.958	5.01
456.162	4.83
456.365	4.75
456.569	4.77
456.772	4.87
456.976	4.86
457.179	4.64
457.383	4.71
457.586	4.73
457.79	4.57
457.993	4.69
458.196	4.6
458.4	4.59
458.603	4.6
458.807	4.64
459.01	4.49
459.213	4.54
459.417	4.73
459.62	4.7
459.823	4.62
460.026	4.62
460.23	4.64
460.433	4.52
460.636	4.5
460.839	4.52
461.042	4.53
461.246	4.64
461.449	4.6
461.652	4.58
461.855	4.74
462.058	4.74
462.261	4.71
462.464	4.68
462.668	4.93
462.871	5.02
463.074	4.83
463.277	4.84
463.48	4.67
463.683	4.86
463.886	4.65
464.089	4.6
464.292	4.59
464.495	4.6
464.698	4.53
464.901	4.5
465.104	4.54
465.306	4.67
465.509	4.41
465.712	4.58
465.915	4.44
466.118	4.48
466.321	4.44
466.524	4.53
466.726	4.78
466.929	4.82
467.132	4.75
467.335	4.53
467.538	4.59
467.74	4.9
467.943	4.63
468.146	4.46
468.348	4.21
468.551	4.37
468.754	4.33
468.956	4.3
469.159	4.37
469.362	4.37
469.564	4.31
469.767	4.42
469.969	4.36
470.172	4.62
470.375	4.77
470.577	5.08
470.78	4.79
470.982	4.85
471.185	4.59
471.387	4.86
471.59	4.84
471.792	5.05
471.995	4.78
472.197	4.75
472.399	4.78
472.602	5.03
472.804	4.96
473.007	5.14
473.209	5.09
473.411	5.15
473.614	4.81
473.816	5.01
474.018	4.99
474.22	5.09
474.423	5.11
474.625	4.93
474.827	4.77
475.03	4.76
475.232	4.58
475.434	4.8
475.636	4.96
475.838	5.19
476.04	4.96
476.243	5.06
476.445	5
476.647	4.98
476.849	4.99
477.051	4.84
477.253	4.88
477.455	5.28
477.657	4.92
477.859	4.89
478.061	4.73
478.263	4.74
478.465	4.71
478.667	4.66
478.869	4.55
479.071	4.68
479.273	4.75
479.475	4.82
479.677	4.62
479.879	4.7
480.081	4.66
480.283	4.57
480.485	4.69
480.686	4.64
480.888	4.69
481.09	4.74
481.292	4.85
481.494	4.92
481.695	4.66
481.897	4.69
482.099	4.68
482.301	4.65
482.502	4.78
482.704	4.75
482.906	4.76
483.107	4.75
483.309	4.76
483.511	4.69
483.712	4.67
483.914	4.77
484.115	4.7
484.317	4.72
484.519	4.7
484.72	4.68
484.922	4.64
485.123	4.63
485.325	4.63
485.526	4.63
485.728	4.62
485.929	4.59
486.131	4.51
486.332	4.47
486.534	4.48
486.735	4.5
486.936	4.48
487.138	4.53
487.339	4.55
487.541	4.57
487.742	4.55
487.943	4.5
488.144	4.55
488.346	4.6
488.547	4.66
488.748	4.65
488.95	4.6
489.151	4.56
489.352	4.44
489.553	4.39
489.755	4.38
489.956	4.48
490.157	4.55
490.358	4.49
490.559	4.48
490.76	4.51
490.961	4.56
491.163	4.61
491.364	4.75
491.565	4.84
491.766	4.82
491.967	4.78
492.168	4.66
492.369	4.69
492.57	4.71
492.771	4.77
492.972	4.73
493.173	4.76
493.374	4.81
493.575	4.76
493.776	4.77
493.976	4.81
494.177	4.91
494.378	5.02
494.579	4.9
494.78	4.97
494.981	5.03
495.182	5.09
495.382	5.06
495.583	5.02
495.784	4.77
495.985	4.76
496.185	4.83
496.386	4.84
496.587	4.74
496.788	4.79
496.988	4.59
497.189	4.36
497.39	4.47
497.59	4.48
497.791	4.43
497.992	4.56
498.192	4.52
498.393	4.46
498.593	4.43
498.794	4.58
498.994	4.47
499.195	4.55
499.395	4.58
499.596	4.43
499.796	4.42
499.997	4.6
500.197	4.59
500.398	4.72
500.598	4.76
500.799	4.75
500.999	4.67
501.199	4.88
501.4	4.99
501.6	5.09
501.801	5.16
502.001	5.13
502.201	5.01
502.402	5.13
502.602	5.04
502.802	4.89
503.002	4.86
503.203	4.83
503.403	4.81
503.603	4.73
503.803	4.6
504.003	4.7
504.204	4.81
504.404	4.8
504.604	4.78
504.804	4.93
505.004	5.29
505.204	5.46
505.404	5.48
505.604	5.48
505.804	5.58
506.005	5.75
506.205	5.72
506.405	5.58
506.605	5.65
506.805	5.72
507.005	5.84
507.204	5.62
507.404	5.51
507.604	5.47
507.804	5.55
508.004	5.53
508.204	5.55
508.404	5.44
508.604	5.61
508.804	5.46
509.003	5.36
509.203	5.08
509.403	5.07
509.603	5.04
509.803	5.33
510.002	5.4
510.202	5.29
510.402	5.33
510.602	5.27
510.801	5.18
511.001	5.38
511.201	5.45
511.4	5.63
511.6	5.74
511.8	5.74
511.999	5.55
512.199	5.47
512.398	5.59
512.598	5.46
512.797	5.57
512.997	5.66
513.197	5.7
513.396	5.7
513.596	5.74
513.795	5.77
513.994	5.82
514.194	5.94
514.393	5.92
514.593	6.03
514.792	6.17
514.992	6.27
515.191	6.43
515.39	6.42
515.59	6.42
515.789	6.37
515.988	6.35
516.188	6.26
516.387	6.31
516.586	6.35
516.786	6.37
516.985	6.31
517.184	6.24
517.383	6.09
517.582	6.05
517.782	5.96
517.981	5.85
518.18	5.85
518.379	6.05
518.578	5.98
518.777	6
518.976	6.01
519.176	6.18
519.375	6.18
519.574	6.2
519.773	6.19
519.972	6.35
520.171	6.51
520.37	6.53
520.569	6.49
520.768	6.41
520.967	6.52
521.166	6.55
521.365	6.31
521.564	6.39
521.762	6.51
521.961	6.55
522.16	6.5
522.359	6.6
522.558	6.56
522.757	6.55
522.956	6.59
523.154	6.39
523.353	6.4
523.552	6.45
523.751	6.38
523.949	6.3
524.148	6.35
524.347	6.41
524.546	6.38
524.744	6.5
524.943	6.44
525.142	6.47
525.34	6.51
525.539	6.59
525.737	6.63
525.936	6.69
526.135	6.62
526.333	6.59
526.532	6.65
526.73	6.65
526.929	6.61
527.127	6.7
527.326	6.76
527.524	6.83
527.723	6.74
527.921	6.76
528.12	6.81
528.318	6.88
528.516	6.88
528.715	6.9
528.913	6.93
529.112	6.93
529.31	6.93
529.508	6.95
529.707	7
529.905	7.06
530.103	7.11
530.301	7.12
530.5	7.05
530.698	7.09
530.896	7.03
531.094	7.02
531.293	7.09
531.491	7.22
531.689	7.28
531.887	7.27
532.085	7.32
532.283	7.26
532.481	7.28
532.68	7.42
532.878	7.47
533.076	7.51
533.274	7.55
533.472	7.55
533.67	7.49
533.868	7.46
534.066	7.44
534.264	7.4
534.462	7.55
534.66	7.58
534.858	7.53
535.056	7.53
535.253	7.52
535.451	7.49
535.649	7.57
535.847	7.62
536.045	7.55
536.243	7.62
536.441	7.65
536.638	7.6
536.836	7.52
537.034	7.67
537.232	7.71
537.43	7.8
537.627	7.83
537.825	7.71
538.023	7.74
538.22	7.93
538.418	7.86
538.616	7.9
538.813	7.91
539.011	8.07
539.209	8.08
539.406	8.08
539.604	8.12
539.801	8.12
539.999	8.28
540.196	8.22
540.394	8.21
540.591	8.16
540.789	8.27
540.986	8.37
541.184	8.31
541.381	8.27
541.579	8.3
541.776	8.34
541.974	8.4
542.171	8.4
542.368	8.47
542.566	8.57
542.763	8.69
542.96	8.72
543.158	8.67
543.355	8.74
543.552	8.82
543.75	8.94
543.947	9.01
544.144	9.08
544.341	9.15
544.539	9.19
544.736	9.12
544.933	9.22
545.13	9.15
545.327	9.17
545.524	9.33
545.722	9.33
545.919	9.37
546.116	9.45
546.313	9.51
546.51	9.7
546.707	9.65
546.904	9.86
547.101	9.8
547.298	9.89
547.495	10.01
547.692	9.88
547.889	9.96
548.086	9.96
548.283	10.08
548.48	10.13
548.677	10.16
548.874	10.2
549.07	10.02
549.267	10.22
549.464	10.24
549.661	10.26
549.858	10.42
550.055	10.69
550.251	10.8
550.448	10.73
550.645	10.77
550.842	10.59
551.038	10.86
551.235	11
551.432	10.98
551.628	11.1
551.825	11.21
552.022	11.21
552.218	11.11
552.415	11.08
552.612	11.09
552.808	11.11
553.005	11.39
553.201	11.29
553.398	11.45
553.594	11.59
553.791	11.71
553.987	11.7
554.184	11.91
554.38	12.01
554.577	12.13
554.773	12.15
554.97	12.12
555.166	11.92
555.362	12.03
555.559	12.05
555.755	12.09
555.952	12.06
556.148	12.25
556.344	12.32
556.541	12.2
556.737	12.26
556.933	12.3
557.129	12.61
557.326	12.62
557.522	12.8
557.718	12.56
557.914	12.68
558.11	12.65
558.307	12.59
558.503	12.58
558.699	12.76
558.895	12.77
559.091	12.83
559.287	12.72
559.483	12.81
559.679	12.97
559.876	13.31
560.072	13.06
560.268	13.24
560.464	13.4
560.66	13.37
560.856	13.4
561.052	13.52
561.247	13.6
561.443	13.72
561.639	13.96
561.835	13.9
562.031	13.97
562.227	14.07
562.423	14.04
562.619	14.2
562.815	14.17
563.01	14.21
563.206	14.35
563.402	14.41
563.598	14.45
563.793	14.4
563.989	14.2
564.185	14.3
564.381	14.67
564.576	14.88
564.772	14.77
564.968	15.1
565.163	15.19
565.359	15.02
565.555	15.11
565.75	15.09
565.946	15.2
566.141	15.5
566.337	15.54
566.532	15.54
566.728	15.44
566.923	15.32
567.119	14.93
567.314	15.11
567.51	15.2
567.705	15.32
567.901	15.28
568.096	15.31
568.292	15.12
568.487	15.28
568.682	15.22
568.878	15.38
569.073	15.67
569.268	15.98
569.464	15.89
569.659	15.75
569.854	15.74
570.05	16.03
570.245	16.15
570.44	16.45
570.635	16.33
570.831	16.36
571.026	16.44
571.221	16.44
571.416	16.68
571.611	16.95
571.806	17.08
572.002	17.02
572.197	16.8
572.392	16.67
572.587	16.63
572.782	16.76
572.977	16.89
573.172	16.91
573.367	16.88
573.562	16.95
573.757	16.9
573.952	16.85
574.147	16.93
574.342	17.28
574.537	17.47
574.732	17.51
574.927	17.43
575.121	17.35
575.316	17.46
575.511	17.58
575.706	17.45
575.901	17.39
576.096	17.84
576.29	17.9
576.485	17.83
576.68	17.81
576.875	17.98
577.069	17.97
577.264	18.07
577.459	18.11
577.654	18.16
577.848	18.21
578.043	18.41
578.238	18.16
578.432	18.28
578.627	18.37
578.821	18.37
579.016	18.09
579.21	18.04
579.405	18.04
579.6	17.81
579.794	18.14
579.989	18.27
580.183	18.19
580.378	18.28
580.572	18.13
580.766	18.23
580.961	18.31
581.155	18.54
581.35	18.68
581.544	18.73
581.738	18.8
581.933	18.81
582.127	19.01
582.321	18.77
582.516	18.76
582.71	18.84
582.904	18.82
583.099	18.77
583.293	18.76
583.487	18.83
583.681	19.02
583.875	18.9
584.07	18.88
584.264	18.62
584.458	18.85
584.652	18.95
584.846	18.88
585.04	18.72
585.234	18.75
585.428	18.86
585.623	19.19
585.817	19.06
586.011	19.35
586.205	19.18
586.399	19.16
586.593	19
586.787	19.25
586.981	19.21
587.174	19.68
587.368	19.86
587.562	20.15
587.756	20.4
587.95	20.41
588.144	20.49
588.338	20.45
588.532	20.43
588.725	20.43
588.919	20.5
589.113	20.76
589.307	20.54
589.501	20.67
589.694	20.43
589.888	20.02
590.082	20.05
590.275	20
590.469	20.24
590.663	20.56
590.856	20.86
591.05	20.72
591.244	20.52
591.437	20.54
591.631	20.03
591.824	19.91
592.018	20.19
592.212	20.43
592.405	20.14
592.599	20.06
592.792	20.08
592.986	19.93
593.179	19.98
593.372	20.34
593.566	20.46
593.759	20.75
593.953	20.9
594.146	20.56
594.339	20.52
594.533	20.74
594.726	20.88
594.92	20.58
595.113	20.48
595.306	20.34
595.499	20.25
595.693	20.09
595.886	20.28
596.079	20.11
596.272	20.17
596.466	19.9
596.659	20.03
596.852	19.88
597.045	20.22
597.238	20.19
597.431	20.21
597.624	20.03
597.818	20.13
598.011	20.03
598.204	20.36
598.397	20.45
598.59	20.55
598.783	20.37
598.976	20.63
599.169	20.49
599.362	20.84
599.555	20.83
599.748	21.08
599.941	20.96
600.134	21.24
600.326	20.91
600.519	20.97
600.712	21.12
600.905	21.6
601.098	21.26
601.291	21.18
601.483	21.15
601.676	21.19
601.869	21.18
602.062	21.19
602.255	21.1
602.447	21.17
602.64	20.94
602.833	20.79
603.025	20.48
603.218	20.65
603.411	20.93
603.603	20.85
603.796	21.02
603.989	21.05
604.181	21.18
604.374	21.14
604.566	21.25
604.759	21.25
604.951	21.35
605.144	21.52
605.336	21.66
605.529	21.69
605.721	21.8
605.914	21.7
606.106	21.64
606.299	21.57
606.491	21.63
606.683	21.63
606.876	21.74
607.068	21.86
607.26	21.46
607.453	21.41
607.645	21.17
607.837	21.23
608.03	21.13
608.222	21.25
608.414	21.1
608.606	20.98
608.799	20.87
608.991	20.95
609.183	20.84
609.375	21.18
609.567	21.28
609.759	21.46
609.952	21.38
610.144	21.52
610.336	21.45
610.528	21.51
610.72	21.63
610.912	21.72
611.104	21.66
611.296	21.58
611.488	21.54
611.68	21.35
611.872	20.83
612.064	20.68
612.256	20.67
612.448	20.59
612.64	20.65
612.832	20.76
613.023	20.9
613.215	21
613.407	21.1
613.599	21.21
613.791	21.39
613.983	21.86
614.174	21.89
614.366	21.95
614.558	22.18
614.75	22.41
614.941	22.39
615.133	22.51
615.325	22.9
615.516	22.95
615.708	23.06
615.9	23
616.091	23.13
616.283	23.36
616.475	23.07
616.666	22.96
616.858	22.82
617.049	22.75
617.241	22.45
617.432	22.15
617.624	22.37
617.815	22.3
618.007	22.06
618.198	21.52
618.39	21.67
618.581	21.86
618.773	21.93
618.964	21.62
619.155	21.47
619.347	21.53
619.538	21.38
619.729	21.18
619.921	21.23
620.112	21.47
620.303	21.72
620.494	21.59
620.686	21.78
620.877	21.91
621.068	22.41
621.259	22.43
621.451	22.55
621.642	22.78
621.833	22.89
622.024	22.93
622.215	22.96
622.406	23.12
622.597	22.91
622.788	22.82
622.98	22.68
623.171	22.67
623.362	23
623.553	23.15
623.744	23.01
623.935	23.04
624.126	22.9
624.317	22.51
624.508	22.65
624.698	23.03
624.889	22.81
625.08	22.54
625.271	22.63
625.462	22.4
625.653	22.42
625.844	22.62
626.034	22.59
626.225	22.41
626.416	22.97
626.607	22.83
626.798	22.48
626.988	22.64
627.179	22.94
627.37	22.72
627.56	22.97
627.751	22.98
627.942	23.02
628.132	23.06
628.323	23.28
628.514	23.16
628.704	23.28
628.895	23.46
629.085	23.83
629.276	23.53
629.466	23.87
629.657	23.65
629.847	23.49
630.038	23.39
630.228	23.2
630.419	23.32
630.609	23.15
630.8	23.22
630.99	23.15
631.181	22.73
631.371	22.71
631.561	22.53
631.752	22.51
631.942	22.48
632.132	22.66
632.323	23.03
632.513	23.08
632.703	23.05
632.893	22.84
633.084	23.1
633.274	23.14
633.464	23.5
633.654	23.54
633.844	23.76
634.034	23.66
634.225	23.62
634.415	23.52
634.605	23.24
634.795	23.12
634.985	23.38
635.175	23.23
635.365	23.47
635.555	23.16
635.745	23.39
635.935	23.41
636.125	23.58
636.315	23.55
636.505	23.63
636.695	23.68
636.885	24.02
637.075	23.69
637.265	23.87
637.455	23.96
637.644	24.34
637.834	24.19
638.024	23.71
638.214	23.93
638.404	23.82
638.593	23.9
638.783	24.06
638.973	23.79
639.163	24.11
639.352	24.26
639.542	23.98
639.732	24.33
639.921	24.07
640.111	24.54
640.301	24.35
640.49	24.46
640.68	24.31
640.87	24.01
641.059	24.52
641.249	24.22
641.438	24.04
641.628	24.26
641.817	23.99
642.007	24.42
642.196	24.46
642.386	24.5
642.575	24.24
642.764	24.62
642.954	25.09
643.143	24.78
643.333	25.02
643.522	24.65
643.711	24.6
643.901	24.33
644.09	23.99
644.279	23.86
644.469	23.82
644.658	23.83
644.847	23.68
645.036	23.58
645.226	23.85
645.415	23.71
645.604	24.15
645.793	23.71
645.982	23.92
646.171	23.87
646.361	24.08
646.55	24.16
646.739	24.33
646.928	24.16
647.117	23.92
647.306	23.39
647.495	23.5
647.684	23.64
647.873	23.63
648.062	23.71
648.251	23.78
648.44	23.47
648.629	23.27
648.818	23.38
649.007	23.35
649.196	23.51
649.384	23.43
649.573	23.4
649.762	23.01
649.951	23.25
650.14	23.13
650.328	23.16
650.517	23.41
650.706	23.49
650.895	23.48
651.083	23.59
651.272	23.9
651.461	24.31
651.65	24.26
651.838	23.99
652.027	24.18
652.216	23.68
652.404	23.73
652.593	23.55
652.781	23.64
652.97	23.73
653.158	23.33
653.347	22.87
653.535	22.67
653.724	22.73
653.912	23.47
654.101	23.44
654.289	24.08
654.478	24.19
654.666	23.96
654.855	24.15
655.043	23.78
655.231	23.94
655.42	24.14
655.608	24.17
655.796	23.95
655.985	23.91
656.173	24.2
656.361	23.86
656.55	23.83
656.738	24.06
656.926	23.6
657.114	23.88
657.302	24.07
657.491	24.31
657.679	24.34
657.867	24.35
658.055	24.12
658.243	24.26
658.431	24.44
658.619	24.33
658.807	24.35
658.996	24.58
659.184	24.58
659.372	24.66
659.56	24.53
659.748	24.56
659.936	24.94
660.124	24.94
660.311	24.39
660.499	24.55
660.687	24.86
660.875	24.97
661.063	25.08
661.251	25.35
661.439	24.72
661.627	24.52
661.814	24.14
662.002	23.87
662.19	23.96
662.378	24.31
662.565	24.2
662.753	24.2
662.941	24.62
663.129	24.79
663.316	24.37
663.504	24.54
663.692	24.87
663.879	25.15
664.067	25.36
664.254	25.64
664.442	25.64
664.63	25.98
664.817	26.02
665.005	25.77
665.192	25.27
665.38	25.52
665.567	25.67
665.755	25.76
665.942	25.91
666.13	26.37
666.317	26.16
666.504	25.87
666.692	25.66
666.879	25.49
667.067	25.22
667.254	25.13
667.441	24.66
667.629	25.34
667.816	25.14
668.003	25.51
668.19	25.36
668.378	25.34
668.565	25.16
668.752	25.16
668.939	24.92
669.127	25.32
669.314	25.79
669.501	25.86
669.688	25.41
669.875	25.26
670.062	24.96
670.249	24.73
670.436	24.91
670.623	25.41
670.81	25.16
670.997	25.72
671.184	25.3
671.371	25.67
671.558	25.96
671.745	26.25
671.932	26.52
672.119	26.34
672.306	25.92
672.493	25.61
672.68	25.5
672.867	25.67
673.054	25.42
673.24	25.78
673.427	25.43
673.614	25.43
673.801	25.05
673.988	25.07
674.174	25.7
674.361	25.67
674.548	25.26
674.734	25.43
674.921	25.48
675.108	24.95
675.294	24.98
675.481	24.57
675.668	24.59
675.854	24.83
676.041	24.87
676.227	24.56
676.414	25.01
676.601	25.44
676.787	25.66
676.974	25.4
677.16	26.39
677.347	26.07
677.533	26.52
677.719	26.73
677.906	27.05
678.092	27.26
678.279	27.44
678.465	27.25
678.651	27.01
678.838	26.45
679.024	26.5
679.21	26.05
679.397	25.74
679.583	25.7
679.769	25.72
679.955	25.39
680.142	25.56
680.328	25.37
680.514	25.64
680.7	25.72
680.886	26.25
681.073	26.56
681.259	26.6
681.445	26.81
681.631	26.73
681.817	26.71
682.003	26.92
682.189	26.45
682.375	26.25
682.561	25.89
682.747	26.18
682.933	25.96
683.119	25.57
683.305	25.1
683.491	25.4
683.677	25.38
683.863	25.02
684.049	24.87
684.235	25.57
684.42	25.55
684.606	25.99
684.792	26.01
684.978	26.07
685.164	26.3
685.349	26.78
685.535	26.55
685.721	26.63
685.907	26.91
686.092	27.01
686.278	26.38
686.464	26.8
686.649	26.48
686.835	26.16
687.021	25.86
687.206	26.31
687.392	26.18
687.577	26.45
687.763	26.43
687.948	26.55
688.134	26.72
688.319	26.4
688.505	26.62
688.69	26.77
688.876	26.64
689.061	26.64
689.247	26.62
689.432	26.63
689.618	26.3
689.803	26.7
689.988	26.62
690.174	26.5
690.359	26.66
690.544	25.84
690.73	25.79
690.915	26.73
691.1	27.37
691.285	27.28
691.471	27.38
691.656	27.91
691.841	27.13
692.026	26.69
692.211	26.38
692.396	26.77
692.582	27.39
692.767	27.58
692.952	26.48
693.137	26.22
693.322	26.23
693.507	25.84
693.692	25.27
693.877	25.48
694.062	26.08
694.247	26.79
694.432	26.44
694.617	26.21
694.802	26
694.987	26.49
695.172	26.4
695.357	26.15
695.541	26.38
695.726	26.55
695.911	26.34
696.096	26.65
696.281	26.15
696.466	26.77
696.65	27.1
696.835	26.83
697.02	26.72
697.204	26.67
697.389	26.14
697.574	26.12
697.759	26.17
697.943	26.88
698.128	26.42
698.312	26.44
698.497	26.05
698.682	26.18
698.866	26.21
699.051	25.64
699.235	25.57
699.42	25.93
699.604	26.19
699.789	25.94
699.973	25.3
700.158	25.43
700.342	25.73
700.527	25.96
700.711	25.62
700.895	25.78
701.08	26.76
701.264	26.61
701.448	26.21
701.633	25.69
701.817	25.79
702.001	26.21
702.186	26.15
702.37	25.63
702.554	25.48
702.738	25.31
702.923	25.07
703.107	24.54
703.291	24.25
703.475	24.55
703.659	24.22
703.843	24.74
704.027	24.46
704.212	24.02
704.396	24.29
704.58	23.82
704.764	24.47
704.948	24.39
705.132	24.73
705.316	25.13
705.5	25.45
705.684	25.63
705.868	25.63
706.052	25.46
706.235	26.3
706.419	26.43
706.603	26.42
706.787	26.55
706.971	26.55
707.155	27.01
707.339	26.98
707.522	26.71
707.706	27.38
707.89	26.66
708.074	27.59
708.257	27.38
708.441	26.83
708.625	26.68
708.808	26.06
708.992	26.85
709.176	26.87
709.359	26.77
709.543	27.25
709.727	27.12
709.91	28.21
710.094	27.96
710.277	27.63
710.461	27.99
710.644	28.53
710.828	28.27
711.011	27.97
711.195	28.05
711.378	27.81
711.562	27.35
711.745	27.14
711.928	26.39
712.112	25.62
712.295	25.69
712.478	25.83
712.662	26.63
712.845	26.52
713.028	25.85
713.212	25.23
713.395	25.56
713.578	25.71
713.761	26.23
713.945	26.53
714.128	27.98
714.311	28.34
714.494	27.95
714.677	26.99
714.86	27.08
715.043	27.92
715.227	28.48
715.41	28.43
715.593	28.76
715.776	27.87
715.959	28.38
716.142	27.12
716.325	26.83
716.508	27.04
716.691	27.17
716.874	27.76
717.057	27.29
717.239	26.56
717.422	26.4
717.605	25.91
717.788	26.32
717.971	25.19
718.154	25.96
718.337	25.98
718.519	25.83
718.702	25.45
718.885	25.41
719.068	26.19
719.25	26
719.433	26.51
719.616	27.37
719.798	27.89
719.981	28.66
720.164	28.37
720.346	28.66
720.529	29.98
720.712	30.2
720.894	29.47
721.077	28.88
721.259	29.66
721.442	29.71
721.624	28.82
721.807	29.41
721.989	28.18
722.172	27.96
722.354	27.38
722.537	25.36
722.719	25.54
722.901	25.74
723.084	25.82
723.266	25.96
723.448	25.88
723.631	26.32
723.813	26.31
723.995	27.48
724.178	28.07
724.36	29.28
724.542	30.35
724.724	29.78
724.907	30.21
725.089	29.79
725.271	28.82
725.453	28.43
725.635	28.49
725.817	27.63
725.999	26.97
726.181	26.01
726.364	25.94
726.546	25.98
726.728	26.51
726.91	27.04
727.092	27.35
727.274	28.79
727.456	29.18
727.638	28.58
727.819	29.11
728.001	30.12
728.183	30.75
728.365	29.6
728.547	30.04
728.729	30.78
728.911	30.66
729.093	31.14
729.274	29.84
729.456	30.33
729.638	30.39
729.82	30.44
730.001	29.66
730.183	30.84
730.365	31.39
730.546	30.99
730.728	30.82
730.91	30.79
731.091	29.8
731.273	30.04
731.455	29.76
731.636	30.14
731.818	30.29
731.999	30.94
732.181	30.2
732.362	29.67
732.544	28.97
732.725	28.28
732.907	28.47
733.088	29.07
733.27	29.37
733.451	28.81
733.633	29.22
733.814	28.97
733.995	27.93
734.177	28.63
734.358	29.61
734.539	30.23
734.721	30.49
734.902	29.01
735.083	28.79
735.264	28.6
735.446	28.74
735.627	28
735.808	28.27
735.989	28.32
736.17	26.82
736.351	26.65
736.533	27.2
736.714	26.5
736.895	27.1
737.076	27.02
737.257	26.62
737.438	26.06
737.619	26.65
737.8	24.7
737.981	25.62
738.162	25.67
738.343	25.08
738.524	24.42
738.705	25.7
738.886	25.8
739.067	25.05
739.247	25.3
739.428	25.71
739.609	24.94
739.79	27.13
739.971	26.12
740.151	26.7
740.332	26.72
740.513	26.82
740.694	26.08
740.874	27.05
741.055	27.93
741.236	29.06
741.417	30.02
741.597	31.06
741.778	28.38
741.958	28.6
742.139	27.22
742.32	26.57
742.5	26.87
742.681	27.39
742.861	25.73
743.042	25.45
743.222	25.28
743.403	24.83
743.583	24.92
743.764	26.6
743.944	26.1
744.124	26.03
744.305	27.77
744.485	28.31
744.666	29.09
744.846	30.58
745.026	30.69
745.207	29.63
745.387	27.41
745.567	27
745.747	27.87
745.928	30.02
746.108	30.51
746.288	28.81
746.468	27.53
746.648	26.96
746.829	26.48
747.009	26.54
747.189	27.49
747.369	29.03
747.549	29.49
747.729	28.45
747.909	29.05
748.089	30.26
748.269	31.11
748.449	32.07
748.629	31.26
748.809	31.55
748.989	31.13
749.169	29.73
749.349	30.47
749.529	30.75
749.709	30.55
749.889	29.76
750.068	29.33
750.248	29.54
750.428	28.61
750.608	29.56
750.788	29.29
750.967	29.9
751.147	30.46
751.327	30.48
751.507	29.6
751.686	31.01
751.866	29.75
752.046	29.58
752.225	28.77
752.405	29.26
752.585	27.95
752.764	28.18
752.944	29.39
753.123	30.48
753.303	29.86
753.482	29.86
753.662	28.61
753.841	30.72
754.021	31.18
754.2	33.17
754.38	32.5
754.559	33.39
754.739	33.48
754.918	31.12
755.097	30.53
755.277	30.16
755.456	30.1
755.635	29.89
755.815	27.21
755.994	26.17
756.173	24.48
756.352	24.19
756.532	23.36
756.711	22.95
756.89	24.53
757.069	24.33
757.248	24.64
757.427	24.85
757.607	25.29
757.786	25.9
757.965	26.64
758.144	25.97
758.323	27.52
758.502	28.83
758.681	28.25
758.86	27.5
759.039	28.77
759.218	29.41
759.397	29.3
759.576	29.23
759.755	29.29
759.934	29.64
760.113	30.74
760.291	30.74
760.47	29.87
760.649	29.54
760.828	31.34
761.007	31.11
761.186	31.7
761.364	31.62
761.543	31.07
761.722	31.63
761.901	31.5
762.079	31.09
762.258	29.32
762.437	31.21
762.615	31.8
762.794	30.6
762.972	30.65
763.151	29.22
763.33	29.22
763.508	29.35
763.687	28.89
763.865	28.18
764.044	27.86
764.222	28.94
764.401	27.61
764.579	27.65
764.758	28.46
764.936	27.4
765.114	28.07
765.293	28.17
765.471	28.54
765.65	29.17
765.828	30.55
766.006	31.69
766.184	31.19
766.363	29.29
766.541	29.65
766.719	29.2
766.898	30.96
767.076	33.1
767.254	32.43
767.432	31.59
767.61	31.36
767.788	30.68
767.967	30.19
768.145	30.85
768.323	33.53
768.501	33.49
768.679	32.63
768.857	31.62
769.035	28.61
769.213	28.23
769.391	28.52
769.569	29.87
769.747	29.94
769.925	30.95
770.103	29.82
770.281	29.39
770.459	29.91
770.636	31.95
770.814	31.65
770.992	33.83
771.17	36.35
771.348	36.85
771.525	35.02
771.703	36.79
771.881	35.12
772.059	33.48
772.236	33.62
772.414	35.03
772.592	34.17
772.769	33.27
772.947	33.12
773.125	31.06
773.302	33.5
773.48	33.99
773.657	30.11
773.835	30.87
774.013	31.67
774.19	31.6
774.368	30.09
774.545	29.25
774.723	30.2
774.9	28.13
775.077	26.23
775.255	24.26
775.432	24.49
775.61	25.68
775.787	25.12
775.964	28.31
776.142	25.75
776.319	24.76
776.496	23.58
776.674	24.55
776.851	24.59
777.028	28.29
777.205	29.48
777.382	27.34
777.56	29.16
777.737	26.87
777.914	28.18
778.091	30.34
778.268	30.75
778.445	33.1
778.622	32.75
778.8	34.08
778.977	33.88
779.154	30.72
779.331	33.37
779.508	31.62
779.685	33.87
779.862	30.72
780.038	29.69
780.215	31.73
780.392	28.75
780.569	25.82
780.746	23.21
780.923	24.66
781.1	26.17
781.277	24.61
781.453	24.04
781.63	25.41
781.807	27.08
781.984	27.44
782.16	26.31
782.337	28.59
782.514	30.24
782.691	34.19
782.867	32.7
783.044	31.27
783.221	35.94
783.397	36.13
783.574	32.96
783.75	30.34
783.927	30.52
784.103	32.21
784.28	33.61
784.456	34.46
784.633	34.1
784.809	32.29
784.986	33.67
785.162	29.41
785.339	31.87
785.515	34.1
785.692	36.08
785.868	36.54
786.044	35.06
786.221	33.41
786.397	35.38
786.573	33.68
786.749	35.03
786.926	35.58
787.102	34.78
787.278	32.39
787.454	31.11
787.631	31.52
787.807	33.58
787.983	30.65
788.159	29.06
788.335	24.53
788.511	24.82
788.687	24.28
788.863	23.43
789.039	26.49
789.216	24.4
789.392	25.38
789.568	24.23
789.744	21.59
789.919	24.27
790.095	26.37
790.271	28.75
790.447	31.49
790.623	29.78
790.799	31.37
790.975	27.59
791.151	30.59
791.327	29.28
791.502	31.15
791.678	31.31
791.854	30.92
792.03	30.36
792.205	29.11
792.381	26.98
792.557	30.79
792.733	26.46
792.908	27.89
793.084	24.57
793.259	23.71
793.435	23.01
793.611	26.29
793.786	27.79
793.962	23.9
794.137	25.75
794.313	24.45
794.488	26.5
794.664	30.4
794.839	33.33
795.015	36.47
795.19	39.45
795.366	37.51
795.541	34.06
795.716	32.77
795.892	35.03
796.067	39.66
796.242	38.14
796.418	35.8
796.593	32.33
796.768	31.28
796.944	32.21
797.119	30.78
797.294	34.03
797.469	34.87
797.644	31.17
797.82	33.02
797.995	28.74
798.17	32.23
798.345	32.34
798.52	35.89
798.695	35.43
798.87	37.19
799.045	33.03
799.22	31.24
799.395	32.11
799.57	36.49
799.745	36.45
799.92	37.53
800.095	33.28
800.27	33.94
800.445	32.95
800.62	33.98
800.795	31.7
800.97	36.49
801.145	35.3
801.319	33.95
801.494	30.88
801.669	31.41
801.844	30.36
802.018	32.8
802.193	28.89
802.368	29.64
802.543	28.51
802.717	27.42
802.892	23.52
803.067	23.08
803.241	26.85
803.416	30.29
803.59	28.83
803.765	24.82
803.94	24.45
804.114	27
804.289	27.42
804.463	28.42
804.638	27.79
804.812	31.59
804.986	30.69
805.161	30.36
805.335	29.84
805.51	27.59
805.684	30.98
805.858	31.4
806.033	33.6
806.207	31.85
806.381	31.82
806.556	33.57
806.73	34.01
806.904	37.66
807.078	37.22
807.253	34.53
807.427	31.2
807.601	34.2
807.775	33.74
807.949	30.95
808.123	31.84
808.298	30.22
808.472	33.08
808.646	27.83
808.82	26.92
808.994	27.87
809.168	28.58
809.342	33.85
809.516	31.47
809.69	35.31
809.864	40.7
810.038	41.92
810.212	41.55
810.385	37.23
810.559	45.72
810.733	47.89
810.907	46.31
811.081	44.46
811.255	41.24
811.428	40.92
811.602	41.3
811.776	37.25
811.95	36.73
812.123	38.63
812.297	40.22
812.471	37.73
812.644	39.29
812.818	36.18
812.992	33.32
813.165	34.21
813.339	32.15
813.512	30.26
813.686	29.62
813.86	33.16
814.033	35.22
814.207	35.75
814.38	38.47
814.554	34.28
814.727	33.56
814.9	39.38
815.074	39.74
815.247	42.54
815.421	39.44
815.594	37.01
815.767	33.29
815.941	34.49
816.114	34.22
816.287	29.54
816.46	23.37
816.634	28.11
816.807	27.92
816.98	31.83
817.153	36.6
817.327	37.99
817.5	42.95
817.673	45.01
817.846	42.56
818.019	39.1
818.192	39.16
818.365	49.46
818.538	51.82
818.711	50.66
818.884	44.74
819.057	37.95
819.23	41.72
819.403	38.65
819.576	36.06
819.749	39.02
819.922	40.7
820.095	41.66
820.268	34.18
820.441	33.85
820.614	33.8
820.786	35.53
820.959	35.61
821.132	33.3
821.305	34.09
821.477	33.13
821.65	31.65
821.823	31.51
821.996	31.46
822.168	32.47
822.341	32.52
822.514	33.22
822.686	33.49
822.859	33.76
823.031	33.59
823.204	33.51
823.376	34.3
823.549	34.41
823.722	34.32
823.894	34.15
824.067	34.67
824.239	34.3
824.411	33.72
824.584	33.47
824.756	33.63
824.929	34
825.101	33.18
825.273	33.14
825.446	33.19
825.618	33.86
825.79	34.54
825.963	34.12
826.135	33.81
826.307	33.96
826.479	33.78
826.652	34.14
826.824	34.39
826.996	34.79
827.168	34.75
827.34	33.52
827.512	33.29
827.684	32.61
827.856	32.23
828.029	32.22
828.201	31.05
828.373	31.85
828.545	31.36
828.717	31.44
828.889	31.85
829.061	30.99
829.232	31.27
829.404	30.03
829.576	31.14
829.748	32.34
829.92	33.09
830.092	35.38
830.264	33.54
830.436	33.76
830.607	33.68
830.779	34.27
830.951	36.76
831.123	33.57
831.294	33.89
831.466	33.94
831.638	34.24
831.809	36.96
831.981	33.93
832.153	35.64
832.324	33.23
832.496	30.66
832.667	27.37
832.839	25.53
833.011	31.13
833.182	31.01
833.354	29.09
833.525	32.88
833.697	30.89
833.868	34.88
834.039	35.53
834.211	35.52
834.382	34.55
834.554	35.18
834.725	34.78
834.896	34.92
835.068	36.53
835.239	37.73
835.41	30.57
835.581	29.97
835.753	29.54
835.924	30.19
836.095	29.1
836.266	30.66
836.438	31.71
836.609	34.51
836.78	35.86
836.951	34.44
837.122	37.14
837.293	42.63
837.464	48.52
837.635	47.4
837.806	41.73
837.977	45.84
838.148	45.38
838.319	48.24
838.49	46.8
838.661	45.38
838.832	41.86
839.003	35.24
839.174	35.67
839.345	29.3
839.516	25.56
839.687	31.41
839.857	32.96
840.028	28.5
840.199	25.09
840.37	24.91
840.54	30.42
840.711	33.06
840.882	36.53
841.053	39.55
841.223	45.48
841.394	46.25
841.564	47.56
841.735	38.52
841.906	44.04
842.076	40.81
842.247	40.09
842.417	30.18
842.588	37.6
842.758	37.72
842.929	27.7
843.099	28.48
843.27	33.14
843.44	27.65
843.611	37
843.781	29.23
843.951	42.44
844.122	43.63
844.292	52.43
844.462	35.2
844.633	38.37
844.803	46.33
844.973	44.91
845.144	51.98
845.314	44.09
845.484	49.64
845.654	59
845.824	47.23
845.995	47.79
846.165	45.22
846.335	57.99
846.505	60.73
846.675	68.84
846.845	59.25
847.015	53.82
847.185	52.19
847.355	43.7
847.525	34.25
847.695	53.72
847.865	48.22
848.035	40.36
848.205	35.74
848.375	35.26
848.545	25.03
848.715	34.12
848.884	33
849.054	32.35
849.224	35.9
849.394	45.95
849.564	26.77
849.733	33
849.903	28.73
850.073	32.11
850.243	27.21
850.412	33.37
850.582	38.54
850.752	33.37
850.921	44.44
851.091	47.24
851.26	60.99
851.43	75.37
851.599	63.6
851.769	67.23
851.939	75.68
852.108	58.89
852.278	57.47
852.447	50.45
852.616	57.59
852.786	45.11
852.955	49.89
853.125	38.17
853.294	40.84
853.463	42.21
853.633	52.11
853.802	39.33
853.971	54.11
854.141	54.19
854.31	60.4
854.479	43.02
854.648	27.13
854.818	21.8
854.987	16.95
855.156	1.79
855.325	2.13
855.494	-7.1
855.663	-5.79
855.832	-4.35
856.001	-18.25
856.171	-25.6
856.34	-33.85
856.509	14.34
856.678	14.76
856.847	6.91
857.016	17.14
857.185	13.34
857.353	44.05
857.522	37.99
857.691	12.71
857.86	7.37
858.029	11.06
858.198	16.37
858.367	17.86
858.535	14.73
858.704	16.83
858.873	27.13
859.042	29.86
859.21	27.84
859.379	16.07
859.548	35.26
859.717	51.45
859.885	51.78
860.054	46.37
860.222	29.19
860.391	41.91
860.56	65.85
860.728	53.48
860.897	49.38
861.065	46.72
861.234	53.48
861.402	43.4
861.571	42.74
861.739	47.88
861.908	43.95
862.076	70.56
862.244	67.77
862.413	53.75
862.581	61.78
862.749	67.89
862.918	42.55
863.086	26.28
863.254	34.54
863.423	43.61
863.591	39.81
863.759	61.58
863.927	21.59
864.096	16.72
864.264	32.54
864.432	31.33
864.6	28.2
864.768	23.97
864.936	23.18
865.104	32.14
865.272	12.03
865.44	5.08
865.608	-5.09
865.776	12.54
865.944	13.81
866.112	-11.46
866.28	-3.71
866.448	27.58
866.616	54.65
866.784	74.98
866.952	100.44
867.12	104.36
867.288	140.96
867.455	148.04
867.623	114.14
867.791	112.07
867.959	122.3
868.127	226.77
868.294	216.95
868.462	156.22
868.63	203.02
868.797	91.68
868.965	1671.91
869.133	135
869.3	102.2
869.468	110.54
869.636	98.1
869.803	71.49
869.971	58.43
870.138	58.36
870.306	43.38
870.473	32.52
870.641	53.71
870.808	30.55
870.975	-1.63
871.143	59.89
871.31	57.26
871.478	64.1
871.645	226.35
871.812	351.41
871.98	261.19
872.147	345.72
872.314	269.18
872.482	170.83
872.649	118.18
872.816	85.55
872.983	65.78
873.15	71.96
873.318	64.33
873.485	32.7
873.652	26.18
873.819	30.13
873.986	18.29
874.153	27.27
874.32	16.76
874.487	16.55
874.654	45.79
874.821	64.42
874.988	77.24
875.155	88.44
875.322	114.18
875.489	83.24
875.656	70.75
875.823	71.74
875.99	92.99
876.157	131.24
876.324	171.68
876.49	94.82
876.657	66.63
876.824	75.89
876.991	87.39
877.157	82.24
877.324	166.81
877.491	302.94
877.658	182.96
877.824	111.5
877.991	64.84
878.157	76.84
878.324	90.16
878.491	122.05
878.657	144.82
878.824	103.55
878.99	151.34
879.157	106.91
879.323	88.51
879.49	112.32
879.656	108.77
879.823	103.81
879.989	95.29
880.156	88.29
880.322	87.17
880.488	84.62
880.655	72.59
880.821	47.11
880.987	39.11
881.154	31.34
881.32	3.81
881.486	-3.67
881.652	0.39
881.819	0.45
881.985	2.78
882.151	7.29
882.317	14.11
882.483	16.28
882.649	19.88
882.816	24.62
882.982	25.71
883.148	33.32
883.314	33.55
883.48	34.25
883.646	34.54
883.812	37.32
883.978	37.69
884.144	36.76
884.31	37.86
884.476	39.15
884.642	35.25
884.807	35.67
884.973	32.86
885.139	33.14
885.305	33.11
885.471	26.35
885.637	25.31
885.802	24.69
885.968	26.91
886.134	24.55
886.3	20.94
886.465	21.44
886.631	18.65
886.797	24.74
886.962	28.41
887.128	29.21
887.293	34.9
887.459	29.73
887.625	22.68
887.79	16.96
887.956	14.26
888.121	16.65
888.287	16.37
888.452	20.7
888.618	3.01
888.783	-9.35
