Data from 2937860_Reflection_2.txt Node
Date: Wed Jul 15 15:27:37 EDT 2015
User: robert
Spectrometer: USB4E03001
Autoset integration time: false
Trigger mode: 4
Integration Time (sec): 1.000000E-1
Scans to average: 10
Electric dark correction enabled: true
Nonlinearity correction enabled: false
Boxcar width: 5
Stray light correction enabled: false
XAxis mode: Wavelengths
Stop averaging: false
Number of Pixels in Spectrum: 3648
>>>>>Begin Spectral Data<<<<<
177.566	4.14
177.785	31.92
178.005	81.12
178.225	63.56
178.445	54.94
178.665	-66.76
178.885	-5362.22
179.105	429.44
179.324	188.14
179.544	46.52
179.764	54.11
179.984	48.48
180.204	56.83
180.423	86.33
180.643	44.53
180.863	58.34
181.083	49.11
181.302	83.33
181.522	23.9
181.742	23.79
181.961	-22.47
182.181	-21.15
182.401	-112.07
182.621	-33.27
182.84	-39.01
183.06	1.72
183.279	49.65
183.499	52.45
183.719	77.72
183.938	165.15
184.158	143.83
184.377	128.88
184.597	57.57
184.816	51.36
185.036	24.03
185.256	36.81
185.475	-32.37
185.695	-175.56
185.914	-731.62
186.134	-467.31
186.353	-357.21
186.572	-276.86
186.792	-166.6
187.011	-83.46
187.231	-27.8
187.45	9.99
187.67	2.35
187.889	22.89
188.108	10.38
188.328	65.52
188.547	75.09
188.766	66.45
188.986	79.93
189.205	55.91
189.424	49.2
189.644	1.27
189.863	-135.89
190.082	-780.46
190.302	2742.79
190.521	-192.79
190.74	-194.33
190.959	-308.92
191.178	-184.7
191.398	-292.85
191.617	-281.19
191.836	-208.92
192.055	-141
192.274	-96.83
192.494	-34.71
192.713	-2.03
192.932	20.99
193.151	8.12
193.37	31.38
193.589	-1886.36
193.808	22.38
194.027	-123.66
194.246	66.4
194.465	75.23
194.685	-6.02
194.904	23
195.123	29.45
195.342	-8.33
195.561	-48.54
195.78	-35.41
195.999	-17.53
196.218	-26.17
196.436	-25.09
196.655	-45.57
196.874	-64.56
197.093	-30.99
197.312	-42.96
197.531	-93.23
197.75	-85.37
197.969	-22.56
198.188	-26.91
198.407	18.97
198.625	-3.89
198.844	-47.42
199.063	-95.57
199.282	-66.32
199.501	-67.86
199.719	-249.52
199.938	-100.05
200.157	-52.27
200.376	-25.07
200.594	-33.62
200.813	-104.36
201.032	-33.55
201.251	-45.35
201.469	-50.34
201.688	-66.4
201.907	-109.68
202.125	-61.01
202.344	-89.54
202.563	-179.32
202.781	-970.17
203	-533.69
203.218	-516.89
203.437	38455
203.656	3558.09
203.874	-689.54
204.093	-549.63
204.311	-172.18
204.53	-437.3
204.748	-108.78
204.967	-94.82
205.185	-59.51
205.404	-88.07
205.622	-57.65
205.841	-46.09
206.059	1.17
206.278	-0.41
206.496	2.97
206.715	36.54
206.933	75.15
207.151	64.27
207.37	51.66
207.588	60.77
207.806	59.38
208.025	49.13
208.243	16.11
208.461	25.53
208.68	52.91
208.898	50.21
209.116	50.41
209.335	27.15
209.553	56.25
209.771	72.53
209.989	87.3
210.208	77.68
210.426	82.79
210.644	133.55
210.862	112.53
211.081	115.39
211.299	73.41
211.517	49.58
211.735	69.93
211.953	50.53
212.171	43.38
212.39	35.33
212.608	24.73
212.826	18.66
213.044	13.24
213.262	8.16
213.48	3.31
213.698	9.32
213.916	6.4
214.134	-35.56
214.352	-21.09
214.57	-6.74
214.788	13.17
215.006	45.84
215.224	53.97
215.442	54.31
215.66	46.09
215.878	43.34
216.096	29.11
216.314	49.01
216.532	54.31
216.75	39.35
216.968	14.96
217.185	6.98
217.403	-33.36
217.621	-33.15
217.839	-101.66
218.057	-84.68
218.275	-41.37
218.492	-22.93
218.71	-121.01
218.928	-249.22
219.146	-164.46
219.363	-99.12
219.581	-46.56
219.799	-11.81
220.017	-32.53
220.234	-17.53
220.452	-25.38
220.67	-42.89
220.887	-48.47
221.105	-33.16
221.323	-41.22
221.54	-43.62
221.758	-60.87
221.976	-89.9
222.193	-64.09
222.411	-25.84
222.629	-20.18
222.846	-15.44
223.064	-7.07
223.281	-8.8
223.499	2.3
223.716	18.4
223.934	23.39
224.151	30.25
224.369	35.24
224.586	26.18
224.804	27.9
225.021	32.83
225.239	25.02
225.456	18.7
225.674	25.06
225.891	21.69
226.108	13.63
226.326	4.98
226.543	7.57
226.76	4.41
226.978	0.24
227.195	3.78
227.413	6.3
227.63	12.85
227.847	14.29
228.064	14.46
228.282	10.61
228.499	10.96
228.716	11.58
228.934	9.99
229.151	14.11
229.368	16.1
229.585	14.71
229.802	13.34
230.02	12.23
230.237	10.79
230.454	8.53
230.671	8.88
230.888	11.25
231.105	12.77
231.323	10.3
231.54	3.53
231.757	-0.18
231.974	-5.37
232.191	-4.48
232.408	-9.82
232.625	-5.87
232.842	-3.68
233.059	-2.48
233.276	-4.78
233.493	-3.37
233.71	0.01
233.927	2.57
234.144	1.35
234.361	4.74
234.578	7.6
234.795	10.12
235.012	8.96
235.229	8.61
235.446	10.19
235.663	11.21
235.879	14.13
236.096	16.97
236.313	15.23
236.53	18.4
236.747	18.38
236.964	14.92
237.181	16.19
237.397	20.46
237.614	25.86
237.831	25.68
238.048	22.44
238.264	17.82
238.481	16.71
238.698	23.34
238.915	20.96
239.131	18.06
239.348	21.7
239.565	22.24
239.781	21.26
239.998	19.08
240.215	15.47
240.431	18.3
240.648	19.9
240.865	20.54
241.081	15.33
241.298	16.91
241.514	17.26
241.731	17.78
241.947	16.73
242.164	16.17
242.38	14.49
242.597	15.96
242.814	13.78
243.03	13.13
243.246	12.56
243.463	14.26
243.679	13.54
243.896	13.71
244.112	12.24
244.329	11.25
244.545	9.79
244.762	9.08
244.978	8.06
245.194	9.26
245.411	10.3
245.627	7.91
245.843	9
246.06	10.71
246.276	12.2
246.492	11.97
246.709	13.25
246.925	13.25
247.141	13.7
247.357	13.39
247.574	14.12
247.79	13.96
248.006	14.98
248.222	14.38
248.439	12.81
248.655	12.24
248.871	12.75
249.087	11.98
249.303	11.27
249.519	10.77
249.736	10.41
249.952	9.63
250.168	9.48
250.384	10.85
250.6	9
250.816	12.51
251.032	12.85
251.248	12.43
251.464	13.21
251.68	14.01
251.896	13.66
252.112	12.86
252.328	12.49
252.544	11.64
252.76	10.69
252.976	12.03
253.192	11.86
253.408	10.64
253.624	8.22
253.84	8.28
254.056	8.2
254.272	7.37
254.487	9.76
254.703	7.37
254.919	6.87
255.135	6.92
255.351	7.03
255.567	5.53
255.782	4.91
255.998	7.37
256.214	5.48
256.43	7.01
256.646	10.23
256.861	8.37
257.077	10.56
257.293	11.65
257.508	9.88
257.724	8.84
257.94	8.91
258.155	10.23
258.371	10.6
258.587	12.09
258.802	11.71
259.018	9.61
259.234	10.17
259.449	10.54
259.665	9.7
259.88	9.83
260.096	10.64
260.312	10.62
260.527	10.36
260.743	10.06
260.958	9.14
261.174	8.67
261.389	9.75
261.605	9.26
261.82	8.08
262.036	8.43
262.251	8.14
262.466	6.26
262.682	6.73
262.897	5.79
263.113	5.96
263.328	5.49
263.543	7.35
263.759	5.36
263.974	4.57
264.189	4.1
264.405	3.62
264.62	4.53
264.835	4.75
265.051	2.67
265.266	4.38
265.481	5.11
265.696	7.34
265.912	5.09
266.127	6.92
266.342	8.09
266.557	10.04
266.773	10.1
266.988	10.12
267.203	10.59
267.418	11.4
267.633	10.82
267.848	9.41
268.064	7.81
268.279	7.5
268.494	6.68
268.709	5.75
268.924	5.46
269.139	6.62
269.354	7.4
269.569	7.58
269.784	7.84
269.999	7.84
270.214	9.41
270.429	10.88
270.644	11.84
270.859	11.47
271.074	12
271.289	11.43
271.504	10.35
271.719	9
271.934	8.23
272.149	7.56
272.363	7.01
272.578	6.18
272.793	4.65
273.008	4.86
273.223	4.91
273.438	4.59
273.653	5.07
273.867	5.82
274.082	6.39
274.297	6.16
274.512	5.41
274.726	5.34
274.941	3.98
275.156	6.06
275.371	7.58
275.585	7.8
275.8	8.69
276.015	8.88
276.229	8.2
276.444	7.86
276.659	9.66
276.873	11.51
277.088	11.9
277.302	11.94
277.517	10.67
277.732	8.83
277.946	9.08
278.161	8.79
278.375	9.33
278.59	9.77
278.804	9.2
279.019	9.77
279.233	10.66
279.448	10.7
279.662	12.34
279.877	11.5
280.091	11.96
280.306	12.08
280.52	9.99
280.735	9.13
280.949	8.05
281.163	8.35
281.378	8.15
281.592	6.52
281.806	6.11
282.021	6.74
282.235	6.51
282.449	6.62
282.664	5.75
282.878	7.64
283.092	8.05
283.307	8.75
283.521	8.23
283.735	7.97
283.949	7.52
284.164	7.99
284.378	7.14
284.592	7.87
284.806	6.55
285.02	8.18
285.234	7.26
285.449	7.03
285.663	6.56
285.877	8.17
286.091	7.91
286.305	8.34
286.519	8.28
286.733	9.11
286.947	9.33
287.161	9.79
287.375	9.51
287.589	9.83
287.803	9.79
288.017	10.63
288.231	9.26
288.445	9.08
288.659	8.87
288.873	9.25
289.087	7.96
289.301	8.98
289.515	8.93
289.729	8.29
289.943	7.28
290.157	7.99
290.371	7.72
290.584	8.29
290.798	8.46
291.012	7.88
291.226	7.35
291.44	8.33
291.654	7.21
291.867	7.12
292.081	7
292.295	7.38
292.509	6.59
292.722	6.06
292.936	6.95
293.15	6.24
293.364	8.31
293.577	8.32
293.791	7.68
294.005	9.27
294.218	9.28
294.432	10.15
294.645	11.68
294.859	11.03
295.073	11.87
295.286	11.39
295.5	11.51
295.713	11.17
295.927	10.99
296.14	11.33
296.354	9.82
296.568	10.57
296.781	10.83
296.994	11.15
297.208	11.82
297.421	11.32
297.635	10.77
297.848	12.37
298.062	11.26
298.275	11.89
298.489	11.53
298.702	12.7
298.915	12.72
299.129	12.54
299.342	13.13
299.555	13.18
299.769	13.83
299.982	14.87
300.195	14.47
300.409	15.92
300.622	15.88
300.835	17.05
301.048	16.75
301.262	16.36
301.475	16.52
301.688	15.86
301.901	16.09
302.115	16.86
302.328	15.99
302.541	14.76
302.754	14.01
302.967	14.47
303.18	13.23
303.393	11.54
303.607	10.84
303.82	9.76
304.033	10.62
304.246	8.52
304.459	6.56
304.672	7.53
304.885	7.76
305.098	6.99
305.311	7.14
305.524	7.87
305.737	9.04
305.95	8.7
306.163	9.55
306.376	9.59
306.589	10.29
306.802	10.55
307.015	11.31
307.228	11.37
307.44	12.08
307.653	9.75
307.866	9.45
308.079	8.72
308.292	8.77
308.505	8.71
308.718	6.77
308.93	8.49
309.143	8.71
309.356	8.09
309.569	8.68
309.781	8.25
309.994	10.72
310.207	11.79
310.42	13.05
310.632	14.05
310.845	14.45
311.058	14.82
311.27	14.79
311.483	15.17
311.696	15.04
311.908	14.19
312.121	15.02
312.333	13.16
312.546	11.22
312.759	10.45
312.971	8.99
313.184	7.84
313.396	8.61
313.609	8.27
313.821	7.9
314.034	8.08
314.246	8.95
314.459	9.56
314.671	10.79
314.884	12.43
315.096	12.64
315.309	14.15
315.521	14.34
315.733	13.56
315.946	13.65
316.158	15.41
316.371	15.34
316.583	14.16
316.795	12.9
317.008	12.81
317.22	12.34
317.432	11.76
317.644	10.43
317.857	11.78
318.069	11.46
318.281	10.6
318.494	9.07
318.706	9.82
318.918	10.66
319.13	10.95
319.342	10.54
319.555	11.7
319.767	11.5
319.979	13.08
320.191	11.51
320.403	10.78
320.615	11.18
320.827	10.41
321.039	10.48
321.252	10.02
321.464	10.29
321.676	11.9
321.888	11.2
322.1	12.35
322.312	10.4
322.524	11.64
322.736	13.19
322.948	13.5
323.16	12.77
323.372	12.2
323.584	12.41
323.796	11.91
324.007	10.05
324.219	8.98
324.431	8.93
324.643	9.96
324.855	9.41
325.067	9.19
325.279	9.27
325.491	9.61
325.702	9.69
325.914	10.62
326.126	12.42
326.338	13.47
326.55	13.29
326.761	12.7
326.973	12.6
327.185	13.76
327.396	12.89
327.608	11.71
327.82	11.96
328.032	11.29
328.243	10.71
328.455	6.77
328.666	6.07
328.878	6.03
329.09	6.51
329.301	7.17
329.513	6.32
329.725	7.98
329.936	9.36
330.148	10.42
330.359	10.46
330.571	10.34
330.782	12.87
330.994	13.27
331.205	14.77
331.417	14.41
331.628	13.44
331.84	11.87
332.051	10.92
332.262	10.89
332.474	11.21
332.685	9.81
332.897	9.49
333.108	11.47
333.319	10.01
333.531	10.29
333.742	11.62
333.953	11.67
334.165	12.92
334.376	12.3
334.587	11.78
334.799	10.82
335.01	12.56
335.221	11.7
335.432	10.79
335.644	10.71
335.855	8.97
336.066	7.67
336.277	8.12
336.488	7.29
336.7	8.11
336.911	8.91
337.122	9.65
337.333	8.98
337.544	9.67
337.755	8.71
337.966	9.57
338.177	9.9
338.388	10.28
338.599	10.82
338.811	11.46
339.022	10.51
339.233	10.09
339.444	9.28
339.655	9.26
339.866	9.65
340.076	9.92
340.287	10.31
340.498	10.46
340.709	10.35
340.92	9.63
341.131	10.81
341.342	11.71
341.553	9.86
341.764	10.51
341.975	10.77
342.185	10.93
342.396	10.61
342.607	9.96
342.818	10.78
343.029	11.14
343.239	10.87
343.45	9.15
343.661	8.88
343.872	10.49
344.082	9.39
344.293	8.61
344.504	7.91
344.714	8.45
344.925	9.64
345.136	9.49
345.346	9.21
345.557	9.42
345.768	10.16
345.978	10.23
346.189	10.46
346.399	11.6
346.61	12.02
346.821	12.78
347.031	12.85
347.242	12.08
347.452	11.34
347.663	10.72
347.873	11.89
348.084	11.12
348.294	11.25
348.504	11.71
348.715	11.24
348.925	11.03
349.136	11.14
349.346	10.95
349.557	10.38
349.767	10.38
349.977	12.09
350.188	12.06
350.398	12.06
350.608	12.54
350.819	11.2
351.029	11.93
351.239	13.09
351.449	12.72
351.66	13.67
351.87	14.45
352.08	15.69
352.29	14.11
352.501	13.35
352.711	13.4
352.921	12.61
353.131	12.86
353.341	12.2
353.552	11.73
353.762	11.43
353.972	10.71
354.182	10.05
354.392	8.67
354.602	9.3
354.812	9.15
355.022	9.81
355.232	10.04
355.442	9.98
355.652	9.98
355.862	9.56
356.072	8.98
356.282	9.04
356.492	8.78
356.702	9.34
356.912	8.88
357.122	9.01
357.332	8.24
357.542	8.59
357.752	9.52
357.962	9.24
358.171	9.61
358.381	10.79
358.591	10.76
358.801	11.69
359.011	12.06
359.221	11.65
359.43	11.09
359.64	11.08
359.85	10.53
360.06	9.68
360.269	10.52
360.479	10.02
360.689	9.97
360.899	9.87
361.108	9.23
361.318	9.46
361.528	10.03
361.737	10.33
361.947	10.64
362.156	11.14
362.366	10.84
362.576	10.17
362.785	10.34
362.995	9.63
363.204	9.92
363.414	10.55
363.623	10.42
363.833	10.04
364.042	9.77
364.252	9.41
364.461	8.49
364.671	8.51
364.88	8.51
365.09	8.07
365.299	8.16
365.509	8.15
365.718	8.24
365.927	7.42
366.137	7.58
366.346	7.01
366.555	7.44
366.765	7.42
366.974	7.64
367.183	8.07
367.393	8.47
367.602	8.26
367.811	8.1
368.021	7.94
368.23	8.2
368.439	8.1
368.648	8.13
368.857	7.76
369.067	8.24
369.276	8.04
369.485	6.29
369.694	6.03
369.903	6.09
370.112	5.48
370.321	4.91
370.531	5.41
370.74	5.54
370.949	5.68
371.158	5.85
371.367	5.13
371.576	5.7
371.785	7.06
371.994	6.89
372.203	7.44
372.412	7.62
372.621	7.75
372.83	7.4
373.039	7.83
373.248	8.2
373.457	8.16
373.666	8.04
373.874	7.74
374.083	7.43
374.292	8.01
374.501	7.75
374.71	7.25
374.919	7.48
375.128	7.34
375.336	6.72
375.545	6.29
375.754	5.85
375.963	6.08
376.171	6.01
376.38	6.04
376.589	5.88
376.798	5.43
377.006	5.73
377.215	5.33
377.424	5.22
377.632	4.85
377.841	5.5
378.05	5.79
378.258	5.96
378.467	5.79
378.675	5.88
378.884	6.53
379.093	7.12
379.301	7.21
379.51	7.35
379.718	7.43
379.927	8.09
380.135	7.83
380.344	7.79
380.552	7.53
380.761	7.37
380.969	6.89
381.177	5.84
381.386	5.43
381.594	4.9
381.803	4.93
382.011	5.19
382.219	4.92
382.428	4.69
382.636	4.41
382.845	4.45
383.053	4.6
383.261	5.24
383.469	5.53
383.678	5.99
383.886	6.3
384.094	6.27
384.302	5.8
384.511	5.64
384.719	6.02
384.927	6.1
385.135	6.76
385.343	7.01
385.552	6.75
385.76	6.42
385.968	5.78
386.176	5.69
386.384	5.67
386.592	6.29
386.8	6.73
387.008	6.4
387.216	6.75
387.424	6.53
387.633	6.12
387.841	6.37
388.049	6.59
388.257	6.5
388.465	6.16
388.672	5.89
388.88	5.25
389.088	4.59
389.296	4.76
389.504	4.33
389.712	4.05
389.92	4.01
390.128	3.7
390.336	3.66
390.544	4.37
390.751	4.56
390.959	4.93
391.167	5.58
391.375	5.71
391.583	5.4
391.79	5.74
391.998	5.66
392.206	5.79
392.414	5.68
392.621	5.52
392.829	5.2
393.037	5.53
393.244	5.29
393.452	4.68
393.66	5.11
393.867	5.08
394.075	4.79
394.283	4.95
394.49	4.85
394.698	4.87
394.905	5.15
395.113	5.15
395.32	4.94
395.528	5.14
395.735	5.46
395.943	5.33
396.15	5.66
396.358	5.82
396.565	5.79
396.773	5.91
396.98	6.25
397.188	6.39
397.395	6.19
397.602	6.25
397.81	5.82
398.017	6.02
398.225	5.77
398.432	5.57
398.639	5.44
398.847	5.23
399.054	5.26
399.261	4.93
399.468	4.54
399.676	4.64
399.883	4.91
400.09	4.81
400.297	4.27
400.505	4.07
400.712	4
400.919	4.02
401.126	4.18
401.333	4.09
401.54	4.24
401.748	4.54
401.955	4.56
402.162	4.29
402.369	4.21
402.576	4.44
402.783	4.68
402.99	4.62
403.197	4.7
403.404	4.48
403.611	4.69
403.818	4.58
404.025	4.18
404.232	4.37
404.439	4.09
404.646	4.51
404.853	4.49
405.06	4.54
405.267	4.87
405.474	4.89
405.681	5.13
405.887	5.02
406.094	5.02
406.301	5.18
406.508	4.93
406.715	5.17
406.922	5.05
407.128	4.81
407.335	4.68
407.542	4.32
407.749	4.04
407.955	3.92
408.162	3.91
408.369	4.22
408.575	4.42
408.782	4.42
408.989	4.11
409.195	4.09
409.402	4.43
409.609	4.54
409.815	4.57
410.022	4.49
410.228	4.66
410.435	4.67
410.642	4.57
410.848	4.47
411.055	4.48
411.261	4.82
411.468	4.91
411.674	4.91
411.881	4.73
412.087	4.95
412.294	5.05
412.5	4.85
412.706	5.06
412.913	5
413.119	4.86
413.326	5.11
413.532	5.22
413.738	5.37
413.945	5.16
414.151	5.4
414.357	5.49
414.564	5.69
414.77	5.74
414.976	5.59
415.182	5.47
415.389	5.44
415.595	5.34
415.801	5.1
416.007	4.94
416.214	4.96
416.42	4.7
416.626	4.41
416.832	4.3
417.038	4.41
417.244	4.21
417.45	4.36
417.657	4.42
417.863	4.27
418.069	4.36
418.275	4.42
418.481	4.52
418.687	4.61
418.893	4.74
419.099	4.79
419.305	4.69
419.511	4.82
419.717	4.77
419.923	4.63
420.129	4.61
420.335	4.45
420.541	4.32
420.746	4.33
420.952	4.29
421.158	4.13
421.364	4.14
421.57	4.1
421.776	4.14
421.982	3.93
422.187	3.96
422.393	3.94
422.599	4.07
422.805	3.96
423.01	3.97
423.216	4.02
423.422	4.11
423.628	4.08
423.833	3.98
424.039	3.93
424.245	4.07
424.45	4.14
424.656	4.09
424.862	4.05
425.067	4.34
425.273	4.2
425.478	4.24
425.684	4.29
425.889	4.26
426.095	4.42
426.301	4.38
426.506	4.33
426.712	4.35
426.917	4.63
427.123	4.66
427.328	4.58
427.533	4.7
427.739	4.56
427.944	4.69
428.15	4.79
428.355	4.88
428.561	4.87
428.766	4.84
428.971	4.96
429.177	4.88
429.382	4.83
429.587	4.54
429.793	4.51
429.998	4.45
430.203	4.18
430.408	4.02
430.614	3.86
430.819	3.84
431.024	3.88
431.229	3.48
431.434	3.35
431.64	3.21
431.845	3.44
432.05	3.41
432.255	3.6
432.46	3.56
432.665	3.35
432.87	3.38
433.076	3.45
433.281	3.38
433.486	3.66
433.691	3.87
433.896	4.03
434.101	3.99
434.306	4.05
434.511	4
434.716	3.99
434.921	4.25
435.126	4.13
435.331	4.13
435.535	4.2
435.74	4.05
435.945	3.9
436.15	3.93
436.355	3.73
436.56	3.61
436.765	3.48
436.97	3.58
437.174	3.59
437.379	3.67
437.584	3.55
437.789	3.54
437.993	3.68
438.198	3.5
438.403	3.32
438.608	3.3
438.812	3.38
439.017	3.31
439.222	3.31
439.426	3.28
439.631	3.46
439.836	3.58
440.04	3.61
440.245	3.44
440.45	3.57
440.654	3.62
440.859	3.79
441.063	3.76
441.268	3.77
441.472	3.71
441.677	3.57
441.881	3.37
442.086	3.2
442.29	3.03
442.495	3.2
442.699	3.1
442.904	3.06
443.108	3.04
443.312	3.15
443.517	3.28
443.721	3.38
443.925	3.57
444.13	3.51
444.334	3.72
444.538	3.83
444.743	3.72
444.947	3.76
445.151	3.81
445.356	3.65
445.56	3.48
445.764	3.5
445.968	3.54
446.173	3.41
446.377	3.6
446.581	3.46
446.785	3.6
446.989	3.66
447.193	3.65
447.398	3.62
447.602	3.7
447.806	3.75
448.01	3.67
448.214	3.63
448.418	3.76
448.622	3.66
448.826	3.78
449.03	3.64
449.234	3.57
449.438	3.56
449.642	3.6
449.846	3.66
450.05	3.73
450.254	3.61
450.458	3.64
450.662	3.72
450.866	3.63
451.069	3.42
451.273	3.33
451.477	3.22
451.681	3.18
451.885	3.23
452.089	3.07
452.292	2.9
452.496	3.19
452.7	3.12
452.904	3.05
453.107	3.11
453.311	3.32
453.515	3.38
453.719	3.51
453.922	3.59
454.126	3.59
454.33	3.68
454.533	3.83
454.737	3.6
454.94	3.77
455.144	3.7
455.348	3.62
455.551	3.58
455.755	3.48
455.958	3.5
456.162	3.36
456.365	3.31
456.569	3.39
456.772	3.43
456.976	3.48
457.179	3.33
457.383	3.41
457.586	3.44
457.79	3.39
457.993	3.64
458.196	3.57
458.4	3.7
458.603	3.56
458.807	3.58
459.01	3.49
459.213	3.51
459.417	3.46
459.62	3.48
459.823	3.53
460.026	3.55
460.23	3.45
460.433	3.46
460.636	3.43
460.839	3.51
461.042	3.45
461.246	3.62
461.449	3.55
461.652	3.41
461.855	3.36
462.058	3.35
462.261	3.46
462.464	3.49
462.668	3.37
462.871	3.5
463.074	3.65
463.277	3.41
463.48	3.12
463.683	3.09
463.886	3.11
464.089	3.18
464.292	3.03
464.495	2.82
464.698	2.78
464.901	3.06
465.104	2.89
465.306	2.8
465.509	3.05
465.712	3.24
465.915	3.53
466.118	3.65
466.321	3.51
466.524	3.57
466.726	3.72
466.929	3.77
467.132	3.56
467.335	3.58
467.538	3.39
467.74	2.99
467.943	2.86
468.146	2.68
468.348	2.59
468.551	2.61
468.754	2.64
468.956	2.53
469.159	2.69
469.362	2.69
469.564	2.75
469.767	2.88
469.969	3.35
470.172	3.49
470.375	3.5
470.577	3.73
470.78	3.8
470.982	3.76
471.185	3.8
471.387	3.51
471.59	3.63
471.792	3.45
471.995	3.48
472.197	3.42
472.399	3.4
472.602	3.45
472.804	3.43
473.007	3.35
473.209	3.26
473.411	3.4
473.614	3.7
473.816	3.63
474.018	3.73
474.22	3.95
474.423	3.86
474.625	3.7
474.827	3.84
475.03	3.85
475.232	4.01
475.434	4.25
475.636	4.06
475.838	3.75
476.04	3.84
476.243	3.99
476.445	3.72
476.647	3.55
476.849	3.57
477.051	3.44
477.253	3.33
477.455	3.17
477.657	3.06
477.859	3.06
478.061	3.21
478.263	2.99
478.465	2.9
478.667	3.04
478.869	3.2
479.071	3.39
479.273	3.32
479.475	3.4
479.677	3.51
479.879	3.57
480.081	3.61
480.283	3.38
480.485	3.52
480.686	3.61
480.888	3.53
481.09	3.66
481.292	3.66
481.494	3.53
481.695	3.51
481.897	3.36
482.099	3.31
482.301	3.32
482.502	3.41
482.704	3.28
482.906	3.18
483.107	3.1
483.309	3.11
483.511	3.02
483.712	3.02
483.914	3.06
484.115	3.11
484.317	3.09
484.519	3.06
484.72	3.06
484.922	3.17
485.123	3.18
485.325	3.17
485.526	3.13
485.728	3.18
485.929	3.2
486.131	3.2
486.332	3.17
486.534	3.27
486.735	3.33
486.936	3.34
487.138	3.24
487.339	3.2
487.541	3.25
487.742	3.25
487.943	3.23
488.144	3.33
488.346	3.25
488.547	3.26
488.748	3.26
488.95	3.29
489.151	3.32
489.352	3.36
489.553	3.48
489.755	3.57
489.956	3.61
490.157	3.7
490.358	3.7
490.559	3.68
490.76	3.65
490.961	3.57
491.163	3.51
491.364	3.48
491.565	3.45
491.766	3.35
491.967	3.26
492.168	3.15
492.369	3.06
492.57	3.02
492.771	3.07
492.972	3.11
493.173	3.08
493.374	3.12
493.575	3.08
493.776	3.14
493.976	3.15
494.177	3.18
494.378	3.32
494.579	3.49
494.78	3.4
494.981	3.33
495.182	3.33
495.382	3.27
495.583	3.24
495.784	3.43
495.985	3.3
496.185	3.42
496.386	3.46
496.587	3.45
496.788	3.33
496.988	3.41
497.189	3.47
497.39	3.52
497.59	3.72
497.791	3.62
497.992	3.48
498.192	3.55
498.393	3.49
498.593	3.57
498.794	3.62
498.994	3.75
499.195	3.8
499.395	3.73
499.596	3.82
499.796	3.73
499.997	3.7
500.197	3.73
500.398	3.76
500.598	3.73
500.799	3.74
500.999	3.76
501.199	3.62
501.4	3.6
501.6	3.86
501.801	3.59
502.001	3.58
502.201	3.66
502.402	3.64
502.602	3.69
502.802	3.67
503.002	3.57
503.203	3.6
503.403	3.62
503.603	3.69
503.803	3.61
504.003	3.8
504.204	3.9
504.404	3.8
504.604	3.74
504.804	3.69
505.004	3.75
505.204	3.9
505.404	3.74
505.604	3.87
505.804	3.8
506.005	3.72
506.205	3.66
506.405	3.56
506.605	3.66
506.805	3.72
507.005	3.71
507.204	3.73
507.404	3.78
507.604	3.92
507.804	3.72
508.004	3.61
508.204	3.68
508.404	3.74
508.604	3.62
508.804	3.61
509.003	3.76
509.203	3.79
509.403	3.76
509.603	3.71
509.803	3.68
510.002	3.75
510.202	3.88
510.402	3.91
510.602	3.92
510.801	3.99
511.001	3.9
511.201	3.87
511.4	3.89
511.6	3.9
511.8	3.89
511.999	3.92
512.199	3.9
512.398	3.75
512.598	3.71
512.797	3.75
512.997	3.67
513.197	3.9
513.396	3.75
513.596	3.81
513.795	3.84
513.994	3.94
514.194	3.79
514.393	3.87
514.593	4.13
514.792	4.11
514.992	4.01
515.191	4.08
515.39	3.92
515.59	4.12
515.789	4.01
515.988	4.07
516.188	4.02
516.387	4.16
516.586	4.15
516.786	4.06
516.985	4.08
517.184	4.02
517.383	4.09
517.582	4.11
517.782	4.08
517.981	4.32
518.18	4.33
518.379	4.27
518.578	4.32
518.777	4.36
518.976	4.37
519.176	4.35
519.375	4.44
519.574	4.39
519.773	4.49
519.972	4.38
520.171	4.33
520.37	4.27
520.569	4.33
520.768	4.26
520.967	4.23
521.166	4.33
521.365	4.45
521.564	4.36
521.762	4.49
521.961	4.49
522.16	4.55
522.359	4.38
522.558	4.42
522.757	4.54
522.956	4.69
523.154	4.66
523.353	4.59
523.552	4.52
523.751	4.68
523.949	4.8
524.148	4.71
524.347	4.86
524.546	5.02
524.744	5.04
524.943	5.03
525.142	5.18
525.34	5.3
525.539	5.37
525.737	5.31
525.936	5.31
526.135	5.3
526.333	5.43
526.532	5.35
526.73	5.31
526.929	5.3
527.127	5.27
527.326	5.19
527.524	5.09
527.723	5.05
527.921	5.17
528.12	5.23
528.318	5.21
528.516	5.21
528.715	5.28
528.913	5.29
529.112	5.26
529.31	5.3
529.508	5.34
529.707	5.41
529.905	5.43
530.103	5.43
530.301	5.36
530.5	5.36
530.698	5.36
530.896	5.41
531.094	5.41
531.293	5.51
531.491	5.47
531.689	5.51
531.887	5.47
532.085	5.51
532.283	5.48
532.481	5.59
532.68	5.63
532.878	5.66
533.076	5.59
533.274	5.69
533.472	5.71
533.67	5.72
533.868	5.73
534.066	5.84
534.264	5.9
534.462	5.89
534.66	5.87
534.858	5.92
535.056	6.01
535.253	6.11
535.451	6.12
535.649	6.26
535.847	6.43
536.045	6.38
536.243	6.34
536.441	6.41
536.638	6.52
536.836	6.54
537.034	6.55
537.232	6.56
537.43	6.63
537.627	6.62
537.825	6.54
538.023	6.58
538.22	6.7
538.418	6.77
538.616	6.76
538.813	6.77
539.011	6.94
539.209	6.97
539.406	7.1
539.604	7.02
539.801	7.2
539.999	7.2
540.196	7.32
540.394	7.36
540.591	7.38
540.789	7.56
540.986	7.76
541.184	7.86
541.381	7.95
541.579	7.93
541.776	8.09
541.974	8.09
542.171	8.28
542.368	8.22
542.566	8.27
542.763	8.4
542.96	8.41
543.158	8.38
543.355	8.31
543.552	8.34
543.75	8.36
543.947	8.26
544.144	8.33
544.341	8.25
544.539	8.32
544.736	8.43
544.933	8.48
545.13	8.5
545.327	8.52
545.524	8.65
545.722	8.74
545.919	8.93
546.116	9.11
546.313	9.27
546.51	9.29
546.707	9.44
546.904	9.49
547.101	9.48
547.298	9.59
547.495	9.6
547.692	9.67
547.889	9.81
548.086	9.76
548.283	9.81
548.48	9.75
548.677	10
548.874	9.85
549.07	9.95
549.267	10.2
549.464	10.25
549.661	10.37
549.858	10.47
550.055	10.4
550.251	10.61
550.448	10.76
550.645	10.94
550.842	11.03
551.038	11.43
551.235	11.49
551.432	11.33
551.628	11.15
551.825	11.36
552.022	11.5
552.218	11.59
552.415	11.6
552.612	11.69
552.808	11.69
553.005	11.65
553.201	11.44
553.398	11.44
553.594	11.76
553.791	11.99
553.987	12.11
554.184	12.15
554.38	12.39
554.577	12.5
554.773	12.59
554.97	12.61
555.166	13.06
555.362	13.36
555.559	13.41
555.755	13.21
555.952	13.4
556.148	13.48
556.344	13.28
556.541	13.14
556.737	13.19
556.933	13.15
557.129	13.5
557.326	13.53
557.522	13.54
557.718	13.62
557.914	13.98
558.11	13.86
558.307	13.82
558.503	14.18
558.699	14.49
558.895	14.66
559.091	14.81
559.287	14.8
559.483	14.64
559.679	14.64
559.876	14.66
560.072	14.73
560.268	15.08
560.464	15.21
560.66	15.23
560.856	15.24
561.052	15.52
561.247	15.59
561.443	15.58
561.639	15.62
561.835	15.87
562.031	16.19
562.227	16.11
562.423	16.28
562.619	16.55
562.815	16.72
563.01	16.68
563.206	16.75
563.402	16.91
563.598	16.97
563.793	16.89
563.989	17.1
564.185	17.26
564.381	17.45
564.576	17.18
564.772	17.08
564.968	17.26
565.163	17.43
565.359	17.36
565.555	17.36
565.75	17.45
565.946	17.78
566.141	17.81
566.337	17.75
566.532	18.01
566.728	18.33
566.923	18.43
567.119	18.43
567.314	18.52
567.51	18.51
567.705	18.59
567.901	18.74
568.096	18.68
568.292	18.73
568.487	18.67
568.682	18.62
568.878	18.63
569.073	18.7
569.268	18.63
569.464	18.74
569.659	18.92
569.854	19.14
570.05	19.03
570.245	19.08
570.44	18.92
570.635	19.17
570.831	19
571.026	18.87
571.221	18.89
571.416	18.91
571.611	18.99
571.806	19.07
572.002	19.04
572.197	19.11
572.392	19.37
572.587	19.67
572.782	19.57
572.977	19.81
573.172	19.96
573.367	19.94
573.562	20.16
573.757	20.06
573.952	20.14
574.147	20.25
574.342	20.29
574.537	20.29
574.732	20.2
574.927	20.46
575.121	20.41
575.316	20.53
575.511	20.61
575.706	20.79
575.901	20.96
576.096	20.83
576.29	20.95
576.485	21.2
576.68	21.1
576.875	21.08
577.069	21.01
577.264	21.07
577.459	21.06
577.654	21.29
577.848	21
578.043	21.05
578.238	21.14
578.432	21.03
578.627	20.97
578.821	21.12
579.016	21.42
579.21	21.52
579.405	21.6
579.6	21.71
579.794	21.77
579.989	22.1
580.183	21.64
580.378	21.86
580.572	21.69
580.766	21.71
580.961	21.54
581.155	21.33
581.35	21.3
581.544	21.12
581.738	21.04
581.933	21.1
582.127	21.17
582.321	21.61
582.516	21.65
582.71	21.99
582.904	21.97
583.099	22.19
583.293	22.18
583.487	22.07
583.681	22.29
583.875	22.28
584.07	21.99
584.264	21.95
584.458	22.06
584.652	21.83
584.846	21.82
585.04	22.11
585.234	22.02
585.428	21.97
585.623	21.89
585.817	21.96
586.011	22.16
586.205	22.15
586.399	21.93
586.593	21.83
586.787	21.97
586.981	22.03
587.174	21.92
587.368	21.86
587.562	22.2
587.756	22.26
587.95	22.29
588.144	22.3
588.338	22.52
588.532	22.73
588.725	22.61
588.919	22.7
589.113	22.56
589.307	22.6
589.501	22.7
589.694	22.78
589.888	23.22
590.082	23.31
590.275	23.11
590.469	22.96
590.663	22.81
590.856	22.93
591.05	23.18
591.244	23.28
591.437	23.37
591.631	23.62
591.824	23.39
592.018	22.97
592.212	22.95
592.405	23.15
592.599	23.45
592.792	23.56
592.986	23.79
593.179	23.82
593.372	23.84
593.566	23.62
593.759	23.32
593.953	23.54
594.146	23.88
594.339	23.92
594.533	23.81
594.726	23.49
594.92	23.39
595.113	23.3
595.306	23
595.499	22.92
595.693	23.08
595.886	23.23
596.079	23.26
596.272	23.06
596.466	22.92
596.659	23.08
596.852	23.35
597.045	23.29
597.238	23.21
597.431	23.23
597.624	23.31
597.818	23.29
598.011	23.31
598.204	23.1
598.397	23.11
598.59	23.2
598.783	23.16
598.976	23.08
599.169	23.02
599.362	23.13
599.555	23.18
599.748	23.07
599.941	22.99
600.134	23.03
600.326	23.31
600.519	23.4
600.712	23.42
600.905	23.42
601.098	23.52
601.291	23.89
601.483	23.85
601.676	23.78
601.869	23.87
602.062	23.79
602.255	23.79
602.447	23.85
602.64	23.93
602.833	24.17
603.025	24.2
603.218	24.12
603.411	24.21
603.603	24.19
603.796	24.25
603.989	24.3
604.181	24.45
604.374	24.51
604.566	24.42
604.759	24.47
604.951	24.1
605.144	24.2
605.336	24.37
605.529	24.27
605.721	24.43
605.914	24.36
606.106	24.47
606.299	24.28
606.491	24.18
606.683	24.19
606.876	23.88
607.068	24.02
607.26	23.82
607.453	23.66
607.645	23.63
607.837	23.56
608.03	23.86
608.222	23.7
608.414	23.87
608.606	24.03
608.799	23.78
608.991	24
609.183	24.31
609.375	24.35
609.567	24.29
609.759	24.34
609.952	24.47
610.144	24.21
610.336	24.23
610.528	24.15
610.72	23.84
610.912	24.08
611.104	24.13
611.296	23.95
611.488	23.97
611.68	23.88
611.872	24.07
612.064	23.85
612.256	23.87
612.448	23.89
612.64	23.98
612.832	24.19
613.023	24.15
613.215	24.13
613.407	24.15
613.599	24.31
613.791	24.32
613.983	24.14
614.174	24.18
614.366	24.41
614.558	24.48
614.75	24.2
614.941	24.14
615.133	23.98
615.325	23.7
615.516	23.79
615.708	23.72
615.9	23.51
616.091	23.94
616.283	24.22
616.475	23.91
616.666	23.88
616.858	24.45
617.049	24.61
617.241	24.89
617.432	25.33
617.624	24.96
617.815	25.15
618.007	25.49
618.198	25.14
618.39	24.94
618.581	25.25
618.773	25.53
618.964	25.38
619.155	25.19
619.347	25.17
619.538	24.84
619.729	24.94
619.921	24.73
620.112	25.08
620.303	24.95
620.494	25.11
620.686	25.08
620.877	24.64
621.068	24.67
621.259	24.83
621.451	24.98
621.642	25.18
621.833	25.52
622.024	25.32
622.215	24.9
622.406	25.15
622.597	25.04
622.788	25.19
622.98	25.14
623.171	25.05
623.362	24.97
623.553	24.8
623.744	24.75
623.935	24.46
624.126	24.67
624.317	24.73
624.508	24.51
624.698	24.48
624.889	24.29
625.08	24.19
625.271	24.19
625.462	24.39
625.653	24.32
625.844	24.21
626.034	24.02
626.225	23.96
626.416	23.65
626.607	23.81
626.798	23.73
626.988	23.65
627.179	23.96
627.37	23.89
627.56	23.83
627.751	24.17
627.942	24.29
628.132	24.38
628.323	24.33
628.514	24.77
628.704	24.66
628.895	24.71
629.085	24.84
629.276	24.65
629.466	24.59
629.657	24.57
629.847	24.23
630.038	24.16
630.228	24.29
630.419	24.46
630.609	24.43
630.8	24.33
630.99	24.26
631.181	24.33
631.371	24.48
631.561	24.48
631.752	24.49
631.942	24.7
632.132	24.48
632.323	24.87
632.513	24.89
632.703	24.51
632.893	24.55
633.084	24.75
633.274	24.69
633.464	24.67
633.654	24.7
633.844	24.68
634.034	24.44
634.225	24.47
634.415	24
634.605	24.12
634.795	24.47
634.985	24.77
635.175	24.99
635.365	24.87
635.555	25.02
635.745	25.09
635.935	25.01
636.125	25.23
636.315	25.61
636.505	25.64
636.695	25.6
636.885	25.3
637.075	25.4
637.265	25.2
637.455	25.34
637.644	25.19
637.834	25.43
638.024	25.3
638.214	24.99
638.404	24.97
638.593	25.14
638.783	25.11
638.973	25.72
639.163	25.4
639.352	25.03
639.542	24.87
639.732	25.05
639.921	24.81
640.111	25.46
640.301	25.67
640.49	25.48
640.68	25.66
640.87	25.33
641.059	25.22
641.249	25.32
641.438	25.61
641.628	25.72
641.817	25.43
642.007	25.01
642.196	24.54
642.386	24.41
642.575	24.47
642.764	23.87
642.954	23.99
643.143	24.16
643.333	23.63
643.522	23.66
643.711	23.79
643.901	24.14
644.09	24.73
644.279	25.1
644.469	25.37
644.658	25.27
644.847	25.72
645.036	25.84
645.226	25.24
645.415	25.49
645.604	25.35
645.793	25.45
645.982	25.16
646.171	25.42
646.361	25.4
646.55	25.19
646.739	25.29
646.928	25.53
647.117	25.27
647.306	25.11
647.495	25.1
647.684	25.09
647.873	25.25
648.062	25.62
648.251	25.3
648.44	25.27
648.629	25.53
648.818	25.51
649.007	24.74
649.196	24.9
649.384	24.94
649.573	25.06
649.762	25.37
649.951	24.79
650.14	24.55
650.328	24.41
650.517	24.16
650.706	24.24
650.895	24.86
651.083	25.38
651.272	25.24
651.461	25.56
651.65	25.52
651.838	25.09
652.027	25.29
652.216	24.99
652.404	25.35
652.593	25.44
652.781	25.04
652.97	23.89
653.158	24.25
653.347	24.6
653.535	24.75
653.724	24.91
653.912	25.01
654.101	25.04
654.289	25.05
654.478	24.76
654.666	24.8
654.855	24.93
655.043	25.52
655.231	24.98
655.42	24.62
655.608	24.46
655.796	24.29
655.985	24.59
656.173	24.43
656.361	24.62
656.55	24.45
656.738	24.49
656.926	24.61
657.114	24.91
657.302	24.97
657.491	25.17
657.679	24.75
657.867	24.98
658.055	24.72
658.243	24.86
658.431	24.83
658.619	25.03
658.807	24.77
658.996	24.85
659.184	24.78
659.372	24.89
659.56	24.9
659.748	25.27
659.936	25.35
660.124	25.62
660.311	25.71
660.499	25.95
660.687	26.06
660.875	26.39
661.063	26.57
661.251	26.4
661.439	26.39
661.627	26.46
661.814	26.56
662.002	26.23
662.19	25.85
662.378	25.7
662.565	25.83
662.753	25.62
662.941	25.85
663.129	26.21
663.316	26.37
663.504	26.35
663.692	26.48
663.879	26.4
664.067	26.63
664.254	26.95
664.442	27.06
664.63	26.59
664.817	26.85
665.005	26.62
665.192	25.66
665.38	25.9
665.567	26.24
665.755	26.15
665.942	25.84
666.13	25.9
666.317	25.73
666.504	25.88
666.692	26.07
666.879	26.06
667.067	26.09
667.254	26.32
667.441	25.93
667.629	25.54
667.816	25.53
668.003	25.84
668.19	25.69
668.378	26.15
668.565	26.03
668.752	26.25
668.939	26.13
669.127	25.78
669.314	25.68
669.501	25.75
669.688	25.82
669.875	25.87
670.062	26.09
670.249	25.45
670.436	25.39
670.623	25.52
670.81	25.57
670.997	25.67
671.184	25.65
671.371	25.68
671.558	25.46
671.745	25.46
671.932	25.32
672.119	25.24
672.306	26.32
672.493	26.14
672.68	25.65
672.867	25.14
673.054	25.15
673.24	25.08
673.427	25.09
673.614	25.22
673.801	25.28
673.988	25.14
674.174	24.72
674.361	23.91
674.548	24.54
674.734	25.1
674.921	25.14
675.108	24.85
675.294	25.36
675.481	25.58
675.668	26.02
675.854	26.26
676.041	26.45
676.227	26.77
676.414	27.05
676.601	25.96
676.787	25.6
676.974	25.32
677.16	25.46
677.347	25.38
677.533	25.13
677.719	25.07
677.906	24.66
678.092	24.54
678.279	24.52
678.465	24.52
678.651	24.75
678.838	24.67
679.024	25.22
679.21	25.23
679.397	25.27
679.583	25.84
679.769	26.21
679.955	26.14
680.142	26.51
680.328	26.37
680.514	26.45
680.7	26.61
680.886	27.14
681.073	26.73
681.259	26.68
681.445	26.59
681.631	26.04
681.817	25.59
682.003	26.05
682.189	25.65
682.375	25.8
682.561	25.63
682.747	25.77
682.933	25.19
683.119	25.52
683.305	25.78
683.491	25.91
683.677	26.56
683.863	26.72
684.049	26.66
684.235	26.53
684.42	26.57
684.606	26.85
684.792	26.77
684.978	26.96
685.164	26.95
685.349	27.06
685.535	26.85
685.721	26.03
685.907	25.68
686.092	25.1
686.278	25.38
686.464	25.02
686.649	25.15
686.835	24.98
687.021	25.38
687.206	25.74
687.392	25.69
687.577	25.78
687.763	25.92
687.948	26.2
688.134	26.68
688.319	26.89
688.505	26.8
688.69	26.78
688.876	27.13
689.061	26.42
689.247	26.14
689.432	26.18
689.618	25.72
689.803	25.48
689.988	24.9
690.174	24.61
690.359	23.96
690.544	24.54
690.73	24.46
690.915	23.99
691.1	24.83
691.285	25.18
691.471	25.09
691.656	26.11
691.841	26.49
692.026	27.23
692.211	27.7
692.396	28.21
692.582	27.63
692.767	27.52
692.952	27.55
693.137	26.56
693.322	26.1
693.507	25.92
693.692	25.61
693.877	25.62
694.062	25.62
694.247	25.64
694.432	25.43
694.617	25.44
694.802	25.59
694.987	25.57
695.172	26.23
695.357	26.01
695.541	25.62
695.726	25.2
695.911	25.03
696.096	24.69
696.281	24.31
696.466	24.21
696.65	24.91
696.835	24.62
697.02	24.99
697.204	24.83
697.389	24.63
697.574	24.84
697.759	25.07
697.943	25.12
698.128	25.22
698.312	25.44
698.497	25.89
698.682	25.6
698.866	25.86
699.051	25.84
699.235	25.95
699.42	26.38
699.604	26.65
699.789	26.56
699.973	26.63
700.158	26.69
700.342	26.46
700.527	25.98
700.711	26.05
700.895	25.86
701.08	25.3
701.264	25.5
701.448	25.55
701.633	25.22
701.817	25.36
702.001	25.59
702.186	25.22
702.37	25.21
702.554	25.72
702.738	25.9
702.923	25.83
703.107	26.48
703.291	26.52
703.475	26.28
703.659	26.53
703.843	26.2
704.027	25.95
704.212	25.88
704.396	25.82
704.58	26.01
704.764	25.7
704.948	25.95
705.132	26.13
705.316	25.68
705.5	25.7
705.684	25.89
705.868	25.67
706.052	25.37
706.235	25.34
706.419	25.16
706.603	24.75
706.787	25.43
706.971	25.31
707.155	25.18
707.339	25.09
707.522	25.66
707.706	25.55
707.89	25.36
708.074	25.25
708.257	26.13
708.441	26.06
708.625	25.91
708.808	25.64
708.992	25.66
709.176	25.69
709.359	26.16
709.543	25.52
709.727	25.41
709.91	26.13
710.094	26.21
710.277	26.11
710.461	25.99
710.644	25.74
710.828	25.22
711.011	25.36
711.195	25.37
711.378	25.14
711.562	26.12
711.745	26.1
711.928	26.03
712.112	26.3
712.295	25.85
712.478	26.5
712.662	26.3
712.845	26.57
713.028	26.37
713.212	26.67
713.395	26.97
713.578	25.75
713.761	25.93
713.945	26.12
714.128	26.43
714.311	26.8
714.494	26.72
714.677	27.1
714.86	26.52
715.043	26.66
715.227	26.02
715.41	26.15
715.593	26.37
715.776	26.07
715.959	25.81
716.142	25.79
716.325	25.05
716.508	24.82
716.691	25.29
716.874	25.51
717.057	25.45
717.239	25.31
717.422	25.11
717.605	25.33
717.788	25.14
717.971	25.6
718.154	25.4
718.337	25.89
718.519	26.2
718.702	25.93
718.885	25.73
719.068	25.56
719.25	25.74
719.433	25.36
719.616	25.18
719.798	24.71
719.981	23.87
720.164	24.72
720.346	24.19
720.529	24.23
720.712	23.63
720.894	23.82
721.077	23.67
721.259	23.43
721.442	23.88
721.624	23.8
721.807	24.35
721.989	25.6
722.172	24.92
722.354	25.84
722.537	25.24
722.719	26.61
722.901	27.08
723.084	27.83
723.266	28.49
723.448	28.07
723.631	28.08
723.813	28.85
723.995	28.28
724.178	28.27
724.36	28.1
724.542	27.97
724.724	26.69
724.907	26.49
725.089	25.91
725.271	26.08
725.453	24.95
725.635	24.98
725.817	24.33
725.999	23.73
726.181	23.16
726.364	22.32
726.546	22.97
726.728	23.54
726.91	23.92
727.092	25.03
727.274	25.32
727.456	25.94
727.638	25.35
727.819	26.14
728.001	26.22
728.183	26.31
728.365	26.8
728.547	26.71
728.729	27.22
728.911	27.1
729.093	26.03
729.274	25.76
729.456	25.81
729.638	25.96
729.82	24.65
730.001	24.68
730.183	25.25
730.365	26.2
730.546	26.36
730.728	26.02
730.91	26.23
731.091	26.23
731.273	25.27
731.455	25.39
731.636	26.39
731.818	26.45
731.999	26.73
732.181	26.62
732.362	25.75
732.544	25.17
732.725	24.27
732.907	23.33
733.088	24.11
733.27	24.66
733.451	24.54
733.633	23.25
733.814	23.66
733.995	23.7
734.177	22.67
734.358	22.57
734.539	23.03
734.721	24.33
734.902	24.82
735.083	24.37
735.264	23.43
735.446	24.5
735.627	24.13
735.808	24.22
735.989	23.48
736.17	23.74
736.351	25.1
736.533	25.3
736.714	24.6
736.895	24.31
737.076	24.12
737.257	25.96
737.438	25.15
737.619	25.54
737.8	25.01
737.981	25.27
738.162	25.21
738.343	23.61
738.524	22.75
738.705	22.86
738.886	23.12
739.067	23.96
739.247	23.18
739.428	22.7
739.609	23.28
739.79	24.21
739.971	24.49
740.151	25.12
740.332	24.62
740.513	25.14
740.694	23.97
740.874	23.15
741.055	22.42
741.236	22.47
741.417	22.67
741.597	23.6
741.778	22.89
741.958	22.43
742.139	22.73
742.32	24.44
742.5	24.78
742.681	26.33
742.861	29.02
743.042	28.5
743.222	27.87
743.403	27.94
743.583	27.14
743.764	27.27
743.944	25.84
744.124	26.76
744.305	25.83
744.485	24.96
744.666	25.23
744.846	22.67
745.026	23.22
745.207	23.42
745.387	24.02
745.567	24.35
745.747	25.24
745.928	27.02
746.108	25.79
746.288	26.69
746.468	28.1
746.648	26.96
746.829	28.52
747.009	28.8
747.189	29.04
747.369	27.61
747.549	27.51
747.729	27.66
747.909	27.41
748.089	26.23
748.269	24.86
748.449	24.86
748.629	25.64
748.809	25.09
748.989	25.3
749.169	24.73
749.349	26.18
749.529	25.31
749.709	25.25
749.889	24.87
750.068	26.23
750.248	27.38
750.428	26.81
750.608	26.41
750.788	26.15
750.967	26.13
751.147	26.49
751.327	25.67
751.507	26.3
751.686	25.55
751.866	27.28
752.046	27.73
752.225	26.74
752.405	26.63
752.585	26.8
752.764	26.58
752.944	26.02
753.123	26.55
753.303	26.68
753.482	26.53
753.662	27.87
753.841	27.81
754.021	26.86
754.2	27
754.38	27.37
754.559	27.24
754.739	27.82
754.918	28.16
755.097	28.03
755.277	28.16
755.456	28.21
755.635	25.2
755.815	23.97
755.994	23.03
756.173	23.97
756.352	23.37
756.532	23.08
756.711	21.35
756.89	21.28
757.069	21.35
757.248	21.52
757.427	22.59
757.607	24.04
757.786	23.02
757.965	24.97
758.144	24.47
758.323	25.05
758.502	25.77
758.681	27.09
758.86	26.15
759.039	25.4
759.218	25.8
759.397	23.77
759.576	22.87
759.755	23.97
759.934	22.15
760.113	22.19
760.291	21.39
760.47	21.19
760.649	21.46
760.828	23.44
761.007	24.25
761.186	22.92
761.364	25.76
761.543	26.21
761.722	26.21
761.901	27.27
762.079	26.97
762.258	27.31
762.437	27.41
762.615	26.43
762.794	25.49
762.972	24.39
763.151	25.07
763.33	24.36
763.508	25.57
763.687	25.33
763.865	24.81
764.044	24.71
764.222	24.84
764.401	24.69
764.579	25.8
764.758	25.1
764.936	26.48
765.114	27.32
765.293	27.52
765.471	27.39
765.65	27.49
765.828	27.12
766.006	26.99
766.184	25.83
766.363	25.53
766.541	25.59
766.719	26.7
766.898	25.63
767.076	25.07
767.254	24.66
767.432	23.25
767.61	22.67
767.788	22.32
767.967	22.45
768.145	22.68
768.323	22
768.501	20.36
768.679	21.59
768.857	22.57
769.035	21.3
769.213	21.92
769.391	21.77
769.569	21.84
769.747	23.43
769.925	23.93
770.103	23.07
770.281	24.56
770.459	24.11
770.636	22.81
770.814	21.87
770.992	22.21
771.17	20.98
771.348	22.97
771.525	23.16
771.703	22.06
771.881	21.13
772.059	22.83
772.236	22.41
772.414	24.44
772.592	23.47
772.769	24.21
772.947	25.06
773.125	25.26
773.302	25.75
773.48	25.69
773.657	27.45
773.835	25.79
774.013	27.39
774.19	26.54
774.368	25.16
774.545	26.98
774.723	27.14
774.9	28.06
775.077	26.64
775.255	25.47
775.432	25.33
775.61	25.54
775.787	26.78
775.964	24.35
776.142	23.27
776.319	25.43
776.496	25.4
776.674	21.67
776.851	19.84
777.028	20.03
777.205	16.95
777.382	18.35
777.56	18.01
777.737	21.34
777.914	23.1
778.091	25.99
778.268	23.27
778.445	20.51
778.622	21.83
778.8	22.21
778.977	23.53
779.154	26.14
779.331	26.18
779.508	25.07
779.685	23.57
779.862	25.03
780.038	23.71
780.215	25.68
780.392	25.94
780.569	27.24
780.746	26.38
780.923	24.17
781.1	22.87
781.277	22.96
781.453	22.04
781.63	22.13
781.807	17.99
781.984	18.09
782.16	18.54
782.337	18.65
782.514	19.75
782.691	22.6
782.867	24.78
783.044	25.04
783.221	25.19
783.397	28.86
783.574	28.08
783.75	31.28
783.927	32.06
784.103	31.16
784.28	29.29
784.456	31.89
784.633	29.72
784.809	28.84
784.986	31.04
785.162	30.22
785.339	29.09
785.515	30.32
785.692	28.31
785.868	27.19
786.044	28.64
786.221	31.81
786.397	29.62
786.573	30.96
786.749	31.47
786.926	31.58
787.102	31.01
787.278	32.26
787.454	32.7
787.631	32.79
787.807	33.9
787.983	33.51
788.159	33.78
788.335	32.18
788.511	30.05
788.687	29.85
788.863	29.5
789.039	31.3
789.216	27.99
789.392	26.26
789.568	28.22
789.744	27.56
789.919	26.1
790.095	24.21
790.271	23.65
790.447	26.52
790.623	24.73
790.799	23.08
790.975	22.37
791.151	25.2
791.327	27.1
791.502	24.57
791.678	25.81
791.854	28.27
792.03	29.97
792.205	31.66
792.381	29.01
792.557	29.4
792.733	31.61
792.908	30.3
793.084	27.4
793.259	25.04
793.435	26.09
793.611	25.17
793.786	22.67
793.962	23.28
794.137	23.47
794.313	22.41
794.488	23.28
794.664	18.68
794.839	21.24
795.015	23.99
795.19	25.93
795.366	27.15
795.541	26.64
795.716	24.27
795.892	22.9
796.067	21.74
796.242	23.84
796.418	25.58
796.593	27.19
796.768	26.27
796.944	25.77
797.119	23.97
797.294	22.55
797.469	22.14
797.644	24.07
797.82	23.79
797.995	25.09
798.17	26.87
798.345	26.49
798.52	28.15
798.695	28.3
798.87	27.14
799.045	28.24
799.22	29.69
799.395	28.73
799.57	30.25
799.745	30.89
799.92	29.31
800.095	26.71
800.27	26.48
800.445	25.03
800.62	25.3
800.795	26.7
800.97	24.65
801.145	20.64
801.319	21.36
801.494	19.38
801.669	20
801.844	20.7
802.018	23.54
802.193	23.38
802.368	23.02
802.543	24.22
802.717	22.8
802.892	24.4
803.067	27.08
803.241	24.98
803.416	24.17
803.59	25.02
803.765	24.14
803.94	23.94
804.114	25.04
804.289	25.5
804.463	21.58
804.638	22.99
804.812	22.1
804.986	24.6
805.161	31.8
805.335	35.6
805.51	34.81
805.684	35.44
805.858	35.18
806.033	34.29
806.207	33.72
806.381	35.11
806.556	35.32
806.73	35.64
806.904	31.47
807.078	23.86
807.253	20.56
807.427	16.71
807.601	18.08
807.775	17.1
807.949	17.15
808.123	17.83
808.298	20.98
808.472	21.76
808.646	20.21
808.82	21.19
808.994	23.9
809.168	22.32
809.342	24.6
809.516	25.28
809.69	26.51
809.864	25.27
810.038	23.63
810.212	18.03
810.385	11.61
810.559	12.95
810.733	12.89
810.907	14.73
811.081	13.08
811.255	13.51
811.428	10.67
811.602	6.92
811.776	5.37
811.95	4.15
812.123	6.51
812.297	8.87
812.471	7.33
812.644	9.63
812.818	10.1
812.992	14.76
813.165	17.87
813.339	18.45
813.512	21.02
813.686	27.27
813.86	27.08
814.033	26.35
814.207	29.42
814.38	32.92
814.554	31.21
814.727	30.73
814.9	28.96
815.074	29.72
815.247	29.07
815.421	27.17
815.594	24.8
815.767	24.79
815.941	27.6
816.114	26.69
816.287	25.25
816.46	19.07
816.634	13.96
816.807	16.31
816.98	13.32
817.153	8.18
817.327	9.95
817.5	9.89
817.673	12.22
817.846	11.59
818.019	11.69
818.192	12.43
818.365	20.09
818.538	22.36
818.711	20.66
818.884	21.43
819.057	28.1
819.23	29.35
819.403	26.12
819.576	26.44
819.749	26.05
819.922	24.64
820.095	23.27
820.268	24.55
820.441	27.18
820.614	26.39
820.786	27.53
820.959	28.7
821.132	26.61
821.305	28.33
821.477	28.89
821.65	29.02
821.823	29.31
821.996	29.53
822.168	28.14
822.341	27.44
822.514	27.55
822.686	27.09
822.859	26.95
823.031	27.72
823.204	27.22
823.376	27.28
823.549	27.71
823.722	27.92
823.894	28.46
824.067	28.71
824.239	28.66
824.411	28.63
824.584	28.77
824.756	28.21
824.929	27.67
825.101	28.96
825.273	28.65
825.446	28.27
825.618	27.15
825.79	26.74
825.963	26.78
826.135	27.2
826.307	28.13
826.479	28.34
826.652	28.82
826.824	29.41
826.996	28.55
827.168	28.75
827.34	28.21
827.512	29.17
827.684	27.59
827.856	27.76
828.029	27.19
828.201	25.44
828.373	25.59
828.545	24.96
828.717	23.19
828.889	22.34
829.061	21.73
829.232	20.81
829.404	21.11
829.576	22.83
829.748	21.87
829.92	22.7
830.092	24.99
830.264	24.04
830.436	21.65
830.607	25.78
830.779	27.73
830.951	27.99
831.123	30.46
831.294	28.25
831.466	27.25
831.638	28.63
831.809	26.52
831.981	21.87
832.153	21.2
832.324	26.05
832.496	20.71
832.667	16.8
832.839	16.36
833.011	16.89
833.182	16.07
833.354	16.65
833.525	20.39
833.697	21.62
833.868	22.47
834.039	23.88
834.211	22.09
834.382	24.29
834.554	24.7
834.725	23.69
834.896	22.21
835.068	24.28
835.239	26.55
835.41	25.83
835.581	27.77
835.753	28.64
835.924	27.87
836.095	28.4
836.266	25.65
836.438	23.25
836.609	26.38
836.78	29.22
836.951	26.99
837.122	25.96
837.293	23.07
837.464	23.12
837.635	25.19
837.806	24.78
837.977	25.7
838.148	30.97
838.319	32.87
838.49	31.99
838.661	33.24
838.832	31.92
839.003	29.74
839.174	29.82
839.345	24.61
839.516	21.17
839.687	24.96
839.857	24.97
840.028	19.2
840.199	21.51
840.37	20.7
840.54	13.12
840.711	20.51
840.882	22.63
841.053	23.72
841.223	26.59
841.394	28.51
841.564	26.6
841.735	22.71
841.906	22.57
842.076	20.72
842.247	25.5
842.417	28.17
842.588	23.22
842.758	25.17
842.929	26.6
843.099	23.23
843.27	26.41
843.44	25.46
843.611	29.49
843.781	27.88
843.951	32.97
844.122	26.42
844.292	25.53
844.462	29.38
844.633	23.23
844.803	28.43
844.973	29.19
845.144	21.96
845.314	18.76
845.484	12.43
845.654	11.97
845.824	6.3
845.995	5.29
846.165	6
846.335	-3.31
846.505	7.68
846.675	-2.46
846.845	-5.06
847.015	-0.04
847.185	8.34
847.355	19.87
847.525	16.27
847.695	29.06
847.865	37.65
848.035	33.59
848.205	36.35
848.375	31.61
848.545	35.86
848.715	30.09
848.884	22.09
849.054	16.18
849.224	6.02
849.394	10.1
849.564	0.66
849.733	3.37
849.903	6.18
850.073	9.22
850.243	6.38
850.412	10.59
850.582	15.97
850.752	20.16
850.921	19.83
851.091	23.22
851.26	30.92
851.43	33.69
851.599	38.77
851.769	38.38
851.939	42.4
852.108	47.97
852.278	38.17
852.447	42.81
852.616	46.18
852.786	46.75
852.955	52.97
853.125	45
853.294	52.04
853.463	45.48
853.633	42.66
853.802	42.03
853.971	32.63
854.141	31.26
854.31	38.8
854.479	31.27
854.648	32.11
854.818	23.3
854.987	23.01
855.156	20.48
855.325	13.14
855.494	6.26
855.663	7.88
855.832	14.94
856.001	21.59
856.171	14.32
856.34	12.08
856.509	7.71
856.678	0.03
856.847	14.29
857.016	2.92
857.185	7.23
857.353	33.28
857.522	27.9
857.691	14.13
857.86	24.54
858.029	18.39
858.198	16.21
858.367	26.11
858.535	30.34
858.704	28.8
858.873	29.36
859.042	40.42
859.21	23.11
859.379	26.73
859.548	24.75
859.717	7.71
859.885	8.85
860.054	27.19
860.222	22.79
860.391	15.04
860.56	19.94
860.728	26.04
860.897	13.31
861.065	16.91
861.234	26.34
861.402	44.84
861.571	48.99
861.739	54.77
861.908	36.06
862.076	39.1
862.244	44.85
862.413	44.63
862.581	55.18
862.749	56.1
862.918	45.9
863.086	40.47
863.254	37.43
863.423	36.45
863.591	42.34
863.759	45.26
863.927	47.81
864.096	44.57
864.264	35.53
864.432	27.73
864.6	21.05
864.768	19.13
864.936	18.91
865.104	24.42
865.272	37.17
865.44	15.44
865.608	13.71
865.776	10.53
865.944	16.85
866.112	24.09
866.28	18.95
866.448	24.78
866.616	29.18
866.784	44.13
866.952	42.46
867.12	36.33
867.288	39.81
867.455	42.35
867.623	45.39
867.791	45.49
867.959	35.01
868.127	24.16
868.294	13.34
868.462	14.85
868.63	0.39
868.797	-3.32
868.965	-18.2
869.133	-31.62
869.3	-38.52
869.468	-45.9
869.636	-33.6
869.803	-33.12
869.971	-19.17
870.138	-10.61
870.306	-36.29
870.473	-58.68
870.641	-76.32
870.808	-6.27
870.975	-10.72
871.143	-0.22
871.31	11.47
871.478	2.49
871.645	18.78
871.812	10.7
871.98	9.8
872.147	18.86
872.314	26.41
872.482	25.86
872.649	15.31
872.816	18.68
872.983	23.41
873.15	15.22
873.318	26.22
873.485	16.64
873.652	35.8
873.819	46.65
873.986	53.51
874.153	41.94
874.32	33.29
874.487	22.08
874.654	23.64
874.821	26.67
874.988	26.34
875.155	22.55
875.322	25.94
875.489	24.09
875.656	11.69
875.823	27.31
875.99	27.53
876.157	32.94
876.324	33.49
876.49	32.2
876.657	30.87
876.824	27.8
876.991	31.47
877.157	24.75
877.324	23.66
877.491	32.67
877.658	15.93
877.824	12.02
877.991	1.38
878.157	9.55
878.324	5.53
878.491	-11.15
878.657	-5.01
878.824	-16.27
878.99	-13.4
879.157	-6.95
879.323	-9.65
879.49	9.1
879.656	12.97
879.823	18.77
879.989	13.17
880.156	19.57
880.322	19.73
880.488	12
880.655	14.67
880.821	8.57
880.987	2.09
881.154	0.02
881.32	3.48
881.486	15.77
881.652	18.36
881.819	23.72
881.985	21.88
882.151	24.14
882.317	27.78
882.483	31.65
882.649	34.12
882.816	32.56
882.982	32.15
883.148	29.56
883.314	27.12
883.48	27.91
883.646	27.35
883.812	23.59
883.978	24.69
884.144	25.16
884.31	24.19
884.476	24.59
884.642	26.79
884.807	24.76
884.973	23.91
885.139	21.77
885.305	20.85
885.471	19.58
885.637	23.33
885.802	23.23
885.968	23.02
886.134	21.68
886.3	21.56
886.465	18.37
886.631	22.37
886.797	28.94
886.962	33.54
887.128	34.72
887.293	37.45
887.459	38.99
887.625	36.26
887.79	35.75
887.956	29.82
888.121	28.89
888.287	34.82
888.452	32.17
888.618	19.02
888.783	11.32
