Data from 2937861_Reflection_1.txt Node
Date: Wed Jul 15 15:24:46 EDT 2015
User: robert
Spectrometer: USB4E03001
Autoset integration time: false
Trigger mode: 4
Integration Time (sec): 1.000000E-1
Scans to average: 10
Electric dark correction enabled: true
Nonlinearity correction enabled: false
Boxcar width: 5
Stray light correction enabled: false
XAxis mode: Wavelengths
Stop averaging: false
Number of Pixels in Spectrum: 3648
>>>>>Begin Spectral Data<<<<<
177.566	-149.94
177.785	-94.19
178.005	-195.16
178.225	-149
178.445	-312.6
178.665	-703.35
178.885	-471.11
179.105	726.84
179.324	401.9
179.544	-170.47
179.764	-112.97
179.984	-77.21
180.204	-70.61
180.423	-152.87
180.643	-136.82
180.863	-120.91
181.083	-110.94
181.302	-64.87
181.522	-66.01
181.742	-49.1
181.961	-125.22
182.181	-143.49
182.401	-179.08
182.621	-51.25
182.84	-48.62
183.06	-36.43
183.279	-25.24
183.499	-33.29
183.719	-39.53
183.938	7.62
184.158	9.52
184.377	3.84
184.597	-1.73
184.816	-15.86
185.036	-117.16
185.256	-69.81
185.475	-101.99
185.695	-153.76
185.914	-423.99
186.134	-208.34
186.353	-128.16
186.572	-134.8
186.792	-109.56
187.011	-82.4
187.231	-69.45
187.45	-2.08
187.67	26.72
187.889	20
188.108	17.55
188.328	9.04
188.547	1.41
188.766	-9.14
188.986	-6.42
189.205	13.3
189.424	9.73
189.644	-71.8
189.863	-311.85
190.082	-1431.95
190.302	3992.56
190.521	-309.53
190.74	-195.96
190.959	-253.5
191.178	-163.24
191.398	-198.95
191.617	-256.47
191.836	-197.8
192.055	-87.46
192.274	-62.87
192.494	-12.19
192.713	-20.91
192.932	-53.97
193.151	-102.22
193.37	-183.02
193.589	-6846.36
193.808	-1316.84
194.027	-1628.79
194.246	-644.56
194.465	-205.61
194.685	-254.05
194.904	-147.56
195.123	-60.04
195.342	-57.56
195.561	-61.08
195.78	-40.7
195.999	8.82
196.218	2.01
196.436	-7.56
196.655	-12.38
196.874	-25.43
197.093	-28.37
197.312	-41.88
197.531	-78.58
197.75	-71.13
197.969	-33.71
198.188	-10.94
198.407	-3.48
198.625	-13.28
198.844	-35.92
199.063	-139.39
199.282	-135.17
199.501	-93.43
199.719	-240.36
199.938	-91.74
200.157	-70.93
200.376	-49.86
200.594	-83.37
200.813	-190.35
201.032	-92.85
201.251	-84.55
201.469	-72.23
201.688	-62.78
201.907	-62.2
202.125	-46.37
202.344	-73.94
202.563	-150.79
202.781	-703.82
203	-312.31
203.218	-124.25
203.437	16335
203.656	1064.32
203.874	-348.22
204.093	-396.94
204.311	-148.78
204.53	-331.05
204.748	-110.7
204.967	-97.35
205.185	-66.3
205.404	-115.35
205.622	-91.2
205.841	-82.19
206.059	-70.22
206.278	-30.47
206.496	-20
206.715	-6.33
206.933	-0.33
207.151	17.28
207.37	9.75
207.588	-18.85
207.806	21.5
208.025	25.98
208.243	-3.95
208.461	0.46
208.68	14.87
208.898	21.66
209.116	18.73
209.335	34.6
209.553	17.89
209.771	9.16
209.989	20.21
210.208	3.88
210.426	-21.91
210.644	8.59
210.862	-11.15
211.081	-31.88
211.299	-32.78
211.517	-6.68
211.735	-13.7
211.953	-17.54
212.171	1.89
212.39	-10.63
212.608	-20.91
212.826	-3.71
213.044	-0.54
213.262	3.7
213.48	-3.18
213.698	2.38
213.916	-16.89
214.134	19.93
214.352	36.56
214.57	41.34
214.788	58.12
215.006	69.95
215.224	52.8
215.442	46.69
215.66	35.82
215.878	13.82
216.096	-28.4
216.314	-9.2
216.532	-18.81
216.75	-31.69
216.968	-52.71
217.185	-58.89
217.403	-88.54
217.621	-103.12
217.839	-157.72
218.057	-210.75
218.275	-144.57
218.492	-97.95
218.71	-200.99
218.928	-455.21
219.146	-339.81
219.363	-213.37
219.581	-104.99
219.799	-70.38
220.017	-60.03
220.234	-53.74
220.452	-43.33
220.67	-28.54
220.887	-40.91
221.105	-14.89
221.323	-14.65
221.54	-8.48
221.758	-12.5
221.976	-39.11
222.193	-35.37
222.411	-12.16
222.629	-10.55
222.846	4.81
223.064	2.4
223.281	18.82
223.499	10.89
223.716	18.42
223.934	14.85
224.151	13.38
224.369	11.88
224.586	7.04
224.804	-2.29
225.021	-11.36
225.239	-21.51
225.456	-27.25
225.674	-18.21
225.891	-5.65
226.108	-5.39
226.326	-10.65
226.543	-15.86
226.76	-8.67
226.978	-2.67
227.195	4.54
227.413	5
227.63	7.81
227.847	6.4
228.064	2.27
228.282	1.73
228.499	3.84
228.716	5.2
228.934	8.07
229.151	8.76
229.368	7.74
229.585	7.5
229.802	9.44
230.02	9.05
230.237	9.25
230.454	8.09
230.671	3.27
230.888	2.35
231.105	0.87
231.323	-5.48
231.54	-6.16
231.757	-7.25
231.974	-9.54
232.191	-12.88
232.408	-15.86
232.625	-17.17
232.842	-12.14
233.059	-3.16
233.276	-4.53
233.493	0.96
233.71	5.79
233.927	2.39
234.144	3.12
234.361	3.84
234.578	3.54
234.795	4.72
235.012	7.9
235.229	3.72
235.446	1.36
235.663	6.01
235.879	8.38
236.096	8.33
236.313	3.57
236.53	-0.3
236.747	0.08
236.964	5.74
237.181	4.94
237.397	5.91
237.614	11.08
237.831	13.3
238.048	11.01
238.264	1.82
238.481	2.6
238.698	9.29
238.915	10.37
239.131	6.49
239.348	2
239.565	2.89
239.781	3.37
239.998	0.2
240.215	-4.79
240.431	-5.74
240.648	-0.11
240.865	4.21
241.081	5.08
241.298	6.91
241.514	7.39
241.731	8.77
241.947	8.13
242.164	7.14
242.38	7.69
242.597	8.51
242.814	9.83
243.03	9.99
243.246	9.6
243.463	8.44
243.679	7.01
243.896	7.72
244.112	6.98
244.329	7.36
244.545	9.59
244.762	7.56
244.978	7.44
245.194	7.19
245.411	6.61
245.627	5.03
245.843	6.04
246.06	8.19
246.276	9.99
246.492	10.69
246.709	10.5
246.925	10.19
247.141	10.8
247.357	11.27
247.574	11.94
247.79	12.01
248.006	12.5
248.222	12.25
248.439	11.11
248.655	9.95
248.871	9.45
249.087	7.8
249.303	7.05
249.519	6.87
249.736	6.64
249.952	5.09
250.168	5.88
250.384	4.99
250.6	4.36
250.816	6.61
251.032	5.34
251.248	3.88
251.464	7.21
251.68	6.11
251.896	5.51
252.112	5.09
252.328	4.93
252.544	4.89
252.76	4.68
252.976	3.97
253.192	3.27
253.408	3.23
253.624	1.77
253.84	1.66
254.056	1.53
254.272	0.16
254.487	-0.29
254.703	-3.75
254.919	-5.78
255.135	-4.51
255.351	-1.92
255.567	-3.84
255.782	-2.81
255.998	0.88
256.214	2.87
256.43	3.41
256.646	5.18
256.861	5.85
257.077	7.7
257.293	7.03
257.508	4.9
257.724	3.67
257.94	4.72
258.155	3.2
258.371	3
258.587	3.74
258.802	5.1
259.018	5.14
259.234	6.09
259.449	6.97
259.665	7.79
259.88	8.45
260.096	8.83
260.312	9.07
260.527	9.65
260.743	9.64
260.958	8.27
261.174	7.79
261.389	8.42
261.605	8.68
261.82	7.56
262.036	6.95
262.251	6.01
262.466	5.54
262.682	4.72
262.897	4.67
263.113	5.1
263.328	5.8
263.543	5.66
263.759	3.4
263.974	0.66
264.189	0.01
264.405	0.07
264.62	2.4
264.835	2.09
265.051	1.36
265.266	0.17
265.481	0.3
265.696	1.99
265.912	1.09
266.127	3.04
266.342	3.71
266.557	5.43
266.773	4.66
266.988	3.29
267.203	4.05
267.418	4.59
267.633	3.93
267.848	4.46
268.064	3.8
268.279	3.84
268.494	3.34
268.709	4
268.924	4.06
269.139	3.4
269.354	2.95
269.569	2.74
269.784	2.63
269.999	4.64
270.214	4.31
270.429	4.83
270.644	4.41
270.859	3.38
271.074	3.82
271.289	3.35
271.504	4.33
271.719	4.48
271.934	3.09
272.149	3.5
272.363	3.06
272.578	2.53
272.793	1.14
273.008	2.38
273.223	3.28
273.438	2.66
273.653	3.73
273.867	4.32
274.082	3.99
274.297	4.39
274.512	4.87
274.726	5
274.941	4.59
275.156	7.04
275.371	6.21
275.585	6.35
275.8	5.11
276.015	3.66
276.229	2.57
276.444	3.03
276.659	4.06
276.873	2.9
277.088	1.86
277.302	0.49
277.517	-1.39
277.732	-0.49
277.946	-0.64
278.161	0.6
278.375	2.5
278.59	4.06
278.804	2.24
279.019	1.58
279.233	4.24
279.448	5.29
279.662	6.06
279.877	5.98
280.091	5.44
280.306	5.93
280.52	4.62
280.735	3.08
280.949	1.75
281.163	3.91
281.378	4.99
281.592	3.47
281.806	2.23
282.021	3.97
282.235	5.2
282.449	5.12
282.664	4.68
282.878	5.97
283.092	6.67
283.307	6.71
283.521	5.88
283.735	5.12
283.949	5.47
284.164	7.3
284.378	6.17
284.592	5.73
284.806	6.11
285.02	7.94
285.234	7.36
285.449	7.25
285.663	7.2
285.877	7.14
286.091	7.83
286.305	7.27
286.519	7.07
286.733	7.89
286.947	8.05
287.161	7.72
287.375	5.99
287.589	6.63
287.803	5.86
288.017	6.62
288.231	7.68
288.445	6.92
288.659	7.34
288.873	7.24
289.087	6.6
289.301	6.54
289.515	6.6
289.729	7.31
289.943	5.84
290.157	6.94
290.371	6.06
290.584	5.55
290.798	5.71
291.012	4.9
291.226	4.64
291.44	3.9
291.654	3.83
291.867	3.79
292.081	3.19
292.295	3.62
292.509	2.91
292.722	2.58
292.936	3.48
293.15	3.13
293.364	3.82
293.577	2.23
293.791	3.74
294.005	3.08
294.218	2.53
294.432	3.86
294.645	4.63
294.859	4.76
295.073	6.45
295.286	6.62
295.5	7.19
295.713	8.79
295.927	9.99
296.14	10.03
296.354	9.94
296.568	10.89
296.781	10.56
296.994	10.41
297.208	10.06
297.421	9.56
297.635	8.98
297.848	9.25
298.062	7.62
298.275	6.94
298.489	6.54
298.702	7.02
298.915	6.95
299.129	6.72
299.342	6.64
299.555	7.02
299.769	7.29
299.982	7.68
300.195	7.52
300.409	8.29
300.622	9.19
300.835	10.93
301.048	10.95
301.262	9.97
301.475	9.69
301.688	10.03
301.901	10.05
302.115	9.06
302.328	8.84
302.541	8.87
302.754	8.09
302.967	8.23
303.18	5.92
303.393	5.15
303.607	5.53
303.82	5.78
304.033	6.53
304.246	5.24
304.459	5.41
304.672	6.32
304.885	5.66
305.098	5.32
305.311	4.82
305.524	5.99
305.737	6.69
305.95	6.34
306.163	7.01
306.376	7.56
306.589	8.65
306.802	9.17
307.015	7.7
307.228	7.65
307.44	8.94
307.653	10.03
307.866	10.17
308.079	10.88
308.292	10.9
308.505	9.71
308.718	8.49
308.93	8.94
309.143	8.5
309.356	9.68
309.569	10.12
309.781	9.63
309.994	9.87
310.207	8.94
310.42	8.95
310.632	9.87
310.845	10.98
311.058	10.98
311.27	11.7
311.483	11.75
311.696	10.45
311.908	9.53
312.121	9.57
312.333	8.59
312.546	8.53
312.759	7.31
312.971	5.56
313.184	4.23
313.396	2.82
313.609	1.59
313.821	2.1
314.034	2.46
314.246	3.55
314.459	4.42
314.671	4.76
314.884	5.77
315.096	7.29
315.309	8.22
315.521	9
315.733	10.89
315.946	11.51
316.158	11.18
316.371	11.9
316.583	12
316.795	9.77
317.008	10.36
317.22	9.7
317.432	7.44
317.644	6.61
317.857	6.01
318.069	5.13
318.281	4.91
318.494	5.74
318.706	6.57
318.918	5.11
319.13	6.51
319.342	3.57
319.555	3.07
319.767	3.77
319.979	6.12
320.191	6.08
320.403	4.04
320.615	3.9
320.827	3.25
321.039	1.34
321.252	2.15
321.464	2.55
321.676	5.88
321.888	6.95
322.1	7.85
322.312	6.06
322.524	5.6
322.736	8.42
322.948	7.99
323.16	7.08
323.372	8.2
323.584	8.18
323.796	7.02
324.007	6.06
324.219	5.35
324.431	5.33
324.643	5.22
324.855	6.39
325.067	5.97
325.279	6.36
325.491	7.07
325.702	7.55
325.914	8.19
326.126	10.16
326.338	9.44
326.55	10.11
326.761	9.36
326.973	9.09
327.185	8.08
327.396	7.63
327.608	6.75
327.82	6.38
328.032	5.64
328.243	6.09
328.455	3.95
328.666	3.99
328.878	2.39
329.09	3.17
329.301	2.6
329.513	3.36
329.725	4.57
329.936	5.17
330.148	5.98
330.359	4.68
330.571	3.89
330.782	5.13
330.994	5.78
331.205	7.27
331.417	6.34
331.628	6.6
331.84	5.3
332.051	4.11
332.262	4.08
332.474	3.06
332.685	3.42
332.897	3.7
333.108	3.49
333.319	2.47
333.531	2.45
333.742	3.34
333.953	4.23
334.165	4.61
334.376	4.96
334.587	5.56
334.799	6
335.01	7.27
335.221	6.57
335.432	6.66
335.644	6.97
335.855	6.58
336.066	6.21
336.277	5.17
336.488	5.72
336.7	5.19
336.911	5.1
337.122	5.58
337.333	4.43
337.544	4.47
337.755	3.81
337.966	4.32
338.177	5.24
338.388	5.93
338.599	7.57
338.811	7.19
339.022	7.36
339.233	7.12
339.444	7.24
339.655	8.07
339.866	8.3
340.076	8.03
340.287	7.91
340.498	7.61
340.709	7.23
340.92	6.46
341.131	7.99
341.342	9.72
341.553	8.07
341.764	7.01
341.975	6.54
342.185	6.39
342.396	6.75
342.607	6.25
342.818	7.02
343.029	8.52
343.239	8.61
343.45	7.34
343.661	6.54
343.872	7.72
344.082	7.81
344.293	7.99
344.504	7.72
344.714	8.16
344.925	8.53
345.136	8.03
345.346	7.39
345.557	8.47
345.768	8.48
345.978	8.51
346.189	8.66
346.399	9.68
346.61	9.73
346.821	9.37
347.031	9.94
347.242	10.59
347.452	9.07
347.663	8.16
347.873	8.45
348.084	7.87
348.294	7.53
348.504	8.49
348.715	7.39
348.925	6.33
349.136	7.79
349.346	6.57
349.557	5.88
349.767	6.39
349.977	7.08
350.188	6.23
350.398	6.9
350.608	7.39
350.819	5.94
351.029	5.65
351.239	6.24
351.449	7.04
351.66	7.54
351.87	7.82
352.08	9.42
352.29	9.32
352.501	9.07
352.711	7.89
352.921	7.24
353.131	7.64
353.341	7.38
353.552	7.8
353.762	6.16
353.972	6.55
354.182	6.87
354.392	5.07
354.602	4.98
354.812	4.76
355.022	6.01
355.232	6.33
355.442	6.47
355.652	7.41
355.862	6.39
356.072	5.93
356.282	5.27
356.492	4.93
356.702	5.46
356.912	5.17
357.122	5.6
357.332	4.78
357.542	4.66
357.752	5.03
357.962	5.19
358.171	6.08
358.381	6.64
358.591	7.91
358.801	7
359.011	7.67
359.221	7.47
359.43	7.22
359.64	7.16
359.85	7.14
360.06	7.05
360.269	6.54
360.479	6.35
360.689	6.51
360.899	6.5
361.108	6.91
361.318	7.06
361.528	7.44
361.737	7.43
361.947	7.52
362.156	7.56
362.366	7.15
362.576	6.8
362.785	6.53
362.995	6.47
363.204	6.01
363.414	6.78
363.623	6.54
363.833	6.58
364.042	6.3
364.252	6.75
364.461	6.34
364.671	6.68
364.88	7.33
365.09	7.66
365.299	7.6
365.509	7.54
365.718	7.81
365.927	7.27
366.137	6.52
366.346	6.23
366.555	6.31
366.765	5.95
366.974	5.87
367.183	6.07
367.393	6.3
367.602	5.61
367.811	5.03
368.021	4.85
368.23	4.6
368.439	5.19
368.648	5.27
368.857	4.81
369.067	5.3
369.276	5.26
369.485	4.41
369.694	3.95
369.903	3.91
370.112	4.73
370.321	3.85
370.531	4.2
370.74	4.19
370.949	4.42
371.158	4.5
371.367	4.11
371.576	4.52
371.785	5.03
371.994	5.02
372.203	5.38
372.412	4.85
372.621	5.14
372.83	5.03
373.039	5.1
373.248	5.18
373.457	5.59
373.666	6.08
373.874	5.92
374.083	5.69
374.292	6.26
374.501	6.64
374.71	6.48
374.919	6.27
375.128	6.36
375.336	6.45
375.545	6.68
375.754	6.52
375.963	6.29
376.171	6.26
376.38	6.8
376.589	6.97
376.798	6.37
377.006	6.06
377.215	5.89
377.424	6.06
377.632	5.62
377.841	5.55
378.05	5.5
378.258	5.55
378.467	5.88
378.675	5.7
378.884	5.91
379.093	6.42
379.301	7.13
379.51	7.42
379.718	7.22
379.927	7.08
380.135	6.98
380.344	6.58
380.552	6.23
380.761	5.94
380.969	5.53
381.177	4.54
381.386	4.07
381.594	3.53
381.803	2.86
382.011	3.08
382.219	3.5
382.428	2.91
382.636	3.15
382.845	3.38
383.053	3.05
383.261	3.38
383.469	3.53
383.678	4.11
383.886	4.06
384.094	5.04
384.302	4.23
384.511	4.6
384.719	4.9
384.927	5.1
385.135	5.63
385.343	5.97
385.552	5.89
385.76	6
385.968	5.55
386.176	5.76
386.384	5.19
386.592	5.95
386.8	5.72
387.008	5.65
387.216	5.89
387.424	5.5
387.633	4.76
387.841	4.56
388.049	4.59
388.257	4.71
388.465	4.13
388.672	4.29
388.88	3.62
389.088	3.32
389.296	3.27
389.504	2.69
389.712	2.77
389.92	3.3
390.128	3.49
390.336	3.52
390.544	3.88
390.751	4.14
390.959	4.04
391.167	4.99
391.375	4.75
391.583	4.62
391.79	4.99
391.998	4.83
392.206	4.65
392.414	4.62
392.621	4.48
392.829	4.24
393.037	4.42
393.244	4.38
393.452	3.71
393.66	4.27
393.867	4.52
394.075	4.49
394.283	4.76
394.49	4.45
394.698	4.57
394.905	4.78
395.113	4.62
395.32	4.75
395.528	4.99
395.735	5.1
395.943	5
396.15	5.25
396.358	4.86
396.565	4.53
396.773	5.02
396.98	4.95
397.188	4.9
397.395	4.83
397.602	4.74
397.81	4.29
398.017	4.72
398.225	4.72
398.432	4.43
398.639	4.59
398.847	4.59
399.054	4.37
399.261	4.61
399.468	4.27
399.676	4.42
399.883	4.5
400.09	4.55
400.297	4.21
400.505	3.92
400.712	3.91
400.919	3.89
401.126	3.96
401.333	4.01
401.54	3.83
401.748	4.02
401.955	3.73
402.162	3.62
402.369	3.4
402.576	3.45
402.783	3.43
402.99	3.34
403.197	3.41
403.404	3.4
403.611	3.68
403.818	3.37
404.025	3.45
404.232	3.61
404.439	3.47
404.646	3.78
404.853	3.79
405.06	3.82
405.267	3.99
405.474	3.92
405.681	4.05
405.887	3.93
406.094	4.14
406.301	4.24
406.508	4.61
406.715	4.65
406.922	4.99
407.128	4.7
407.335	4.87
407.542	4.76
407.749	4.74
407.955	4.75
408.162	4.54
408.369	4.46
408.575	4.59
408.782	4.16
408.989	4.19
409.195	3.72
409.402	3.87
409.609	3.92
409.815	4.1
410.022	4.13
410.228	4
410.435	4.15
410.642	4.22
410.848	3.94
411.055	4.11
411.261	4.23
411.468	4.31
411.674	4.2
411.881	3.99
412.087	4.09
412.294	4.1
412.5	4.09
412.706	4.29
412.913	4.2
413.119	4.51
413.326	4.43
413.532	4.34
413.738	4.49
413.945	4.79
414.151	4.95
414.357	4.83
414.564	5.14
414.77	5
414.976	4.76
415.182	4.76
415.389	4.47
415.595	4.6
415.801	4.64
416.007	4.68
416.214	4.65
416.42	4.72
416.626	4.35
416.832	3.96
417.038	4.12
417.244	3.93
417.45	4.05
417.657	3.99
417.863	3.86
418.069	3.85
418.275	3.9
418.481	3.91
418.687	3.74
418.893	4.12
419.099	4.19
419.305	4.16
419.511	4.34
419.717	4.32
419.923	4.29
420.129	4.33
420.335	4.26
420.541	4.24
420.746	4.13
420.952	4.07
421.158	3.84
421.364	3.92
421.57	3.98
421.776	4.08
421.982	3.88
422.187	3.85
422.393	3.8
422.599	3.89
422.805	3.77
423.01	3.72
423.216	3.88
423.422	3.98
423.628	3.9
423.833	3.86
424.039	3.76
424.245	3.91
424.45	4.07
424.656	4.05
424.862	3.99
425.067	4.14
425.273	4.19
425.478	4.12
425.684	4.07
425.889	4.14
426.095	4.04
426.301	3.91
426.506	3.89
426.712	3.92
426.917	4.03
427.123	4.07
427.328	3.97
427.533	3.96
427.739	3.89
427.944	4.09
428.15	3.99
428.355	4.33
428.561	4.43
428.766	4.28
428.971	4.12
429.177	4.14
429.382	4
429.587	3.84
429.793	4.06
429.998	3.89
430.203	3.68
430.408	3.73
430.614	3.44
430.819	3.26
431.024	3.25
431.229	3.1
431.434	3.05
431.64	3.14
431.845	3.17
432.05	3.02
432.255	3.19
432.46	3.1
432.665	2.97
432.87	2.95
433.076	3.25
433.281	3.44
433.486	3.62
433.691	3.8
433.896	3.87
434.101	3.97
434.306	4.11
434.511	4.15
434.716	4.3
434.921	4.35
435.126	4.4
435.331	4.25
435.535	4.15
435.74	3.95
435.945	3.77
436.15	3.71
436.355	3.53
436.56	3.28
436.765	3.26
436.97	3.15
437.174	3.27
437.379	3.31
437.584	3.38
437.789	3.48
437.993	3.59
438.198	3.46
438.403	3.49
438.608	3.55
438.812	3.58
439.017	3.51
439.222	3.63
439.426	3.58
439.631	3.68
439.836	3.7
440.04	3.62
440.245	3.64
440.45	3.68
440.654	3.65
440.859	3.78
441.063	3.93
441.268	4
441.472	3.91
441.677	3.87
441.881	3.76
442.086	3.64
442.29	3.65
442.495	3.61
442.699	3.56
442.904	3.44
443.108	3.27
443.312	3.23
443.517	3.31
443.721	3.3
443.925	3.46
444.13	3.53
444.334	3.62
444.538	3.73
444.743	3.53
444.947	3.62
445.151	3.62
445.356	3.63
445.56	3.52
445.764	3.55
445.968	3.59
446.173	3.54
446.377	3.58
446.581	3.59
446.785	3.53
446.989	3.7
447.193	3.72
447.398	3.88
447.602	4.02
447.806	4.04
448.01	4
448.214	4.08
448.418	4.01
448.622	3.84
448.826	3.74
449.03	3.67
449.234	3.7
449.438	3.77
449.642	3.67
449.846	3.51
450.05	3.65
450.254	3.46
450.458	3.44
450.662	3.45
450.866	3.45
451.069	3.63
451.273	3.44
451.477	3.48
451.681	3.42
451.885	3.47
452.089	3.51
452.292	3.42
452.496	3.66
452.7	3.44
452.904	3.42
453.107	3.52
453.311	3.44
453.515	3.58
453.719	3.59
453.922	3.78
454.126	3.88
454.33	3.72
454.533	3.62
454.737	3.41
454.94	3.59
455.144	3.73
455.348	3.72
455.551	3.85
455.755	3.75
455.958	3.59
456.162	3.31
456.365	3.09
456.569	3.4
456.772	3.46
456.976	3.43
457.179	3.42
457.383	3.47
457.586	3.44
457.79	3.17
457.993	3.42
458.196	3.47
458.4	3.55
458.603	3.47
458.807	3.49
459.01	3.45
459.213	3.62
459.417	3.74
459.62	3.59
459.823	3.6
460.026	3.66
460.23	3.63
460.433	3.62
460.636	3.67
460.839	3.86
461.042	3.71
461.246	3.85
461.449	3.85
461.652	3.61
461.855	3.68
462.058	3.72
462.261	3.87
462.464	3.82
462.668	3.79
462.871	3.7
463.074	3.77
463.277	3.83
463.48	3.63
463.683	3.4
463.886	3.5
464.089	3.43
464.292	3.55
464.495	3.51
464.698	3.66
464.901	3.66
465.104	3.64
465.306	3.61
465.509	3.5
465.712	3.58
465.915	3.69
466.118	3.69
466.321	3.77
466.524	3.6
466.726	3.6
466.929	3.43
467.132	3.4
467.335	3.45
467.538	3.16
467.74	3.04
467.943	3.03
468.146	2.96
468.348	2.92
468.551	2.79
468.754	2.86
468.956	2.72
469.159	2.95
469.362	3.11
469.564	2.98
469.767	3.07
469.969	3.31
470.172	3.26
470.375	3.25
470.577	3.29
470.78	3.57
470.982	3.49
471.185	3.51
471.387	3.32
471.59	3.3
471.792	3.22
471.995	3.38
472.197	3.22
472.399	3.34
472.602	3.69
472.804	3.7
473.007	3.46
473.209	3.48
473.411	3.62
473.614	3.76
473.816	3.59
474.018	3.82
474.22	3.83
474.423	3.78
474.625	3.61
474.827	3.33
475.03	3.27
475.232	3.47
475.434	3.4
475.636	3.22
475.838	3.16
476.04	3.27
476.243	3.29
476.445	3.22
476.647	3.24
476.849	3.33
477.051	3.41
477.253	3.43
477.455	3.29
477.657	3.33
477.859	3.43
478.061	3.43
478.263	3.36
478.465	3.25
478.667	3.28
478.869	3.53
479.071	3.7
479.273	3.68
479.475	3.68
479.677	3.83
479.879	3.71
480.081	3.76
480.283	3.67
480.485	3.87
480.686	3.96
480.888	3.95
481.09	3.86
481.292	3.78
481.494	3.66
481.695	3.66
481.897	3.56
482.099	3.72
482.301	3.66
482.502	3.73
482.704	3.66
482.906	3.62
483.107	3.59
483.309	3.6
483.511	3.53
483.712	3.58
483.914	3.61
484.115	3.61
484.317	3.62
484.519	3.63
484.72	3.59
484.922	3.65
485.123	3.65
485.325	3.62
485.526	3.56
485.728	3.63
485.929	3.62
486.131	3.57
486.332	3.61
486.534	3.61
486.735	3.63
486.936	3.64
487.138	3.51
487.339	3.51
487.541	3.57
487.742	3.58
487.943	3.58
488.144	3.64
488.346	3.69
488.547	3.68
488.748	3.67
488.95	3.64
489.151	3.61
489.352	3.68
489.553	3.7
489.755	3.66
489.956	3.7
490.157	3.83
490.358	3.8
490.559	3.82
490.76	3.79
490.961	3.8
491.163	3.86
491.364	3.83
491.565	3.83
491.766	3.78
491.967	3.79
492.168	3.8
492.369	3.66
492.57	3.61
492.771	3.56
492.972	3.6
493.173	3.55
493.374	3.52
493.575	3.56
493.776	3.63
493.976	3.6
494.177	3.46
494.378	3.35
494.579	3.3
494.78	3.37
494.981	3.3
495.182	3.37
495.382	3.37
495.583	3.34
495.784	3.55
495.985	3.44
496.185	3.57
496.386	3.67
496.587	3.83
496.788	3.95
496.988	3.87
497.189	3.97
497.39	3.91
497.59	3.97
497.791	3.94
497.992	3.73
498.192	3.72
498.393	3.79
498.593	3.93
498.794	3.85
498.994	3.81
499.195	3.8
499.395	3.57
499.596	3.62
499.796	3.62
499.997	3.6
500.197	3.69
500.398	3.62
500.598	3.54
500.799	3.52
500.999	3.63
501.199	3.7
501.4	3.78
501.6	4.04
501.801	3.88
502.001	3.92
502.201	3.94
502.402	3.75
502.602	4
502.802	3.86
503.002	3.73
503.203	3.76
503.403	3.62
503.603	3.71
503.803	3.54
504.003	3.64
504.204	3.49
504.404	3.52
504.604	3.57
504.804	3.51
505.004	3.67
505.204	3.86
505.404	3.72
505.604	3.85
505.804	3.66
506.005	3.73
506.205	3.67
506.405	3.61
506.605	3.77
506.805	3.9
507.005	3.77
507.204	3.67
507.404	3.61
507.604	3.74
507.804	3.57
508.004	3.64
508.204	3.75
508.404	3.81
508.604	3.87
508.804	3.85
509.003	3.99
509.203	4.04
509.403	4.26
509.603	4.16
509.803	4.12
510.002	4.26
510.202	4.28
510.402	4.26
510.602	4.24
510.801	4.35
511.001	4.28
511.201	4.19
511.4	4.2
511.6	4.05
511.8	4.11
511.999	4.07
512.199	4
512.398	3.91
512.598	3.87
512.797	3.98
512.997	3.73
513.197	3.85
513.396	3.66
513.596	3.65
513.795	3.7
513.994	3.66
514.194	3.61
514.393	3.64
514.593	3.85
514.792	3.81
514.992	3.71
515.191	3.85
515.39	3.72
515.59	3.9
515.789	3.97
515.988	4.07
516.188	4.2
516.387	4.14
516.586	4.15
516.786	4.08
516.985	4.27
517.184	4.22
517.383	4.29
517.582	4.24
517.782	4.39
517.981	4.44
518.18	4.34
518.379	4.27
518.578	4.42
518.777	4.36
518.976	4.35
519.176	4.27
519.375	4.28
519.574	4.25
519.773	4.39
519.972	4.24
520.171	4.18
520.37	4.21
520.569	4.28
520.768	4.31
520.967	4.49
521.166	4.62
521.365	4.72
521.564	4.81
521.762	4.83
521.961	4.77
522.16	4.83
522.359	4.9
522.558	4.84
522.757	4.88
522.956	4.92
523.154	4.78
523.353	4.79
523.552	4.6
523.751	4.68
523.949	4.99
524.148	4.85
524.347	4.96
524.546	5
524.744	5.11
524.943	5.2
525.142	5.22
525.34	5.4
525.539	5.42
525.737	5.53
525.936	5.52
526.135	5.47
526.333	5.73
526.532	5.75
526.73	5.76
526.929	5.76
527.127	5.69
527.326	5.69
527.524	5.53
527.723	5.48
527.921	5.55
528.12	5.55
528.318	5.52
528.516	5.42
528.715	5.42
528.913	5.41
529.112	5.37
529.31	5.42
529.508	5.45
529.707	5.53
529.905	5.53
530.103	5.5
530.301	5.49
530.5	5.41
530.698	5.46
530.896	5.5
531.094	5.56
531.293	5.66
531.491	5.63
531.689	5.64
531.887	5.59
532.085	5.52
532.283	5.61
532.481	5.65
532.68	5.8
532.878	5.81
533.076	5.72
533.274	5.74
533.472	5.79
533.67	5.86
533.868	5.89
534.066	5.94
534.264	6.16
534.462	6.1
534.66	6.08
534.858	6.1
535.056	6.16
535.253	6.27
535.451	6.3
535.649	6.33
535.847	6.38
536.045	6.43
536.243	6.44
536.441	6.34
536.638	6.43
536.836	6.48
537.034	6.51
537.232	6.55
537.43	6.57
537.627	6.52
537.825	6.47
538.023	6.34
538.22	6.35
538.418	6.45
538.616	6.52
538.813	6.38
539.011	6.47
539.209	6.53
539.406	6.55
539.604	6.5
539.801	6.61
539.999	6.66
540.196	6.85
540.394	6.84
540.591	6.83
540.789	6.91
540.986	7.12
541.184	7.16
541.381	7.24
541.579	7.26
541.776	7.42
541.974	7.37
542.171	7.39
542.368	7.38
542.566	7.48
542.763	7.49
542.96	7.53
543.158	7.45
543.355	7.44
543.552	7.45
543.75	7.4
543.947	7.31
544.144	7.49
544.341	7.56
544.539	7.61
544.736	7.5
544.933	7.64
545.13	7.66
545.327	7.78
545.524	7.79
545.722	7.75
545.919	7.98
546.116	8.03
546.313	8.19
546.51	8.19
546.707	8.35
546.904	8.48
547.101	8.48
547.298	8.49
547.495	8.57
547.692	8.57
547.889	8.64
548.086	8.57
548.283	8.56
548.48	8.35
548.677	8.49
548.874	8.21
549.07	8.24
549.267	8.35
549.464	8.31
549.661	8.3
549.858	8.43
550.055	8.51
550.251	8.71
550.448	8.71
550.645	8.75
550.842	8.91
551.038	9.14
551.235	9.29
551.432	9.18
551.628	9.39
551.825	9.57
552.022	9.71
552.218	9.72
552.415	9.78
552.612	10.04
552.808	10.03
553.005	10.03
553.201	10.06
553.398	10.07
553.594	10.27
553.791	10.17
553.987	10.15
554.184	10.15
554.38	10.35
554.577	10.32
554.773	10.37
554.97	10.52
555.166	10.69
555.362	10.79
555.559	10.6
555.755	10.62
555.952	10.8
556.148	10.71
556.344	10.67
556.541	10.62
556.737	10.68
556.933	10.72
557.129	10.91
557.326	10.91
557.522	10.86
557.718	11.08
557.914	11.12
558.11	11.06
558.307	11.06
558.503	11.35
558.699	11.5
558.895	11.64
559.091	11.66
559.287	11.44
559.483	11.44
559.679	11.52
559.876	11.54
560.072	11.76
560.268	12.21
560.464	12.6
560.66	12.68
560.856	12.72
561.052	12.92
561.247	12.91
561.443	13.13
561.639	13.09
561.835	13.3
562.031	13.5
562.227	13.42
562.423	13.45
562.619	13.56
562.815	13.63
563.01	13.69
563.206	13.69
563.402	13.97
563.598	14.15
563.793	14.2
563.989	14.44
564.185	14.58
564.381	14.67
564.576	14.44
564.772	14.34
564.968	14.23
565.163	14.16
565.359	13.99
565.555	13.8
565.75	13.6
565.946	13.67
566.141	13.64
566.337	13.6
566.532	13.89
566.728	14.12
566.923	14.24
567.119	14.35
567.314	14.42
567.51	14.5
567.705	14.68
567.901	15.26
568.096	15.26
568.292	15.17
568.487	15.1
568.682	15.07
568.878	15.1
569.073	15.12
569.268	15.31
569.464	15.4
569.659	15.65
569.854	15.81
570.05	15.7
570.245	15.76
570.44	15.94
570.635	16.22
570.831	15.98
571.026	15.94
571.221	15.87
571.416	15.93
571.611	16.14
571.806	16
572.002	15.95
572.197	15.92
572.392	16.04
572.587	16.2
572.782	16.22
572.977	16.57
573.172	16.73
573.367	16.87
573.562	16.87
573.757	16.7
573.952	16.94
574.147	17.11
574.342	17.18
574.537	17.31
574.732	17.25
574.927	17.38
575.121	17.29
575.316	17.34
575.511	17.33
575.706	17.5
575.901	17.72
576.096	17.66
576.29	17.46
576.485	17.49
576.68	17.42
576.875	17.3
577.069	17.28
577.264	17.32
577.459	17.56
577.654	17.78
577.848	17.69
578.043	17.58
578.238	17.62
578.432	17.99
578.627	18
578.821	18.29
579.016	18.66
579.21	18.74
579.405	18.86
579.6	18.71
579.794	18.64
579.989	18.8
580.183	19.01
580.378	18.95
580.572	18.63
580.766	18.83
580.961	18.93
581.155	18.7
581.35	18.74
581.544	18.41
581.738	18.38
581.933	18.43
582.127	18.3
582.321	18.07
582.516	18.39
582.71	18.51
582.904	18.27
583.099	18.24
583.293	18.4
583.487	18.5
583.681	18.85
583.875	18.83
584.07	18.84
584.264	18.9
584.458	19.06
584.652	19.09
584.846	19.26
585.04	19.45
585.234	19.26
585.428	19.21
585.623	18.61
585.817	18.54
586.011	18.55
586.205	18.45
586.399	18.41
586.593	18.47
586.787	18.71
586.981	18.77
587.174	19.11
587.368	19.22
587.562	19.42
587.756	19.94
587.95	20.15
588.144	20.43
588.338	20.66
588.532	20.65
588.725	20.82
588.919	20.73
589.113	20.82
589.307	20.46
589.501	20.48
589.694	20.64
589.888	20.77
590.082	20.58
590.275	20.34
590.469	20.19
590.663	20.18
590.856	20.04
591.05	20.14
591.244	20.08
591.437	20.19
591.631	20.25
591.824	20.19
592.018	19.89
592.212	20.09
592.405	20.2
592.599	20.36
592.792	20.47
592.986	20.66
593.179	20.54
593.372	20.59
593.566	20.62
593.759	20.54
593.953	20.45
594.146	20.7
594.339	20.79
594.533	20.83
594.726	20.66
594.92	20.49
595.113	20.56
595.306	20.34
595.499	20.39
595.693	20.5
595.886	20.64
596.079	20.61
596.272	20.68
596.466	20.63
596.659	20.64
596.852	21.08
597.045	21.22
597.238	21.14
597.431	21.35
597.624	21.32
597.818	21.37
598.011	21.5
598.204	21.4
598.397	21.26
598.59	21.2
598.783	21.04
598.976	20.9
599.169	20.87
599.362	20.99
599.555	20.81
599.748	20.75
599.941	20.51
600.134	20.19
600.326	20.34
600.519	20.62
600.712	20.64
600.905	20.93
601.098	20.86
601.291	21.05
601.483	20.96
601.676	21.1
601.869	21.26
602.062	21.34
602.255	21.46
602.447	21.41
602.64	21.48
602.833	21.66
603.025	21.72
603.218	21.75
603.411	21.78
603.603	22.03
603.796	21.88
603.989	21.87
604.181	22
604.374	22.14
604.566	22.31
604.759	22.05
604.951	21.95
605.144	21.99
605.336	22.04
605.529	22.17
605.721	22
605.914	22.13
606.106	22.15
606.299	22.13
606.491	22.03
606.683	22.12
606.876	22.28
607.068	22.26
607.26	22.18
607.453	22.13
607.645	22.15
607.837	22.18
608.03	22.25
608.222	22.42
608.414	22.49
608.606	22.38
608.799	22.21
608.991	22.34
609.183	22.59
609.375	22.61
609.567	22.69
609.759	22.56
609.952	22.66
610.144	22.5
610.336	22.59
610.528	22.48
610.72	22.61
610.912	22.82
611.104	22.89
611.296	22.82
611.488	22.91
611.68	22.71
611.872	22.76
612.064	22.68
612.256	22.86
612.448	22.49
612.64	22.47
612.832	22.36
613.023	21.88
613.215	21.61
613.407	21.45
613.599	21.16
613.791	21.18
613.983	20.92
614.174	20.78
614.366	20.94
614.558	21.33
614.75	21.38
614.941	21.38
615.133	21.31
615.325	21.29
615.516	21.43
615.708	21.65
615.9	21.73
616.091	22.13
616.283	22.23
616.475	21.97
616.666	22.15
616.858	22.36
617.049	22.57
617.241	22.99
617.432	23.37
617.624	23.19
617.815	23.07
618.007	23.12
618.198	23.12
618.39	23.27
618.581	23.36
618.773	23.44
618.964	23.27
619.155	23.1
619.347	23.12
619.538	22.87
619.729	23.06
619.921	23.04
620.112	23.43
620.303	23.02
620.494	22.68
620.686	22.68
620.877	22.27
621.068	22.48
621.259	22.78
621.451	22.81
621.642	22.93
621.833	22.96
622.024	23.17
622.215	22.84
622.406	23.23
622.597	23.33
622.788	23.29
622.98	23.14
623.171	23.24
623.362	23.08
623.553	22.95
623.744	22.86
623.935	22.96
624.126	23.18
624.317	23.25
624.508	23.17
624.698	23.49
624.889	23.83
625.08	23.93
625.271	23.81
625.462	24.07
625.653	23.81
625.844	23.82
626.034	23.83
626.225	23.7
626.416	23.66
626.607	23.7
626.798	23.52
626.988	23.29
627.179	23.37
627.37	23.46
627.56	23.29
627.751	23.89
627.942	24.01
628.132	24
628.323	23.76
628.514	24.09
628.704	24.13
628.895	24.09
629.085	24.07
629.276	23.94
629.466	23.61
629.657	23.62
629.847	23.12
630.038	23.06
630.228	22.73
630.419	23.08
630.609	22.43
630.8	22.31
630.99	22.21
631.181	22.32
631.371	22.22
631.561	22.45
631.752	22.39
631.942	22.51
632.132	22.45
632.323	22.94
632.513	22.97
632.703	22.9
632.893	22.72
633.084	22.9
633.274	22.92
633.464	23.21
633.654	23.23
633.844	23.14
634.034	23.46
634.225	23.38
634.415	23.26
634.605	23.1
634.795	23.53
634.985	24.01
635.175	24.04
635.365	23.91
635.555	23.93
635.745	23.68
635.935	23.72
636.125	23.56
636.315	23.79
636.505	23.52
636.695	23.72
636.885	23.67
637.075	23.49
637.265	23.45
637.455	23.56
637.644	23.65
637.834	24
638.024	24.22
638.214	24.4
638.404	24.07
638.593	24.31
638.783	24.31
638.973	24.54
639.163	24.37
639.352	24.64
639.542	24.29
639.732	24.14
639.921	24.32
640.111	24.36
640.301	23.91
640.49	23.87
640.68	23.98
640.87	23.74
641.059	23.48
641.249	23.67
641.438	23.36
641.628	23.49
641.817	23.32
642.007	22.58
642.196	22.35
642.386	22.19
642.575	22.31
642.764	21.91
642.954	21.86
643.143	22
643.333	21.81
643.522	22.19
643.711	22.54
643.901	23.04
644.09	23.65
644.279	24.24
644.469	24.43
644.658	24.7
644.847	25.14
645.036	24.94
645.226	24.74
645.415	24.49
645.604	24.43
645.793	24.42
645.982	23.94
646.171	24.07
646.361	23.41
646.55	23.51
646.739	23.65
646.928	23.59
647.117	23.99
647.306	24.13
647.495	24.44
647.684	24
647.873	24.22
648.062	24.74
648.251	24.54
648.44	24.76
648.629	25.07
648.818	25.05
649.007	24.9
649.196	24.85
649.384	24.93
649.573	24.92
649.762	25.26
649.951	24.94
650.14	24.54
650.328	24.43
650.517	24.41
650.706	24.22
650.895	23.97
651.083	24.16
651.272	24.25
651.461	24.04
651.65	24.1
651.838	23.84
652.027	23.92
652.216	24.05
652.404	24.39
652.593	24.4
652.781	24.52
652.97	24.35
653.158	24.2
653.347	24.32
653.535	24.42
653.724	24.3
653.912	24.69
654.101	24.41
654.289	24.15
654.478	24.1
654.666	24.35
654.855	24.03
655.043	24.56
655.231	24.26
655.42	23.94
655.608	24.14
655.796	24.25
655.985	24.38
656.173	24.58
656.361	25.2
656.55	24.83
656.738	24.87
656.926	25.22
657.114	24.88
657.302	25.07
657.491	25.34
657.679	25
657.867	25.21
658.055	25.09
658.243	25.04
658.431	24.84
658.619	25.28
658.807	25.13
658.996	25.03
659.184	25.1
659.372	25.16
659.56	25.13
659.748	25.52
659.936	25.48
660.124	25.6
660.311	25.75
660.499	25.68
660.687	25.48
660.875	25.55
661.063	25.57
661.251	25.45
661.439	25.49
661.627	25.34
661.814	25.04
662.002	24.78
662.19	24.37
662.378	24.17
662.565	24.44
662.753	24.16
662.941	23.68
663.129	24.24
663.316	24.43
663.504	24.55
663.692	24.23
663.879	23.95
664.067	24.12
664.254	24.41
664.442	24.87
664.63	24.74
664.817	24.96
665.005	25.29
665.192	24.73
665.38	24.74
665.567	24.38
665.755	24.98
665.942	25.26
666.13	25.52
666.317	25.22
666.504	25.22
666.692	24.94
666.879	25.21
667.067	25.75
667.254	26.1
667.441	26.31
667.629	26.7
667.816	26.74
668.003	27.06
668.19	26.91
668.378	26.95
668.565	26.67
668.752	26.74
668.939	26.92
669.127	26.37
669.314	25.54
669.501	25.28
669.688	25.23
669.875	25.58
670.062	25.87
670.249	25.24
670.436	25.97
670.623	26.07
670.81	25.92
670.997	25.66
671.184	25.68
671.371	26.47
671.558	26.61
671.745	26.54
671.932	25.96
672.119	25.58
672.306	26.27
672.493	25.85
672.68	25.94
672.867	25.52
673.054	25.21
673.24	25.39
673.427	25.23
673.614	25.49
673.801	25.22
673.988	25
674.174	24.79
674.361	24.57
674.548	24.85
674.734	24.81
674.921	25.54
675.108	25.42
675.294	25.18
675.481	24.83
675.668	24.8
675.854	24.91
676.041	24.94
676.227	25.26
676.414	25.14
676.601	24.53
676.787	24.75
676.974	24.16
677.16	24.69
677.347	24.81
677.533	24.71
677.719	24.69
677.906	24.48
678.092	24.56
678.279	24.29
678.465	24.06
678.651	24.38
678.838	24.55
679.024	25.14
679.21	25.02
679.397	25.2
679.583	25.79
679.769	25.62
679.955	26.17
680.142	26.24
680.328	26.33
680.514	26.57
680.7	26.75
680.886	26.53
681.073	26.65
681.259	26.82
681.445	26.85
681.631	26.54
681.817	26.94
682.003	26.88
682.189	26.44
682.375	26.06
682.561	26.52
682.747	26.34
682.933	26.48
683.119	26.33
683.305	26.3
683.491	26.25
683.677	26.47
683.863	26.08
684.049	26.18
684.235	26.64
684.42	27.11
684.606	26.18
684.792	26.05
684.978	25.38
685.164	25.43
685.349	25.3
685.535	24.82
685.721	24.41
685.907	24.51
686.092	24.28
686.278	24.62
686.464	24.43
686.649	25.37
686.835	24.96
687.021	25.81
687.206	25.63
687.392	25.55
687.577	26.27
687.763	26.61
687.948	26.54
688.134	26.3
688.319	26.1
688.505	25.96
688.69	26
688.876	26.38
689.061	25.82
689.247	25.49
689.432	25.79
689.618	25.56
689.803	25.26
689.988	25.15
690.174	25.63
690.359	25.44
690.544	25.89
690.73	25.88
690.915	25.61
691.1	25.74
691.285	26.27
691.471	25.9
691.656	26.35
691.841	26.42
692.026	26.63
692.211	26.73
692.396	27.15
692.582	26.59
692.767	26.79
692.952	27.46
693.137	27.39
693.322	27.46
693.507	27.74
693.692	27.36
693.877	27.23
694.062	27.77
694.247	27.48
694.432	26.9
694.617	27.31
694.802	26.66
694.987	26.19
695.172	26.54
695.357	26.28
695.541	26.37
695.726	26.11
695.911	26.01
696.096	25.26
696.281	25.15
696.466	25.7
696.65	25.9
696.835	25.85
697.02	25.59
697.204	25.05
697.389	25.05
697.574	25.05
697.759	24.79
697.943	25.02
698.128	25.1
698.312	24.85
698.497	24.81
698.682	24.81
698.866	24.78
699.051	25.15
699.235	25.46
699.42	25.4
699.604	25.14
699.789	25.35
699.973	25.46
700.158	25.41
700.342	25.87
700.527	26
700.711	25.6
700.895	25.93
701.08	25.84
701.264	26.01
701.448	26.31
701.633	26.52
701.817	26.77
702.001	26.64
702.186	27.1
702.37	26.37
702.554	26.63
702.738	27.06
702.923	26.58
703.107	26.33
703.291	26.05
703.475	25.87
703.659	25.59
703.843	25.55
704.027	25.9
704.212	25.04
704.396	25.6
704.58	24.9
704.764	24.71
704.948	25.34
705.132	26.13
705.316	26.21
705.5	26.28
705.684	26.85
705.868	27.13
706.052	26.08
706.235	26.38
706.419	26.52
706.603	26.8
706.787	26.95
706.971	26.02
707.155	25.6
707.339	25.75
707.522	25.56
707.706	25.46
707.89	24.84
708.074	25.14
708.257	25.37
708.441	25.14
708.625	24.73
708.808	25.07
708.992	25.46
709.176	25.03
709.359	25.31
709.543	25.11
709.727	25.47
709.91	25.84
710.094	26.2
710.277	25.99
710.461	25.34
710.644	25.18
710.828	24.76
711.011	25.28
711.195	25.55
711.378	24.97
711.562	26.08
711.745	25.08
711.928	25.33
712.112	25.33
712.295	25.98
712.478	26.61
712.662	26.91
712.845	26.84
713.028	26.79
713.212	27.09
713.395	27.24
713.578	26.42
713.761	26.87
713.945	26.88
714.128	27.24
714.311	26.31
714.494	26.41
714.677	27.08
714.86	27.13
715.043	26.86
715.227	26.96
715.41	26.47
715.593	26.41
715.776	25.8
715.959	25.28
716.142	24.87
716.325	24.68
716.508	24.95
716.691	24.04
716.874	23.84
717.057	23.8
717.239	23.29
717.422	23.19
717.605	23.99
717.788	24.77
717.971	25.39
718.154	25.15
718.337	25.92
718.519	25.48
718.702	25.3
718.885	24.94
719.068	24.84
719.25	25.05
719.433	25.84
719.616	25.19
719.798	24.36
719.981	23.37
720.164	24.19
720.346	23.83
720.529	24.31
720.712	24.72
720.894	25.83
721.077	25.05
721.259	24.84
721.442	24.7
721.624	23.95
721.807	24.07
721.989	24.51
722.172	24.54
722.354	24.01
722.537	22.89
722.719	23.76
722.901	22.93
723.084	23.52
723.266	23.92
723.448	24.13
723.631	24.97
723.813	25.79
723.995	25.47
724.178	25.45
724.36	25.74
724.542	26.24
724.724	25.35
724.907	25.37
725.089	25.46
725.271	24.9
725.453	24.61
725.635	24.71
725.817	24.82
725.999	25.03
726.181	24.77
726.364	24.76
726.546	25.85
726.728	26.04
726.91	25.95
727.092	26.25
727.274	27.22
727.456	27.07
727.638	26.87
727.819	27.12
728.001	26.78
728.183	26.15
728.365	26.58
728.547	26.21
728.729	26.58
728.911	26.64
729.093	26.57
729.274	26.49
729.456	25.73
729.638	24.64
729.82	23.99
730.001	24.57
730.183	25.74
730.365	26.94
730.546	26.78
730.728	26.39
730.91	26.42
731.091	26.1
731.273	25.65
731.455	26.59
731.636	27.19
731.818	26.66
731.999	26.36
732.181	26.4
732.362	25.32
732.544	25.23
732.725	24.93
732.907	24.68
733.088	25.83
733.27	25.35
733.451	25.79
733.633	26.73
733.814	26.68
733.995	26.81
734.177	26.14
734.358	26.22
734.539	25.77
734.721	25.67
734.902	26.36
735.083	25.76
735.264	25.99
735.446	25.78
735.627	25.56
735.808	25.7
735.989	25.26
736.17	25.29
736.351	24.96
736.533	25.33
736.714	25.94
736.895	26.4
737.076	26.56
737.257	27.18
737.438	26.62
737.619	26.15
737.8	26.27
737.981	26.39
738.162	25.98
738.343	26.05
738.524	26.11
738.705	25.92
738.886	26.12
739.067	25.26
739.247	24.55
739.428	24.35
739.609	23.3
739.79	23.91
739.971	23.79
740.151	25.23
740.332	24.43
740.513	23.97
740.694	23.55
740.874	21.72
741.055	22.99
741.236	22.98
741.417	22.63
741.597	23.45
741.778	22.36
741.958	23.33
742.139	22.5
742.32	23.08
742.5	22.96
742.681	23.01
742.861	24.5
743.042	22.67
743.222	22.56
743.403	23.38
743.583	24.08
743.764	25.08
743.944	24.21
744.124	24.24
744.305	24.55
744.485	24.37
744.666	24.18
744.846	23.79
745.026	24.63
745.207	25.23
745.387	25.12
745.567	25.33
745.747	25.36
745.928	26.14
746.108	25.16
746.288	25.53
746.468	26.74
746.648	26.86
746.829	27.14
747.009	26.46
747.189	26.51
747.369	25.71
747.549	25.52
747.729	24.34
747.909	24.95
748.089	24.73
748.269	23.94
748.449	24.54
748.629	23.81
748.809	22.99
748.989	24.75
749.169	24.11
749.349	24.4
749.529	23.2
749.709	24.38
749.889	22.18
750.068	22.9
750.248	24.21
750.428	23.64
750.608	25.41
750.788	25.73
750.967	24.78
751.147	25.08
751.327	25.07
751.507	26.56
751.686	25.9
751.866	26.86
752.046	27.47
752.225	26.2
752.405	25.11
752.585	23.59
752.764	23.65
752.944	22.68
753.123	21.89
753.303	22.91
753.482	21.14
753.662	21.19
753.841	22.57
754.021	21.98
754.2	22.14
754.38	21.73
754.559	22.49
754.739	21.85
754.918	22.58
755.097	23.79
755.277	22.92
755.456	24.69
755.635	24.29
755.815	22.91
755.994	22.05
756.173	22.67
756.352	22
756.532	22.24
756.711	21.69
756.89	21.92
757.069	22.04
757.248	23.39
757.427	24.65
757.607	24.82
757.786	25.71
757.965	26.56
758.144	26.14
758.323	27.51
758.502	28.19
758.681	28.86
758.86	27.48
759.039	26.56
759.218	25.45
759.397	23.03
759.576	22.99
759.755	23.52
759.934	23.57
760.113	24.6
760.291	25.24
760.47	23.75
760.649	24.3
760.828	26.34
761.007	27.19
761.186	27.03
761.364	28.05
761.543	28.77
761.722	27.89
761.901	27.14
762.079	25.83
762.258	25.51
762.437	25.44
762.615	24.78
762.794	24.2
762.972	23.42
763.151	24.05
763.33	23.13
763.508	23.24
763.687	22.8
763.865	23.05
764.044	23.07
764.222	23.74
764.401	24.24
764.579	24.71
764.758	24.62
764.936	25.76
765.114	26.83
765.293	27.86
765.471	26.81
765.65	26.6
765.828	26.77
766.006	27.66
766.184	27.66
766.363	26.97
766.541	27.5
766.719	26.77
766.898	26.35
767.076	24.36
767.254	24.62
767.432	25.19
767.61	26.31
767.788	26.01
767.967	25.46
768.145	23.62
768.323	24.69
768.501	22.92
768.679	25.36
768.857	23.96
769.035	23.08
769.213	21.55
769.391	21.81
769.569	21.13
769.747	21.93
769.925	20.7
770.103	20.77
770.281	20.91
770.459	20.82
770.636	19.25
770.814	20.38
770.992	21.61
771.17	22.37
771.348	22.93
771.525	23.6
771.703	21.72
771.881	23.8
772.059	23.58
772.236	22.87
772.414	25.54
772.592	25
772.769	25.8
772.947	24.06
773.125	22.68
773.302	23.43
773.48	24.04
773.657	25.16
773.835	23.17
774.013	24.94
774.19	24.5
774.368	21.96
774.545	23.43
774.723	20.22
774.9	20.56
775.077	21.79
775.255	21.15
775.432	17.99
775.61	16.95
775.787	15.96
775.964	14.58
776.142	12.73
776.319	14.62
776.496	14.06
776.674	14.66
776.851	16.68
777.028	17.09
777.205	14.64
777.382	17.3
777.56	19.07
777.737	21.27
777.914	20.95
778.091	22.16
778.268	19.25
778.445	17.99
778.622	19.4
778.8	20.39
778.977	19.86
779.154	20.94
779.331	19.98
779.508	18.91
779.685	18.85
779.862	19.62
780.038	20.15
780.215	22.28
780.392	21.14
780.569	23.04
780.746	20.75
780.923	20.37
781.1	19
781.277	20.31
781.453	19.57
781.63	19.13
781.807	18.82
781.984	20.21
782.16	19.68
782.337	20.75
782.514	20.73
782.691	22.92
782.867	25.13
783.044	22.75
783.221	20.03
783.397	22.5
783.574	21.65
783.75	22.96
783.927	23.1
784.103	23.59
784.28	20
784.456	16.81
784.633	16.01
784.809	14.71
784.986	21.06
785.162	20.42
785.339	17.85
785.515	19.79
785.692	18.46
785.868	15.85
786.044	16.49
786.221	18.09
786.397	20.02
786.573	18.86
786.749	17.61
786.926	17.47
787.102	19.86
787.278	22.18
787.454	22.49
787.631	20.63
787.807	23.39
787.983	22.64
788.159	25.94
788.335	24.36
788.511	24.98
788.687	26.36
788.863	26.02
789.039	24.9
789.216	22.6
789.392	20.64
789.568	23.43
789.744	20.87
789.919	21.79
790.095	19.94
790.271	19.94
790.447	20.12
790.623	19.78
790.799	17.83
790.975	18.7
791.151	19.29
791.327	21.93
791.502	20.57
791.678	22.93
791.854	23.96
792.03	26.11
792.205	25.05
792.381	23.29
792.557	20.91
792.733	21.18
792.908	21.1
793.084	21.18
793.259	17.25
793.435	16.91
793.611	15.47
793.786	11.89
793.962	10.34
794.137	14.74
794.313	15.94
794.488	15.34
794.664	12.96
794.839	13.75
795.015	15.22
795.19	17.58
795.366	20
795.541	20.67
795.716	21.18
795.892	21.96
796.067	19.95
796.242	19.73
796.418	23.61
796.593	25.62
796.768	26.24
796.944	27.23
797.119	26.86
797.294	25.54
797.469	23.52
797.644	23.87
797.82	23.71
797.995	24.32
798.17	25.33
798.345	24.22
798.52	24.04
798.695	22.59
798.87	20.93
799.045	21.17
799.22	21.87
799.395	23.41
799.57	25.82
799.745	25.67
799.92	24.38
800.095	22.61
800.27	23.45
800.445	24.04
800.62	24.35
800.795	23.76
800.97	23.09
801.145	18.71
801.319	18.06
801.494	14.88
801.669	15.61
801.844	15.14
802.018	18.69
802.193	21.06
802.368	18.67
802.543	17.88
802.717	18.45
802.892	18.19
803.067	21.28
803.241	21.65
803.416	21.22
803.59	20.34
803.765	20.86
803.94	16.64
804.114	14.06
804.289	15.41
804.463	16.12
804.638	15.37
804.812	15.88
804.986	16.21
805.161	18.7
805.335	18.52
805.51	16.29
805.684	17.23
805.858	16.65
806.033	15.22
806.207	15.14
806.381	12.53
806.556	13.73
806.73	15.12
806.904	14.79
807.078	12.61
807.253	13.47
807.427	13.12
807.601	13.07
807.775	14.97
807.949	13.13
808.123	16.25
808.298	18.23
808.472	17.24
808.646	15.96
808.82	17.36
808.994	19
809.168	17.52
809.342	18.04
809.516	19.84
809.69	20.35
809.864	23.31
810.038	21.29
810.212	17.25
810.385	16.13
810.559	15.54
810.733	13.51
810.907	12.99
811.081	17.57
811.255	19.27
811.428	19.6
811.602	16.04
811.776	15.43
811.95	13.76
812.123	16.63
812.297	20.22
812.471	22.14
812.644	23.47
812.818	23.03
812.992	20.48
813.165	19.82
813.339	15.87
813.512	20.91
813.686	21.32
813.86	22.5
814.033	23.16
814.207	24.23
814.38	21.35
814.554	18.39
814.727	16.88
814.9	19.83
815.074	21.49
815.247	22.34
815.421	21.35
815.594	21.09
815.767	18.77
815.941	20.93
816.114	19.71
816.287	24.11
816.46	22.51
816.634	23.19
816.807	18.49
816.98	18.15
817.153	16.77
817.327	13.16
817.5	12.64
817.673	13.08
817.846	12.6
818.019	12.28
818.192	11.24
818.365	15.68
818.538	16.77
818.711	17.49
818.884	17.09
819.057	19.51
819.23	24.15
819.403	25.94
819.576	29.43
819.749	27.04
819.922	23.29
820.095	23.74
820.268	24.38
820.441	22.55
820.614	24.07
820.786	22.93
820.959	24.08
821.132	22.28
821.305	22.04
821.477	21.42
821.65	22.84
821.823	24.8
821.996	24.22
822.168	23.91
822.341	25.49
822.514	26.21
822.686	26.76
822.859	26.77
823.031	27.26
823.204	27.69
823.376	28.09
823.549	28.55
823.722	28.19
823.894	29.24
824.067	29.09
824.239	27.93
824.411	26.7
824.584	26.81
824.756	26.79
824.929	26.92
825.101	26.54
825.273	25.34
825.446	24.38
825.618	24.04
825.79	23.47
825.963	24.71
826.135	25.42
826.307	26.64
826.479	26.21
826.652	26.29
826.824	26.31
826.996	27.61
827.168	27.89
827.34	28.38
827.512	28.44
827.684	27.77
827.856	27.84
828.029	28.06
828.201	27.48
828.373	27.78
828.545	27.76
828.717	26.94
828.889	23.59
829.061	25.4
829.232	24.8
829.404	25.18
829.576	24.66
829.748	24.38
829.92	23.84
830.092	23.74
830.264	23.49
830.436	20.17
830.607	22.86
830.779	26.68
830.951	24.43
831.123	27.28
831.294	26.22
831.466	24.57
831.638	23.4
831.809	21.33
831.981	23.03
832.153	19.34
832.324	20.25
832.496	15.13
832.667	11.01
832.839	10.77
833.011	6.71
833.182	6.17
833.354	9.4
833.525	13.14
833.697	14.55
833.868	12.14
834.039	16.29
834.211	17.94
834.382	22.53
834.554	22.05
834.725	22.71
834.896	24.06
835.068	24.59
835.239	25.4
835.41	25.39
835.581	25.29
835.753	24.76
835.924	25.09
836.095	26.33
836.266	21.72
836.438	22.57
836.609	23.4
836.78	24.01
836.951	25.97
837.122	27.06
837.293	23.69
837.464	25.1
837.635	29.58
837.806	27.27
837.977	28
838.148	32.71
838.319	32.53
838.49	29.99
838.661	29.12
838.832	26.21
839.003	19.24
839.174	17.58
839.345	14.58
839.516	6.37
839.687	10.73
839.857	4.11
840.028	-5.29
840.199	-1.26
840.37	3.66
840.54	0.17
840.711	6.88
840.882	15.52
841.053	20.82
841.223	24.69
841.394	29.31
841.564	26.89
841.735	32
841.906	38.67
842.076	37.27
842.247	38.01
842.417	40.38
842.588	30.69
842.758	30.36
842.929	26.25
843.099	21.81
843.27	18.74
843.44	17.96
843.611	8.54
843.781	-7.12
843.951	1.52
844.122	-9
844.292	-9.97
844.462	-0.47
844.633	-12.62
844.803	-12.13
844.973	-9.85
845.144	-13.4
845.314	-13.41
845.484	-4.01
845.654	3.39
845.824	-2.97
845.995	2.93
846.165	-3.78
846.335	-14.81
846.505	-9.08
846.675	-7.09
846.845	-8.82
847.015	-3
847.185	-0.32
847.355	-9.7
847.525	-11.3
847.695	-1.34
847.865	6.28
848.035	5.74
848.205	10.67
848.375	9.51
848.545	7.96
848.715	7.58
848.884	1.31
849.054	6.12
849.224	9.01
849.394	6.32
849.564	2.99
849.733	-1.82
849.903	6.14
850.073	6.39
850.243	6.67
850.412	5.1
850.582	-4.8
850.752	-10.38
850.921	-15.69
851.091	-11.65
851.26	-5.88
851.43	-3.31
851.599	1.34
851.769	-5.97
851.939	-2.78
852.108	2.63
852.278	0.11
852.447	6.38
852.616	13.14
852.786	7.19
852.955	12.81
853.125	19.84
853.294	13.53
853.463	4.87
853.633	17.28
853.802	16.24
853.971	-0.02
854.141	1.85
854.31	14.38
854.479	21.39
854.648	32.54
854.818	25.21
854.987	14.84
855.156	15.53
855.325	4.37
855.494	-15.03
855.663	-7.94
855.832	-3.96
856.001	0.9
856.171	-7.41
856.34	-12.61
856.509	-23.14
856.678	-31.44
856.847	-15.57
857.016	-23.57
857.185	-9.21
857.353	9.05
857.522	6.85
857.691	3.58
857.86	9.3
858.029	4.66
858.198	-5.99
858.367	8.51
858.535	15.6
858.704	14.24
858.873	16.58
859.042	13.45
859.21	7.54
859.379	-5.39
859.548	-12.42
859.717	-20.05
859.885	-12.84
860.054	-4.89
860.222	-5.4
860.391	-24.13
860.56	-34.04
860.728	-45.78
860.897	-33.21
861.065	-41.28
861.234	-28.41
861.402	12.11
861.571	-3.48
861.739	1.04
861.908	-6.29
862.076	-19.08
862.244	-7.37
862.413	-17.57
862.581	-5.92
862.749	1
862.918	-6.04
863.086	-1.84
863.254	-7.65
863.423	0.46
863.591	2.25
863.759	7.65
863.927	6.35
864.096	2.05
864.264	-2.29
864.432	0.28
864.6	-24.01
864.768	-18.21
864.936	-14.47
865.104	-21.18
865.272	-28.95
865.44	-44.56
865.608	-42.35
865.776	-34.83
865.944	-27.87
866.112	-6.32
866.28	-22.77
866.448	-11.52
866.616	-6.17
866.784	-18.99
866.952	-5.65
867.12	-13.95
867.288	7.72
867.455	9.36
867.623	15.68
867.791	16.14
867.959	5.73
868.127	2.8
868.294	7.82
868.462	2.03
868.63	9.8
868.797	3.98
868.965	4.69
869.133	-28.84
869.3	-39.06
869.468	-42.02
869.636	-29.39
869.803	-42.69
869.971	-37.56
870.138	-38.57
870.306	-43.54
870.473	-85.45
870.641	-140.05
870.808	-89.82
870.975	-70.72
871.143	-66.48
871.31	-44.24
871.478	-49.09
871.645	-38.39
871.812	-28.99
871.98	-34.8
872.147	-40.81
872.314	-20.85
872.482	-8.61
872.649	-9.46
872.816	-15.45
872.983	-0.96
873.15	-23.69
873.318	-12.75
873.485	-19.07
873.652	-19.9
873.819	-18.73
873.986	-10.87
874.153	-22.25
874.32	-26.9
874.487	-31.8
874.654	-30.65
874.821	-36.99
874.988	-28.77
875.155	-24.35
875.322	-11.03
875.489	-0.29
875.656	3.62
875.823	21.07
875.99	25.56
876.157	31.99
876.324	31.12
876.49	26.71
876.657	28.37
876.824	25.71
876.991	20.2
877.157	14.1
877.324	4.25
877.491	7.04
877.658	-18.06
877.824	-26.59
877.991	-47.56
878.157	-37.49
878.324	-47.08
878.491	-48.37
878.657	-42.98
878.824	-42.15
878.99	-36.72
879.157	-17.41
879.323	-19.4
879.49	9.33
879.656	12.47
879.823	17
879.989	12.69
880.156	15.15
880.322	0.96
880.488	4.11
880.655	3.79
880.821	-11.14
880.987	-17.46
881.154	-17.49
881.32	-12.08
881.486	-2.22
881.652	-0.89
881.819	3.28
881.985	3.24
882.151	8.72
882.317	12.06
882.483	16.22
882.649	21.73
882.816	22.29
882.982	22.87
883.148	21.68
883.314	20.6
883.48	23.01
883.646	21.57
883.812	21.29
883.978	22.56
884.144	24.95
884.31	23.78
884.476	24.41
884.642	24.55
884.807	22.28
884.973	20.25
885.139	18.92
885.305	17.23
885.471	16.29
885.637	16.82
885.802	17.16
885.968	13.19
886.134	16.9
886.3	14.49
886.465	12.59
886.631	17.28
886.797	17.73
886.962	22.06
887.128	26.67
887.293	29.92
887.459	35.76
887.625	30.26
887.79	26.05
887.956	15.18
888.121	21.93
888.287	27.15
888.452	23.72
888.618	27.82
888.783	22.67
