Data from 2937828_Reflection_2.txt Node
Date: Wed Jul 15 16:56:13 EDT 2015
User: robert
Spectrometer: USB4E03001
Autoset integration time: false
Trigger mode: 4
Integration Time (sec): 1.000000E-1
Scans to average: 10
Electric dark correction enabled: true
Nonlinearity correction enabled: false
Boxcar width: 5
Stray light correction enabled: false
XAxis mode: Wavelengths
Stop averaging: false
Number of Pixels in Spectrum: 3648
>>>>>Begin Spectral Data<<<<<
177.566	91.11
177.785	45.58
178.005	72.74
178.225	5342.86
178.445	16516.67
178.665	114.78
178.885	-36.39
179.105	382.22
179.324	40.09
179.544	110.33
179.764	73.57
179.984	-60.85
180.204	-107.81
180.423	-110.41
180.643	-15.75
180.863	-7.71
181.083	36.63
181.302	-70.81
181.522	-91.37
181.742	24.98
181.961	25.79
182.181	-3.24
182.401	-5.17
182.621	-18.14
182.84	-11.48
183.06	-78.6
183.279	-201.31
183.499	-204.52
183.719	-65.43
183.938	-28.82
184.158	700
184.377	191.25
184.597	3.2
184.816	-7.92
185.036	-101.5
185.256	-18.08
185.475	-201.24
185.695	700
185.914	3731.34
186.134	546.52
186.353	305.79
186.572	186.02
186.792	172.81
187.011	109.79
187.231	84.45
187.45	72.13
187.67	71.29
187.889	65.53
188.108	66.16
188.328	57.9
188.547	51.83
188.766	42.13
188.986	35.13
189.205	69.13
189.424	155.55
189.644	643.97
189.863	-31952.94
190.082	537.06
190.302	277.38
190.521	312.1
190.74	1545
190.959	59.29
191.178	77.82
191.398	66.62
191.617	-136.3
191.836	6.78
192.055	37.44
192.274	-222.02
192.494	1156.44
192.713	214.87
192.932	-185.74
193.151	-50.27
193.37	-54.52
193.589	-94.28
193.808	-104.08
194.027	-139.84
194.246	389.28
194.465	119.06
194.685	11.64
194.904	16.27
195.123	-79.29
195.342	-80.85
195.561	-166.07
195.78	-227.57
195.999	-654.44
196.218	-371.96
196.436	-323.98
196.655	1833.83
196.874	453.09
197.093	194.42
197.312	159.36
197.531	160.7
197.75	149.13
197.969	34.38
198.188	7.1
198.407	-11.38
198.625	-6.83
198.844	5.44
199.063	-84.72
199.282	-173.44
199.501	-4.74
199.719	-94.95
199.938	-254.61
200.157	-123.16
200.376	-91.88
200.594	-209.61
200.813	-132.66
201.032	-95.39
201.251	-120.8
201.469	-18.46
201.688	-30.28
201.907	-37.86
202.125	-54.61
202.344	0.96
202.563	17.44
202.781	-85.24
203	-24.04
203.218	-38.63
203.437	-43.03
203.656	-121.41
203.874	632.9
204.093	436.9
204.311	-176.09
204.53	-631.38
204.748	144.76
204.967	338.62
205.185	337.19
205.404	-299.9
205.622	-795.78
205.841	-363.41
206.059	-162.03
206.278	-200.12
206.496	-164.62
206.715	-838.97
206.933	-1415.25
207.151	-182.21
207.37	-103.75
207.588	-20.39
207.806	-138.48
208.025	-103.8
208.243	-138.36
208.461	-94.76
208.68	-88.42
208.898	-43.21
209.116	7.43
209.335	108.12
209.553	57.41
209.771	124.18
209.989	395.31
210.208	-2693.81
210.426	249.19
210.644	142.53
210.862	115.18
211.081	99.03
211.299	103.31
211.517	126.84
211.735	90.96
211.953	100.53
212.171	60.64
212.39	50.46
212.608	42.69
212.826	34.04
213.044	28.01
213.262	0.82
213.48	-17.06
213.698	-69.24
213.916	-28.38
214.134	-207.33
214.352	145.7
214.57	102.85
214.788	89.97
215.006	54.45
215.224	50.25
215.442	58.2
215.66	30.4
215.878	97.49
216.096	87.07
216.314	136.58
216.532	282.04
216.75	23.32
216.968	-40.13
217.185	84.47
217.403	52.3
217.621	159.51
217.839	392.53
218.057	-2043.78
218.275	-172.24
218.492	-23.69
218.71	-48.19
218.928	-1.51
219.146	100.4
219.363	-143.86
219.581	-858.12
219.799	-3447.62
220.017	-309.62
220.234	-482.18
220.452	-159.3
220.67	-173.15
220.887	-72.34
221.105	-135.4
221.323	-25.34
221.54	-61.28
221.758	14.75
221.976	41.91
222.193	72.79
222.411	34.45
222.629	90.88
222.846	92.99
223.064	78.65
223.281	76.32
223.499	44.62
223.716	71.36
223.934	58.85
224.151	64.36
224.369	48.03
224.586	58.74
224.804	103.66
225.021	49.34
225.239	14.03
225.456	47.85
225.674	39.56
225.891	50.91
226.108	30.42
226.326	64.09
226.543	19.42
226.76	24.73
226.978	12.35
227.195	11.74
227.413	16.97
227.63	12.49
227.847	3.92
228.064	10.89
228.282	12.7
228.499	9.71
228.716	12.76
228.934	17.53
229.151	18.07
229.368	16.86
229.585	13.32
229.802	14.26
230.02	16.27
230.237	13.91
230.454	14.36
230.671	14.45
230.888	14.34
231.105	12.47
231.323	9.01
231.54	3.27
231.757	4.62
231.974	9.87
232.191	6.48
232.408	10.51
232.625	12.21
232.842	10.32
233.059	8.74
233.276	0.72
233.493	-11.77
233.71	-4.52
233.927	1.73
234.144	-0.05
234.361	-9.19
234.578	-13.76
234.795	-25.95
235.012	-12.99
235.229	-13.09
235.446	-5.83
235.663	6.7
235.879	13.07
236.096	16.33
236.313	12.45
236.53	13.84
236.747	23.3
236.964	14.88
237.181	19
237.397	13.94
237.614	13.2
237.831	5.08
238.048	-2.23
238.264	-3.2
238.481	0.21
238.698	-6.07
238.915	-10.37
239.131	-12.82
239.348	-0.65
239.565	-0.2
239.781	1.97
239.998	4.31
240.215	1.37
240.431	5.48
240.648	9.39
240.865	8.52
241.081	10.89
241.298	14.49
241.514	14.09
241.731	15.46
241.947	17.95
242.164	17.27
242.38	15.1
242.597	17.56
242.814	19.43
243.03	18.55
243.246	20.01
243.463	19.51
243.679	16.7
243.896	15.87
244.112	15.14
244.329	13.71
244.545	12.82
244.762	13.53
244.978	14.3
245.194	9.05
245.411	10.18
245.627	8.81
245.843	11.06
246.06	12.98
246.276	14.18
246.492	14.72
246.709	14.66
246.925	14.55
247.141	15.31
247.357	15.34
247.574	17.08
247.79	15.96
248.006	15.01
248.222	14.75
248.439	16.21
248.655	16.07
248.871	15.88
249.087	15.12
249.303	17.03
249.519	16.32
249.736	15.26
249.952	14.58
250.168	14.96
250.384	16.05
250.6	16.42
250.816	15.57
251.032	13.69
251.248	14.87
251.464	16.36
251.68	12.65
251.896	12.09
252.112	13.55
252.328	13.37
252.544	10.46
252.76	9.72
252.976	10.13
253.192	8.3
253.408	10.21
253.624	8.47
253.84	5.73
254.056	7.5
254.272	12.45
254.487	8.2
254.703	4.65
254.919	7.71
255.135	10.66
255.351	9.65
255.567	10.88
255.782	10.4
255.998	11.99
256.214	14.84
256.43	13.14
256.646	8.55
256.861	11.27
257.077	14.04
257.293	13.51
257.508	9.94
257.724	11.59
257.94	11.94
258.155	8.6
258.371	7.33
258.587	6.34
258.802	8.24
259.018	8.29
259.234	9.13
259.449	9.5
259.665	9.98
259.88	11.58
260.096	11.15
260.312	10.92
260.527	11.94
260.743	13.11
260.958	13.21
261.174	13.32
261.389	13.17
261.605	12.44
261.82	12.06
262.036	12.73
262.251	10.09
262.466	8.14
262.682	6.91
262.897	7.93
263.113	5.3
263.328	4.82
263.543	2.64
263.759	4
263.974	4.82
264.189	4.32
264.405	4.4
264.62	4.96
264.835	6.25
265.051	1.94
265.266	3.75
265.481	4.3
265.696	5.05
265.912	3.57
266.127	1.43
266.342	1.5
266.557	1.79
266.773	0.09
266.988	4.22
267.203	4.99
267.418	9.38
267.633	6.93
267.848	7.06
268.064	7.47
268.279	7.06
268.494	5.55
268.709	5.95
268.924	6.5
269.139	6.24
269.354	3.08
269.569	3.41
269.784	2.83
269.999	2.89
270.214	2.76
270.429	1.25
270.644	3.67
270.859	7.87
271.074	7.26
271.289	8.21
271.504	8.46
271.719	10.04
271.934	8.79
272.149	8.47
272.363	9.4
272.578	10.56
272.793	11.61
273.008	11.7
273.223	10.12
273.438	10.98
273.653	10.38
273.867	12.04
274.082	11.37
274.297	12.52
274.512	14.09
274.726	13.08
274.941	12.07
275.156	13.4
275.371	12.42
275.585	13.89
275.8	14.63
276.015	14.07
276.229	12.39
276.444	13.97
276.659	13.73
276.873	12
277.088	12.7
277.302	13.57
277.517	11.99
277.732	13.79
277.946	10.7
278.161	9.45
278.375	9.75
278.59	9.91
278.804	8.81
279.019	8.1
279.233	8.91
279.448	5.97
279.662	6.57
279.877	7.5
280.091	7.06
280.306	10.36
280.52	10.09
280.735	8.4
280.949	9.33
281.163	8.3
281.378	10.12
281.592	7.49
281.806	9.14
282.021	7.57
282.235	6.79
282.449	5.01
282.664	4.66
282.878	5.85
283.092	8.29
283.307	7.35
283.521	8.81
283.735	8.52
283.949	8.42
284.164	9.09
284.378	8.67
284.592	9.46
284.806	8.38
285.02	8.16
285.234	7.44
285.449	5.43
285.663	6.27
285.877	5.98
286.091	6.48
286.305	7.83
286.519	7.7
286.733	8.56
286.947	8.69
287.161	10.35
287.375	11.2
287.589	12.22
287.803	13.96
288.017	12.75
288.231	10.91
288.445	10.26
288.659	11.32
288.873	11.55
289.087	9.39
289.301	9.69
289.515	9.68
289.729	9.37
289.943	8.61
290.157	8.41
290.371	8.2
290.584	10.08
290.798	8.27
291.012	9.03
291.226	8.58
291.44	9.52
291.654	6.67
291.867	6.63
292.081	5.54
292.295	4.08
292.509	2.82
292.722	3.02
292.936	1.39
293.15	4.54
293.364	0.18
293.577	-0.33
293.791	-0.98
294.005	-0.09
294.218	0.4
294.432	1.95
294.645	2.2
294.859	4.45
295.073	5.35
295.286	4.72
295.5	4.74
295.713	8.88
295.927	9.17
296.14	10.15
296.354	11.14
296.568	11.05
296.781	11.66
296.994	12.39
297.208	11.09
297.421	11.47
297.635	12.39
297.848	11.64
298.062	10.21
298.275	9.87
298.489	9.79
298.702	9.62
298.915	9.91
299.129	8.67
299.342	8.13
299.555	9.08
299.769	9.31
299.982	9.66
300.195	9.15
300.409	10.53
300.622	9.36
300.835	10.62
301.048	10.55
301.262	9.62
301.475	8.52
301.688	8.81
301.901	8.26
302.115	7.36
302.328	9.02
302.541	11.9
302.754	11.58
302.967	14.2
303.18	13.01
303.393	12.49
303.607	11.63
303.82	13.53
304.033	13.97
304.246	13.27
304.459	12.52
304.672	8.15
304.885	6.91
305.098	6.5
305.311	7.27
305.524	8.19
305.737	8.87
305.95	11.27
306.163	11.85
306.376	13.07
306.589	15.12
306.802	16.7
307.015	19.32
307.228	18.49
307.44	18.15
307.653	15.57
307.866	14.67
308.079	13.71
308.292	11.74
308.505	11.51
308.718	10.06
308.93	8.76
309.143	8.59
309.356	7.87
309.569	8.21
309.781	8.83
309.994	9.49
310.207	10.27
310.42	11.3
310.632	11.79
310.845	11.65
311.058	10.67
311.27	11.19
311.483	10.35
311.696	11.1
311.908	10.95
312.121	9.86
312.333	9.94
312.546	10.19
312.759	9.75
312.971	10.15
313.184	10.04
313.396	9.58
313.609	8.46
313.821	10.19
314.034	8.66
314.246	7.35
314.459	7.62
314.671	8.03
314.884	6.13
315.096	5.77
315.309	5.3
315.521	6.3
315.733	7.76
315.946	7.96
316.158	6.26
316.371	7.53
316.583	10.14
316.795	7.82
317.008	8.9
317.22	9.6
317.432	10.93
317.644	10.18
317.857	8.35
318.069	9.77
318.281	10.45
318.494	12.85
318.706	11.93
318.918	10.54
319.13	11.25
319.342	10.06
319.555	10.2
319.767	7.8
319.979	8.4
320.191	6.73
320.403	5.78
320.615	2.68
320.827	1.27
321.039	1.73
321.252	2.05
321.464	4.48
321.676	3.43
321.888	4.18
322.1	5.97
322.312	5.18
322.524	6.27
322.736	7.36
322.948	10.37
323.16	11.17
323.372	10.57
323.584	10.55
323.796	10.1
324.007	9.9
324.219	10.14
324.431	10.76
324.643	10.89
324.855	12.52
325.067	11.16
325.279	11.35
325.491	9.64
325.702	11.19
325.914	11.19
326.126	11.06
326.338	12.16
326.55	12.25
326.761	11.15
326.973	12.99
327.185	12.64
327.396	13.12
327.608	12.18
327.82	13.05
328.032	12.54
328.243	13.12
328.455	12.57
328.666	12.54
328.878	15.7
329.09	15.17
329.301	12.8
329.513	13.03
329.725	13.49
329.936	15.08
330.148	15.59
330.359	16.06
330.571	17.56
330.782	16.69
330.994	16.9
331.205	12.59
331.417	11.23
331.628	13.38
331.84	10.61
332.051	10.84
332.262	9.17
332.474	7.25
332.685	5.74
332.897	5.24
333.108	5.77
333.319	6.37
333.531	5.99
333.742	9.33
333.953	9.56
334.165	10.42
334.376	10.67
334.587	12.05
334.799	12.4
335.01	12.86
335.221	12.05
335.432	13.16
335.644	12.91
335.855	12.24
336.066	10.04
336.277	9.44
336.488	10.24
336.7	9.82
336.911	7.56
337.122	8.75
337.333	8.69
337.544	10.68
337.755	10.03
337.966	9.78
338.177	11.07
338.388	11.59
338.599	12.15
338.811	13.11
339.022	13.24
339.233	15.32
339.444	16.09
339.655	16.67
339.866	15.73
340.076	17.18
340.287	16.92
340.498	16.62
340.709	16.37
340.92	14.32
341.131	13.45
341.342	13.76
341.553	12.26
341.764	11.35
341.975	10.42
342.185	10.85
342.396	10.03
342.607	11.43
342.818	11.19
343.029	13.05
343.239	13.66
343.45	11.74
343.661	10.99
343.872	12.31
344.082	12.47
344.293	13.68
344.504	11.67
344.714	12.93
344.925	11.84
345.136	13.74
345.346	13.07
345.557	15.42
345.768	17.34
345.978	18.17
346.189	16.89
346.399	16.09
346.61	16.81
346.821	18.08
347.031	16.69
347.242	15.46
347.452	13.77
347.663	12.34
347.873	11.65
348.084	10.16
348.294	9.55
348.504	10.63
348.715	10.93
348.925	10.78
349.136	10.73
349.346	10.01
349.557	10.81
349.767	11.66
349.977	12.29
350.188	11.39
350.398	12.25
350.608	10.99
350.819	8.95
351.029	10.2
351.239	9.57
351.449	8.17
351.66	8.65
351.87	9.02
352.08	7.8
352.29	9.38
352.501	9.31
352.711	8.47
352.921	9.82
353.131	12.06
353.341	10.13
353.552	8.96
353.762	9.19
353.972	8.52
354.182	8.35
354.392	10.14
354.602	9.52
354.812	9.86
355.022	10.48
355.232	10.57
355.442	10.83
355.652	11.17
355.862	11.67
356.072	12.99
356.282	14.63
356.492	15.06
356.702	13.34
356.912	12.85
357.122	12.64
357.332	13.19
357.542	13.31
357.752	12.98
357.962	14.38
358.171	13.72
358.381	12.46
358.591	10.95
358.801	11.06
359.011	11.77
359.221	12.43
359.43	12.65
359.64	12.51
359.85	12.44
360.06	13
360.269	12.51
360.479	13.44
360.689	14.37
360.899	15.03
361.108	14.85
361.318	15.06
361.528	14.47
361.737	14.73
361.947	14.15
362.156	13.47
362.366	13.11
362.576	12.36
362.785	12.23
362.995	12.15
363.204	12.55
363.414	12.51
363.623	11.98
363.833	12.56
364.042	11.3
364.252	11.44
364.461	12.16
364.671	11.87
364.88	12
365.09	11.69
365.299	11.6
365.509	10.97
365.718	11.27
365.927	11.52
366.137	10.94
366.346	12.86
366.555	13.63
366.765	13.33
366.974	13.46
367.183	14.06
367.393	14.05
367.602	13.74
367.811	13.28
368.021	12.45
368.23	12.05
368.439	11.6
368.648	10.13
368.857	9.79
369.067	10.04
369.276	9.29
369.485	9.96
369.694	9.38
369.903	9.09
370.112	9.69
370.321	9.42
370.531	9.9
370.74	10.48
370.949	11.13
371.158	11.36
371.367	10.49
371.576	10.31
371.785	9.66
371.994	10.53
372.203	10.73
372.412	10.55
372.621	11.68
372.83	11.68
373.039	11.18
373.248	10.02
373.457	8.79
373.666	9.33
373.874	9.15
374.083	8.51
374.292	7.62
374.501	7.19
374.71	7.65
374.919	6.24
375.128	5.78
375.336	6.73
375.545	6.8
375.754	7.58
375.963	8
376.171	8.06
376.38	8.71
376.589	9.43
376.798	10.19
377.006	9.78
377.215	10.19
377.424	10.83
377.632	10.76
377.841	10.93
378.05	11.24
378.258	10.5
378.467	11.06
378.675	10.26
378.884	10.95
379.093	10.78
379.301	10.84
379.51	11.95
379.718	11.85
379.927	12.1
380.135	11.81
380.344	11.61
380.552	11.97
380.761	12.58
380.969	13.55
381.177	12.33
381.386	11.75
381.594	11.71
381.803	10.99
382.011	10.76
382.219	10.25
382.428	10.31
382.636	10.14
382.845	9.72
383.053	9.91
383.261	9.78
383.469	10.59
383.678	10.72
383.886	10.84
384.094	11.2
384.302	11.15
384.511	10.13
384.719	10.27
384.927	10.45
385.135	10.72
385.343	9.88
385.552	9.09
385.76	8.06
385.968	8.4
386.176	8.41
386.384	8.23
386.592	8.15
386.8	8.99
387.008	9.24
387.216	8.21
387.424	8.05
387.633	7.96
387.841	8.13
388.049	8.61
388.257	8.31
388.465	8.01
388.672	7.95
388.88	7.99
389.088	7.73
389.296	7.18
389.504	7.8
389.712	8.2
389.92	8.5
390.128	8.81
390.336	8.55
390.544	8.28
390.751	8.38
390.959	8.39
391.167	8.21
391.375	8.56
391.583	8.53
391.79	8.38
391.998	8.18
392.206	7.64
392.414	7.56
392.621	7.73
392.829	7.65
393.037	7.38
393.244	7.06
393.452	6.88
393.66	6.64
393.867	6.76
394.075	7.03
394.283	6.63
394.49	7.2
394.698	7.09
394.905	6.99
395.113	7.19
395.32	7.4
395.528	7.56
395.735	7.26
395.943	7.11
396.15	7.8
396.358	7.4
396.565	7.49
396.773	6.99
396.98	6.67
397.188	6.46
397.395	6.51
397.602	6.24
397.81	6.05
398.017	6.15
398.225	5.98
398.432	5.12
398.639	5.06
398.847	4.87
399.054	5.07
399.261	5.48
399.468	5.58
399.676	5.51
399.883	5.68
400.09	5.82
400.297	6.29
400.505	6.68
400.712	6.94
400.919	6.99
401.126	7.84
401.333	7.21
401.54	7.03
401.748	7.37
401.955	7.44
402.162	7.79
402.369	7.7
402.576	7.67
402.783	7.39
402.99	7.61
403.197	7.32
403.404	7.24
403.611	7.92
403.818	8.37
404.025	7.92
404.232	7.95
404.439	7.74
404.646	7.57
404.853	7.69
405.06	7.7
405.267	7.7
405.474	8.02
405.681	7.52
405.887	7.42
406.094	7.38
406.301	7.78
406.508	7.61
406.715	7.65
406.922	7.96
407.128	7.78
407.335	8.03
407.542	7.63
407.749	7.34
407.955	7.22
408.162	7.11
408.369	6.52
408.575	6.42
408.782	6.27
408.989	6.4
409.195	6.16
409.402	6.09
409.609	5.81
409.815	5.95
410.022	6.15
410.228	6.26
410.435	6.32
410.642	6.55
410.848	6.69
411.055	6.6
411.261	5.68
411.468	5.51
411.674	5.64
411.881	6.02
412.087	6.18
412.294	6.31
412.5	6.36
412.706	6.15
412.913	6.19
413.119	6.04
413.326	6.5
413.532	7.08
413.738	7.21
413.945	6.91
414.151	6.71
414.357	6.22
414.564	6.1
414.77	6.03
414.976	6.23
415.182	6.17
415.389	5.87
415.595	5.64
415.801	5.64
416.007	5.78
416.214	5.81
416.42	5.52
416.626	5.89
416.832	6.13
417.038	6.54
417.244	6.5
417.45	6.49
417.657	6.74
417.863	6.96
418.069	6.97
418.275	6.93
418.481	6.97
418.687	7.13
418.893	7.06
419.099	7.06
419.305	6.88
419.511	6.91
419.717	7
419.923	6.77
420.129	6.63
420.335	6.69
420.541	6.71
420.746	6.74
420.952	6.83
421.158	6.76
421.364	6.63
421.57	6.63
421.776	6.84
421.982	6.71
422.187	6.92
422.393	7.07
422.599	6.9
422.805	6.81
423.01	6.73
423.216	6.52
423.422	6.63
423.628	6.72
423.833	6.83
424.039	6.67
424.245	6.81
424.45	6.59
424.656	6.5
424.862	6.76
425.067	6.76
425.273	7.11
425.478	7.12
425.684	6.98
425.889	6.86
426.095	6.67
426.301	6.76
426.506	6.68
426.712	6.97
426.917	6.7
427.123	6.42
427.328	6.38
427.533	6.13
427.739	6.28
427.944	6.39
428.15	6.8
428.355	6.83
428.561	6.58
428.766	6.76
428.971	6.49
429.177	6.79
429.382	7.03
429.587	7.07
429.793	6.96
429.998	7.18
430.203	6.8
430.408	6.52
430.614	6.56
430.819	6.73
431.024	6.32
431.229	6.43
431.434	6.33
431.64	6.5
431.845	6.75
432.05	6.72
432.255	6.4
432.46	6.68
432.665	6.67
432.87	6.97
433.076	6.78
433.281	6.97
433.486	7.13
433.691	7.08
433.896	6.75
434.101	6.82
434.306	6.6
434.511	6.98
434.716	7.08
434.921	6.96
435.126	6.67
435.331	6.81
435.535	6.54
435.74	6.4
435.945	6.71
436.15	6.8
436.355	6.66
436.56	6.89
436.765	6.66
436.97	6.54
437.174	6.86
437.379	6.73
437.584	6.47
437.789	6.56
437.993	6.45
438.198	6.13
438.403	6.14
438.608	5.93
438.812	6.03
439.017	6
439.222	6.1
439.426	6.08
439.631	6.12
439.836	6.33
440.04	6.47
440.245	6.67
440.45	6.85
440.654	6.98
440.859	7.15
441.063	7.14
441.268	7.19
441.472	7.3
441.677	7.12
441.881	7.11
442.086	7.01
442.29	7.11
442.495	6.87
442.699	6.88
442.904	6.71
443.108	6.56
443.312	6.51
443.517	6.31
443.721	5.87
443.925	5.97
444.13	5.99
444.334	6.25
444.538	6.33
444.743	6.52
444.947	6.51
445.151	6.51
445.356	6.65
445.56	6.54
445.764	6.82
445.968	7.05
446.173	7.07
446.377	7.03
446.581	6.85
446.785	6.71
446.989	6.73
447.193	6.69
447.398	6.82
447.602	6.74
447.806	6.73
448.01	6.68
448.214	6.54
448.418	6.39
448.622	6.58
448.826	6.45
449.03	6.43
449.234	6.26
449.438	6.01
449.642	5.86
449.846	5.76
450.05	5.86
450.254	5.55
450.458	5.7
450.662	5.71
450.866	5.7
451.069	5.76
451.273	5.65
451.477	5.73
451.681	6.02
451.885	5.87
452.089	5.95
452.292	5.93
452.496	6.11
452.7	6.2
452.904	6.3
453.107	6.14
453.311	6.41
453.515	6.54
453.719	6.44
453.922	6.5
454.126	6.63
454.33	6.48
454.533	6.48
454.737	6.32
454.94	6.35
455.144	6.22
455.348	6.23
455.551	6.18
455.755	5.9
455.958	6.05
456.162	5.73
456.365	5.75
456.569	6.04
456.772	6.07
456.976	6.3
457.179	5.98
457.383	5.87
457.586	6.14
457.79	6.15
457.993	6.35
458.196	6.56
458.4	6.74
458.603	6.84
458.807	6.7
459.01	6.52
459.213	6.44
459.417	6.56
459.62	6.74
459.823	6.67
460.026	6.69
460.23	6.73
460.433	6.65
460.636	6.56
460.839	6.51
461.042	6.68
461.246	6.79
461.449	6.64
461.652	6.63
461.855	6.5
462.058	6.31
462.261	6.31
462.464	6.33
462.668	6.09
462.871	6.24
463.074	6.28
463.277	6.14
463.48	6.08
463.683	6.33
463.886	6.42
464.089	6.53
464.292	6.63
464.495	6.4
464.698	6.52
464.901	6.83
465.104	6.79
465.306	6.8
465.509	6.47
465.712	6.66
465.915	6.42
466.118	6.11
466.321	6.18
466.524	6.3
466.726	6.29
466.929	6.17
467.132	5.95
467.335	5.67
467.538	5.57
467.74	5.98
467.943	5.84
468.146	6.11
468.348	6.33
468.551	6.3
468.754	5.97
468.956	6.14
469.159	5.98
469.362	5.87
469.564	6.08
469.767	6.09
469.969	5.8
470.172	5.6
470.375	5.42
470.577	5.34
470.78	5.45
470.982	5.67
471.185	5.53
471.387	5.7
471.59	5.73
471.792	5.75
471.995	5.92
472.197	6.13
472.399	6.3
472.602	6.34
472.804	6.63
473.007	6.46
473.209	6.35
473.411	6.29
473.614	6.16
473.816	6.42
474.018	6.32
474.22	5.99
474.423	5.83
474.625	5.9
474.827	5.94
475.03	5.5
475.232	5.56
475.434	5.58
475.636	5.58
475.838	5.62
476.04	5.61
476.243	5.8
476.445	6.15
476.647	6.28
476.849	6.25
477.051	6.33
477.253	6.39
477.455	6.33
477.657	6.37
477.859	6.54
478.061	6.72
478.263	6.65
478.465	6.61
478.667	6.36
478.869	6.19
479.071	6.21
479.273	6.1
479.475	6.4
479.677	6.5
479.879	6.58
480.081	6.44
480.283	6.22
480.485	5.94
480.686	5.97
480.888	5.96
481.09	6.12
481.292	6.26
481.494	6.29
481.695	6.24
481.897	6.16
482.099	6.18
482.301	6.29
482.502	6.48
482.704	6.56
482.906	6.55
483.107	6.78
483.309	6.77
483.511	6.69
483.712	6.69
483.914	6.73
484.115	6.86
484.317	6.81
484.519	6.73
484.72	6.62
484.922	6.64
485.123	6.59
485.325	6.5
485.526	6.46
485.728	6.52
485.929	6.58
486.131	6.53
486.332	6.42
486.534	6.51
486.735	6.64
486.936	6.62
487.138	6.69
487.339	6.74
487.541	6.73
487.742	6.79
487.943	6.75
488.144	6.66
488.346	6.65
488.547	6.57
488.748	6.48
488.95	6.4
489.151	6.39
489.352	6.39
489.553	6.48
489.755	6.42
489.956	6.37
490.157	6.28
490.358	6.29
490.559	6.19
490.76	6.21
490.961	6.32
491.163	6.4
491.364	6.5
491.565	6.57
491.766	6.41
491.967	6.42
492.168	6.41
492.369	6.47
492.57	6.53
492.771	6.64
492.972	6.61
493.173	6.57
493.374	6.43
493.575	6.34
493.776	6.18
493.976	6.33
494.177	6.34
494.378	6.3
494.579	6.26
494.78	6.31
494.981	6.16
495.182	6.21
495.382	6.3
495.583	6.43
495.784	6.55
495.985	6.58
496.185	6.37
496.386	6.36
496.587	6.44
496.788	6.49
496.988	6.33
497.189	6.41
497.39	6.46
497.59	6.3
497.791	6.24
497.992	6.4
498.192	6.29
498.393	6.33
498.593	6.16
498.794	6.24
498.994	6.21
499.195	6.38
499.395	6.49
499.596	6.57
499.796	6.79
499.997	6.91
500.197	6.81
500.398	6.98
500.598	7.15
500.799	7.32
500.999	7.3
501.199	7.39
501.4	7.29
501.6	7.22
501.801	6.97
502.001	6.86
502.201	6.47
502.402	6.39
502.602	6.32
502.802	6.25
503.002	6.5
503.203	6.41
503.403	6.27
503.603	6.28
503.803	6.23
504.003	6.46
504.204	6.48
504.404	6.85
504.604	6.86
504.804	6.87
505.004	6.88
505.204	6.69
505.404	6.73
505.604	6.83
505.804	6.84
506.005	6.81
506.205	6.69
506.405	6.72
506.605	6.88
506.805	6.92
507.005	6.87
507.204	6.84
507.404	6.89
507.604	6.97
507.804	6.97
508.004	6.96
508.204	7.08
508.404	7.17
508.604	7.12
508.804	7.08
509.003	6.95
509.203	7.18
509.403	7.34
509.603	7.39
509.803	7.42
510.002	7.61
510.202	7.75
510.402	7.76
510.602	7.73
510.801	7.83
511.001	7.85
511.201	8.07
511.4	8.06
511.6	8
511.8	7.94
511.999	7.99
512.199	7.9
512.398	7.91
512.598	7.98
512.797	8.18
512.997	8.08
513.197	7.99
513.396	7.88
513.596	7.73
513.795	7.61
513.994	7.71
514.194	7.69
514.393	7.64
514.593	7.58
514.792	7.6
514.992	7.65
515.191	7.84
515.39	7.95
515.59	8.17
515.789	8.26
515.988	8.49
516.188	8.48
516.387	8.65
516.586	8.78
516.786	8.94
516.985	8.84
517.184	8.73
517.383	8.81
517.582	8.85
517.782	8.94
517.981	9.08
518.18	9.13
518.379	9.05
518.578	9.02
518.777	8.99
518.976	8.8
519.176	9.03
519.375	9.06
519.574	9.04
519.773	9.01
519.972	8.94
520.171	8.92
520.37	8.87
520.569	9.03
520.768	8.96
520.967	9.06
521.166	9.13
521.365	9.06
521.564	9.09
521.762	8.94
521.961	8.98
522.16	9.03
522.359	9.16
522.558	9.02
522.757	9.14
522.956	9.24
523.154	9.24
523.353	9.34
523.552	9.21
523.751	9.14
523.949	9.41
524.148	9.59
524.347	9.5
524.546	9.5
524.744	9.68
524.943	9.47
525.142	9.51
525.34	9.7
525.539	9.77
525.737	9.9
525.936	10.18
526.135	10.14
526.333	10.15
526.532	10.26
526.73	10.29
526.929	10.45
527.127	10.75
527.326	10.89
527.524	10.98
527.723	11.11
527.921	11.29
528.12	11.35
528.318	11.48
528.516	11.51
528.715	11.56
528.913	11.63
529.112	11.67
529.31	11.66
529.508	11.63
529.707	11.52
529.905	11.52
530.103	11.47
530.301	11.35
530.5	11.42
530.698	11.43
530.896	11.47
531.094	11.43
531.293	11.49
531.491	11.52
531.689	11.52
531.887	11.63
532.085	11.82
532.283	11.81
532.481	11.98
532.68	11.83
532.878	11.89
533.076	11.96
533.274	11.92
533.472	11.88
533.67	11.87
533.868	11.89
534.066	11.9
534.264	11.8
534.462	11.77
534.66	11.69
534.858	11.67
535.056	11.71
535.253	11.6
535.451	11.66
535.649	11.71
535.847	11.86
536.045	11.82
536.243	11.82
536.441	11.93
536.638	12.08
536.836	12.3
537.034	12.43
537.232	12.33
537.43	12.47
537.627	12.5
537.825	12.39
538.023	12.24
538.22	12.41
538.418	12.57
538.616	12.33
538.813	12.28
539.011	12.28
539.209	12.24
539.406	12.48
539.604	12.55
539.801	12.71
539.999	12.92
540.196	13.15
540.394	13.31
540.591	13.38
540.789	13.6
540.986	13.7
541.184	13.82
541.381	13.98
541.579	13.9
541.776	13.9
541.974	13.96
542.171	13.99
542.368	13.95
542.566	13.9
542.763	13.82
542.96	13.77
543.158	13.7
543.355	13.47
543.552	13.3
543.75	13.31
543.947	13.27
544.144	13.1
544.341	13.01
544.539	12.9
544.736	12.91
544.933	13.07
545.13	13.02
545.327	13.08
545.524	13.21
545.722	13.31
545.919	13.35
546.116	13.35
546.313	13.38
546.51	13.51
546.707	13.59
546.904	13.64
547.101	13.66
547.298	13.85
547.495	13.85
547.692	13.75
547.889	13.73
548.086	13.76
548.283	13.77
548.48	13.9
548.677	13.9
548.874	13.88
549.07	13.69
549.267	13.63
549.464	13.51
549.661	13.53
549.858	13.7
550.055	13.84
550.251	13.68
550.448	13.98
550.645	13.88
550.842	13.89
551.038	14.18
551.235	14.51
551.432	14.62
551.628	14.56
551.825	14.49
552.022	14.61
552.218	14.52
552.415	14.73
552.612	14.83
552.808	15.01
553.005	15.08
553.201	15.03
553.398	14.79
553.594	14.76
553.791	14.92
553.987	15.16
554.184	15.14
554.38	15.06
554.577	15.25
554.773	15.02
554.97	15.2
555.166	15.27
555.362	15.31
555.559	15.49
555.755	15.53
555.952	15.65
556.148	15.87
556.344	15.74
556.541	16
556.737	16.12
556.933	16.07
557.129	15.92
557.326	15.75
557.522	15.65
557.718	15.76
557.914	15.73
558.11	15.68
558.307	15.44
558.503	15.67
558.699	15.59
558.895	15.33
559.091	15.59
559.287	15.62
559.483	15.64
559.679	15.9
559.876	15.86
560.072	15.86
560.268	16.18
560.464	16.37
560.66	16.4
560.856	16.61
561.052	16.75
561.247	16.77
561.443	16.93
561.639	17.27
561.835	17.21
562.031	17.34
562.227	17.3
562.423	17.04
562.619	17.05
562.815	17.01
563.01	17.18
563.206	17.18
563.402	17.29
563.598	17.36
563.793	17.41
563.989	17.39
564.185	17.48
564.381	17.52
564.576	17.66
564.772	17.82
564.968	18.17
565.163	18.21
565.359	18.53
565.555	18.42
565.75	18.65
565.946	18.71
566.141	19.02
566.337	19.07
566.532	19.34
566.728	19.38
566.923	19.37
567.119	19.44
567.314	19.5
567.51	19.52
567.705	19.67
567.901	19.45
568.096	19.27
568.292	19.26
568.487	19.34
568.682	19.39
568.878	19.64
569.073	19.6
569.268	19.44
569.464	19.48
569.659	19.57
569.854	19.59
570.05	19.74
570.245	19.98
570.44	20.03
570.635	20.09
570.831	20.06
571.026	20.23
571.221	20.45
571.416	20.51
571.611	20.69
571.806	20.64
572.002	20.76
572.197	20.58
572.392	20.77
572.587	20.74
572.782	20.79
572.977	21.08
573.172	20.82
573.367	20.71
573.562	20.73
573.757	20.6
573.952	20.72
574.147	20.77
574.342	21.05
574.537	21
574.732	21.27
574.927	21.29
575.121	21.33
575.316	21.69
575.511	21.75
575.706	21.87
575.901	21.87
576.096	21.79
576.29	21.85
576.485	21.89
576.68	21.65
576.875	21.52
577.069	21.51
577.264	21.44
577.459	21.08
577.654	21.1
577.848	21.16
578.043	21.23
578.238	21.17
578.432	21.16
578.627	21.1
578.821	21.36
579.016	21.28
579.21	21.13
579.405	21.08
579.6	21.04
579.794	21.04
579.989	20.82
580.183	20.53
580.378	20.57
580.572	20.59
580.766	20.81
580.961	20.88
581.155	20.76
581.35	20.61
581.544	20.5
581.738	20.42
581.933	20.38
582.127	20.52
582.321	20.7
582.516	20.96
582.71	20.87
582.904	20.49
583.099	20.52
583.293	20.69
583.487	21.05
583.681	21.03
583.875	21.3
584.07	21.49
584.264	21.5
584.458	21.56
584.652	21.53
584.846	21.85
585.04	21.8
585.234	21.78
585.428	21.8
585.623	21.75
585.817	21.75
586.011	21.8
586.205	21.86
586.399	22.02
586.593	22.31
586.787	22.16
586.981	21.96
587.174	22.38
587.368	22.36
587.562	22.44
587.756	22.69
587.95	23.25
588.144	23.72
588.338	23.69
588.532	24.08
588.725	23.72
588.919	23.94
589.113	24.17
589.307	24.28
589.501	24.51
589.694	24.68
589.888	24.62
590.082	24.38
590.275	24.13
590.469	24.27
590.663	24.06
590.856	24.28
591.05	24.27
591.244	24.33
591.437	24.33
591.631	24.2
591.824	24.2
592.018	24.23
592.212	24.17
592.405	24.21
592.599	24.1
592.792	24.06
592.986	24.22
593.179	24.4
593.372	24.01
593.566	24.07
593.759	24.19
593.953	24.26
594.146	24.32
594.339	24.51
594.533	24.66
594.726	25.01
594.92	24.75
595.113	24.73
595.306	25
595.499	25.45
595.693	25.67
595.886	25.67
596.079	25.79
596.272	26.15
596.466	26.22
596.659	26.39
596.852	26.24
597.045	26.38
597.238	26.33
597.431	26.09
597.624	26.04
597.818	25.84
598.011	25.72
598.204	25.68
598.397	25.64
598.59	25.75
598.783	25.37
598.976	25.34
599.169	25.48
599.362	25.62
599.555	25.44
599.748	25.45
599.941	25.48
600.134	25.51
600.326	25.25
600.519	25.16
600.712	24.97
600.905	25.15
601.098	25.11
601.291	25.03
601.483	25.08
601.676	25.28
601.869	25.12
602.062	25.07
602.255	25.27
602.447	25.58
602.64	25.48
602.833	25.41
603.025	25.44
603.218	25.79
603.411	26.12
603.603	26.07
603.796	26.22
603.989	26.37
604.181	26.51
604.374	26.56
604.566	26.61
604.759	26.79
604.951	26.97
605.144	26.89
605.336	26.74
605.529	26.47
605.721	26.36
605.914	26.08
606.106	26.11
606.299	25.88
606.491	25.8
606.683	25.86
606.876	25.52
607.068	25.54
607.26	25.67
607.453	25.5
607.645	25.52
607.837	25.78
608.03	26.28
608.222	26.31
608.414	26.46
608.606	26.22
608.799	25.99
608.991	26.07
609.183	25.98
609.375	25.85
609.567	25.71
609.759	25.82
609.952	25.57
610.144	25.05
610.336	24.86
610.528	24.73
610.72	24.94
610.912	24.68
611.104	24.42
611.296	24.19
611.488	23.97
611.68	24.01
611.872	23.65
612.064	23.71
612.256	23.94
612.448	23.84
612.64	23.84
612.832	23.64
613.023	23.94
613.215	23.95
613.407	24.09
613.599	24.32
613.791	24.5
613.983	24.91
614.174	24.91
614.366	24.76
614.558	24.86
614.75	24.72
614.941	24.95
615.133	24.95
615.325	25.21
615.516	25.36
615.708	25.42
615.9	25.47
616.091	25.39
616.283	25.33
616.475	25.39
616.666	25.58
616.858	26.11
617.049	26.03
617.241	26.18
617.432	26.33
617.624	26.27
617.815	26.3
618.007	26.37
618.198	26.4
618.39	26.6
618.581	26.63
618.773	26.51
618.964	26.29
619.155	26.11
619.347	25.76
619.538	25.65
619.729	25.42
619.921	25.13
620.112	24.69
620.303	24.61
620.494	24.38
620.686	24.42
620.877	24.24
621.068	24.18
621.259	24.58
621.451	24.63
621.642	24.73
621.833	24.85
622.024	25.08
622.215	25.37
622.406	25.3
622.597	25.3
622.788	25.41
622.98	25.54
623.171	25.59
623.362	25.56
623.553	25.55
623.744	25.68
623.935	25.83
624.126	25.9
624.317	26.01
624.508	26.21
624.698	26.43
624.889	26.81
625.08	26.93
625.271	26.86
625.462	26.6
625.653	27.15
625.844	26.96
626.034	27.03
626.225	27.43
626.416	27.61
626.607	27.98
626.798	28.23
626.988	28.23
627.179	28.41
627.37	28.76
627.56	29.07
627.751	29.03
627.942	29.13
628.132	28.8
628.323	28.89
628.514	28.93
628.704	28.39
628.895	27.96
629.085	27.53
629.276	27.29
629.466	26.65
629.657	26.31
629.847	26.06
630.038	25.68
630.228	25.93
630.419	25.78
630.609	25.74
630.8	25.56
630.99	25.82
631.181	25.88
631.371	26.21
631.561	26.46
631.752	26.3
631.942	26.46
632.132	26.92
632.323	26.84
632.513	26.69
632.703	26.48
632.893	27.11
633.084	27.46
633.274	27.66
633.464	27.53
633.654	28.03
633.844	28.3
634.034	28.03
634.225	28.41
634.415	28.87
634.605	28.72
634.795	28.7
634.985	28.33
635.175	28.02
635.365	28.15
635.555	27.81
635.745	27.89
635.935	27.82
636.125	27.8
636.315	27.28
636.505	26.77
636.695	26.72
636.885	26.83
637.075	27.13
637.265	27.23
637.455	27.11
637.644	27.29
637.834	27.16
638.024	27.13
638.214	27.54
638.404	28.19
638.593	27.96
638.783	28.46
638.973	28.32
639.163	28.07
639.352	27.81
639.542	27.47
639.732	27.54
639.921	27.3
640.111	27.22
640.301	26.63
640.49	26.31
640.68	26.62
640.87	26.03
641.059	26.07
641.249	26.15
641.438	26.03
641.628	26.12
641.817	26.66
642.007	26.62
642.196	26.74
642.386	27.01
642.575	26.7
642.764	26.88
642.954	26.77
643.143	26.3
643.333	26.26
643.522	26.82
643.711	26.77
643.901	26.41
644.09	26.45
644.279	26.22
644.469	26.24
644.658	26.05
644.847	25.96
645.036	26.33
645.226	27.31
645.415	27.06
645.604	26.93
645.793	26.81
645.982	26.66
646.171	26.99
646.361	27.54
646.55	28
646.739	28.14
646.928	28.23
647.117	28.34
647.306	27.96
647.495	28.47
647.684	28.72
647.873	29.1
648.062	29.55
648.251	29.12
648.44	29.17
648.629	28.67
648.818	29.11
649.007	29.17
649.196	29.07
649.384	29.31
649.573	29.21
649.762	28.47
649.951	28.59
650.14	28.77
650.328	28.57
650.517	28.5
650.706	29.13
650.895	28.72
651.083	28.73
651.272	28.59
651.461	28.7
651.65	28.58
651.838	28.93
652.027	28.65
652.216	28.31
652.404	29.05
652.593	29.2
652.781	28.47
652.97	28.07
653.158	28.24
653.347	28.47
653.535	28.18
653.724	28.5
653.912	28.5
654.101	29.08
654.289	28.37
654.478	28.44
654.666	28.8
654.855	29.44
655.043	30.24
655.231	30.48
655.42	29.92
655.608	29.71
655.796	29.73
655.985	29.63
656.173	29.35
656.361	29.97
656.55	29.18
656.738	27.96
656.926	27.53
657.114	27.35
657.302	27.31
657.491	28.08
657.679	28.43
657.867	28.15
658.055	28.53
658.243	28.65
658.431	29.07
658.619	29.95
658.807	30.6
658.996	30.92
659.184	30.96
659.372	30.71
659.56	30.56
659.748	30.47
659.936	30.43
660.124	30.7
660.311	30.4
660.499	30.1
660.687	29.86
660.875	29.86
661.063	29.38
661.251	29.5
661.439	29.47
661.627	29.74
661.814	29.74
662.002	30.15
662.19	29.43
662.378	29.28
662.565	28.88
662.753	28.75
662.941	28.73
663.129	29.4
663.316	29.3
663.504	29.12
663.692	29.12
663.879	29.15
664.067	29.05
664.254	29.13
664.442	29.57
664.63	30.06
664.817	30.02
665.005	29.7
665.192	29.08
665.38	28.72
665.567	28.76
665.755	28.14
665.942	28.08
666.13	28.06
666.317	28.28
666.504	28.43
666.692	28.25
666.879	28.34
667.067	28.55
667.254	28.55
667.441	28.64
667.629	28.92
667.816	29.25
668.003	29.41
668.19	29.35
668.378	29.46
668.565	29.29
668.752	29.68
668.939	29.33
669.127	29.77
669.314	30.12
669.501	30.52
669.688	30.63
669.875	30.65
670.062	30.72
670.249	30.94
670.436	30.97
670.623	31.24
670.81	30.59
670.997	30.77
671.184	30.43
671.371	30.48
671.558	30.34
671.745	30.77
671.932	31.13
672.119	30.74
672.306	30.83
672.493	30.74
672.68	30.73
672.867	31.4
673.054	31.04
673.24	30.9
673.427	30.8
673.614	30.41
673.801	29.62
673.988	29.16
674.174	29.32
674.361	28.76
674.548	28.96
674.734	28.91
674.921	28.67
675.108	28.96
675.294	29.29
675.481	28.82
675.668	29.32
675.854	29.07
676.041	29.22
676.227	29.19
676.414	28.74
676.601	28.63
676.787	28.69
676.974	28.42
677.16	28.5
677.347	28.34
677.533	28.49
677.719	28.24
677.906	29.11
678.092	29.03
678.279	29.44
678.465	29.68
678.651	29.64
678.838	29.46
679.024	29.8
679.21	30.42
679.397	30.32
679.583	30.85
679.769	31.01
679.955	30.68
680.142	30.83
680.328	30.87
680.514	31.28
680.7	31.91
680.886	31.86
681.073	31.88
681.259	31.41
681.445	31.68
681.631	31.38
681.817	31.07
682.003	31.29
682.189	31.34
682.375	31.46
682.561	31.46
682.747	30.92
682.933	31.3
683.119	31.28
683.305	31.37
683.491	31.79
683.677	32.33
683.863	32.47
684.049	32.13
684.235	32.33
684.42	31.62
684.606	30.91
684.792	31.39
684.978	31.95
685.164	32.01
685.349	32.02
685.535	31.37
685.721	30.61
685.907	30.66
686.092	30.84
686.278	30.44
686.464	30.92
686.649	31.65
686.835	31.36
687.021	30.73
687.206	30.4
687.392	30.56
687.577	30.9
687.763	31.15
687.948	31.36
688.134	31.4
688.319	31.7
688.505	31.82
688.69	31.97
688.876	31.68
689.061	31.8
689.247	31.78
689.432	31.73
689.618	31.36
689.803	31.81
689.988	31.66
690.174	31.68
690.359	31.19
690.544	31.38
690.73	31.48
690.915	31.44
691.1	31.2
691.285	32.11
691.471	31.9
691.656	32.17
691.841	31.3
692.026	31.43
692.211	31.39
692.396	31.48
692.582	31.56
692.767	31.43
692.952	31.64
693.137	31.61
693.322	31.29
693.507	31.62
693.692	31.23
693.877	32.19
694.062	32.12
694.247	32.71
694.432	32.6
694.617	32.04
694.802	32.39
694.987	31.96
695.172	32.36
695.357	32.8
695.541	31.94
695.726	32.71
695.911	32.95
696.096	33.06
696.281	32.45
696.466	33.19
696.65	33.03
696.835	32.64
697.02	32.87
697.204	33.1
697.389	32.52
697.574	33.16
697.759	33.16
697.943	32.94
698.128	33.06
698.312	33.98
698.497	33.98
698.682	34.68
698.866	35.18
699.051	35.37
699.235	35.14
699.42	35.37
699.604	35.37
699.789	34.81
699.973	34.41
700.158	34.48
700.342	33.92
700.527	33.92
700.711	33.35
700.895	33.14
701.08	33.72
701.264	33.28
701.448	32.82
701.633	32.91
701.817	33.2
702.001	33.72
702.186	33.69
702.37	33.2
702.554	33.15
702.738	33.41
702.923	32.7
703.107	31.56
703.291	32.27
703.475	32.01
703.659	31.15
703.843	31.14
704.027	30.56
704.212	30.88
704.396	30.73
704.58	30.76
704.764	30.35
704.948	30.32
705.132	30.61
705.316	30.03
705.5	30.29
705.684	30.14
705.868	30.58
706.052	31.57
706.235	31.29
706.419	31.64
706.603	30.84
706.787	30.86
706.971	30.53
707.155	30.22
707.339	30.38
707.522	30.24
707.706	31.03
707.89	30.47
708.074	29.49
708.257	29.54
708.441	29.58
708.625	29.98
708.808	30.8
708.992	31.07
709.176	31.64
709.359	31.49
709.543	32.21
709.727	33.03
709.91	33.67
710.094	34.53
710.277	35.15
710.461	34.93
710.644	35.47
710.828	34.9
711.011	35.62
711.195	35.08
711.378	35.87
711.562	36.17
711.745	34.83
711.928	34.65
712.112	34.29
712.295	33.58
712.478	33.05
712.662	32.92
712.845	33.07
713.028	33.65
713.212	34.1
713.395	34.03
713.578	33.99
713.761	35.11
713.945	34.45
714.128	34.69
714.311	34.55
714.494	35.01
714.677	34.93
714.86	34.41
715.043	34.24
715.227	34.05
715.41	34.05
715.593	33.68
715.776	33.34
715.959	33.86
716.142	33.57
716.325	33.87
716.508	35.04
716.691	35.36
716.874	36.09
717.057	35.14
717.239	35.17
717.422	35
717.605	35.28
717.788	35.15
717.971	35.38
718.154	36.26
718.337	36.32
718.519	35.23
718.702	34.92
718.885	36.56
719.068	37.43
719.25	38.23
719.433	37.37
719.616	37.44
719.798	37.39
719.981	37.29
720.164	36.34
720.346	35.58
720.529	36.08
720.712	35.63
720.894	34.05
721.077	32.83
721.259	32.13
721.442	31.51
721.624	30.74
721.807	31.64
721.989	30.3
722.172	30.92
722.354	31.2
722.537	30.55
722.719	31.85
722.901	31.39
723.084	32.27
723.266	32.36
723.448	32.71
723.631	33.89
723.813	32.28
723.995	33.52
724.178	33.85
724.36	34.71
724.542	35.57
724.724	34.58
724.907	34.02
725.089	34.06
725.271	33.51
725.453	34.43
725.635	33.16
725.817	34.58
725.999	35.25
726.181	34.39
726.364	34.4
726.546	33.78
726.728	34.11
726.91	33.38
727.092	33.34
727.274	33.71
727.456	33.78
727.638	35.12
727.819	35.36
728.001	35.24
728.183	35.55
728.365	34.71
728.547	33.74
728.729	33.28
728.911	34.77
729.093	34.76
729.274	35.15
729.456	35.32
729.638	34.42
729.82	34.33
730.001	33.59
730.183	33.41
730.365	33.31
730.546	33.88
730.728	34.32
730.91	34.3
731.091	34.9
731.273	34.49
731.455	34.38
731.636	34.55
731.818	34.11
731.999	34.45
732.181	34.89
732.362	35.56
732.544	36.52
732.725	35.52
732.907	34.75
733.088	33.27
733.27	33.29
733.451	33.18
733.633	33.57
733.814	33.26
733.995	33.02
734.177	32.04
734.358	31.59
734.539	30.94
734.721	29.97
734.902	30.76
735.083	31.64
735.264	31.62
735.446	31.09
735.627	28.98
735.808	29.81
735.989	29.93
736.17	30.22
736.351	29.98
736.533	30.64
736.714	31.22
736.895	29.87
737.076	30.16
737.257	30.06
737.438	31.1
737.619	32.68
737.8	32.58
737.981	32.94
738.162	33.18
738.343	32.35
738.524	32.25
738.705	33.09
738.886	33.36
739.067	33.89
739.247	33.78
739.428	32.28
739.609	31.54
739.79	30.21
739.971	31.16
740.151	30.17
740.332	31.18
740.513	31.1
740.694	31.96
740.874	31.57
741.055	30.22
741.236	31
741.417	31.67
741.597	33.54
741.778	34.67
741.958	33.35
742.139	34.23
742.32	34.75
742.5	34
742.681	33.3
742.861	32.26
743.042	32.22
743.222	32.33
743.403	32.25
743.583	29.88
743.764	29.88
743.944	29.9
744.124	29.48
744.305	28.32
744.485	28.67
744.666	28.34
744.846	30.95
745.026	32.24
745.207	30.93
745.387	31.19
745.567	31.16
745.747	30.74
745.928	31.47
746.108	32.74
746.288	32.12
746.468	33.13
746.648	33.73
746.829	33.43
747.009	32.34
747.189	32.86
747.369	33.26
747.549	33.34
747.729	34.53
747.909	34.55
748.089	32.27
748.269	33.19
748.449	32.14
748.629	31.17
748.809	30.07
748.989	29.86
749.169	29
749.349	30.55
749.529	31.72
749.709	30.88
749.889	28.8
750.068	30.6
750.248	31.49
750.428	30.85
750.608	30.78
750.788	32.24
750.967	32.81
751.147	32.93
751.327	30.2
751.507	29.32
751.686	29.05
751.866	30.55
752.046	31.23
752.225	29.95
752.405	30.45
752.585	31.06
752.764	30.39
752.944	30.86
753.123	32.44
753.303	33.87
753.482	35.2
753.662	35.73
753.841	33.69
754.021	31.69
754.2	32.81
754.38	33.68
754.559	35.19
754.739	34.9
754.918	33.33
755.097	32.91
755.277	32.96
755.456	34.19
755.635	33.02
755.815	33.93
755.994	35.82
756.173	36.38
756.352	35.96
756.532	34.98
756.711	34.72
756.89	35.19
757.069	35.45
757.248	34.75
757.427	33.55
757.607	35.35
757.786	37.71
757.965	36.2
758.144	35.88
758.323	35.07
758.502	34.65
758.681	35.7
758.86	34.99
759.039	35.95
759.218	35.28
759.397	33.88
759.576	32.68
759.755	31.12
759.934	33.25
760.113	32.66
760.291	34.23
760.47	34.87
760.649	35.96
760.828	37.01
761.007	36.37
761.186	36.14
761.364	36.62
761.543	36.74
761.722	37.19
761.901	37.9
762.079	38.3
762.258	36.6
762.437	38.16
762.615	36.57
762.794	36.46
762.972	35.57
763.151	37.23
763.33	37.75
763.508	37.9
763.687	37.98
763.865	36.9
764.044	36.8
764.222	38.24
764.401	36.52
764.579	36.7
764.758	36.92
764.936	38.37
765.114	38.14
765.293	38.72
765.471	39.37
765.65	40.34
765.828	39.34
766.006	39.01
766.184	38.81
766.363	40
766.541	41.17
766.719	40.8
766.898	37.68
767.076	36.84
767.254	36.39
767.432	35.72
767.61	34.51
767.788	35.86
767.967	35.52
768.145	34.71
768.323	34.71
768.501	34.52
768.679	35.43
768.857	35.78
769.035	34.85
769.213	34.38
769.391	31.9
769.569	31.43
769.747	31.3
769.925	31.17
770.103	31.66
770.281	29.39
770.459	27.44
770.636	26.46
770.814	26.87
770.992	27.53
771.17	26.8
771.348	28.98
771.525	28.06
771.703	26.03
771.881	25.37
772.059	24.09
772.236	24.89
772.414	24.43
772.592	25.11
772.769	26.16
772.947	27.77
773.125	26.31
773.302	24.68
773.48	26.54
773.657	25.73
773.835	27.04
774.013	30.17
774.19	28.89
774.368	28.32
774.545	26.19
774.723	26.59
774.9	26.96
775.077	27.57
775.255	28.88
775.432	26.84
775.61	25.04
775.787	26.96
775.964	23.19
776.142	24.98
776.319	27.42
776.496	28
776.674	26.97
776.851	26.27
777.028	26.36
777.205	24.15
777.382	24.37
777.56	29
777.737	23.84
777.914	27.13
778.091	28.25
778.268	27.71
778.445	29.96
778.622	31.26
778.8	32.82
778.977	34.09
779.154	36.22
779.331	37.99
779.508	37.3
779.685	38.53
779.862	36.57
780.038	34.79
780.215	35.77
780.392	35.67
780.569	32.79
780.746	30.79
780.923	29.39
781.1	28.36
781.277	28.54
781.453	26.8
781.63	28.63
781.807	28.84
781.984	33.98
782.16	32.17
782.337	33.49
782.514	37.76
782.691	34.94
782.867	36.29
783.044	40.67
783.221	43.87
783.397	47.79
783.574	46.77
783.75	46.84
783.927	43.16
784.103	42.44
784.28	39.16
784.456	38.32
784.633	43.14
784.809	43.24
784.986	40.74
785.162	36.2
785.339	35.67
785.515	35.49
785.692	34.65
785.868	35.7
786.044	37.69
786.221	35.62
786.397	36.3
786.573	34.56
786.749	35.68
786.926	34.56
787.102	35.22
787.278	37.39
787.454	38.74
787.631	38.53
787.807	36.28
787.983	34.76
788.159	37.29
788.335	33.82
788.511	34.1
788.687	31.09
788.863	32.08
789.039	31.32
789.216	29.53
789.392	29.36
789.568	30.98
789.744	29.12
789.919	29.74
790.095	31.18
790.271	35.91
790.447	34.9
790.623	33.61
790.799	34.02
790.975	33.94
791.151	33.16
791.327	32.29
791.502	30.22
791.678	33.21
791.854	32.93
792.03	31.72
792.205	25.14
792.381	24.46
792.557	27.95
792.733	26
792.908	28.98
793.084	31.67
793.259	34.05
793.435	35.62
793.611	35.7
793.786	36.12
793.962	37.4
794.137	37.56
794.313	42.23
794.488	37.33
794.664	38.6
794.839	34.97
795.015	34.9
795.19	31.58
795.366	27.15
795.541	23.53
795.716	29.11
795.892	26.36
796.067	30.25
796.242	30.89
796.418	36
796.593	39
796.768	40.6
796.944	38.04
797.119	39.63
797.294	44.96
797.469	47.04
797.644	42.12
797.82	43.33
797.995	43.85
798.17	42.19
798.345	39.66
798.52	37.89
798.695	35.41
798.87	35.5
799.045	32.73
799.22	33.12
799.395	29.5
799.57	28.28
799.745	29.97
799.92	27.89
800.095	25.27
800.27	26.78
800.445	25.11
800.62	21.92
800.795	23.55
800.97	26.43
801.145	18.73
801.319	20.29
801.494	21.27
801.669	19.72
801.844	22.11
802.018	23.31
802.193	22.42
802.368	24.61
802.543	25.5
802.717	28.71
802.892	30.1
803.067	34.99
803.241	33.54
803.416	33.43
803.59	34.56
803.765	30.47
803.94	30.64
804.114	32.33
804.289	33.62
804.463	37.23
804.638	32.89
804.812	33.39
804.986	29.71
805.161	36.38
805.335	37.08
805.51	38.16
805.684	38.49
805.858	38.95
806.033	34.64
806.207	32.9
806.381	32.49
806.556	29.64
806.73	29.83
806.904	37.86
807.078	31.05
807.253	28.09
807.427	27.11
807.601	25.67
807.775	26.93
807.949	30.8
808.123	24.32
808.298	23.49
808.472	23.69
808.646	21.51
808.82	20.26
808.994	27.31
809.168	28.27
809.342	26.58
809.516	24.54
809.69	20.09
809.864	16.87
810.038	25.69
810.212	26.82
810.385	31.33
810.559	31.73
810.733	29.08
810.907	27.19
811.081	31.04
811.255	29.72
811.428	35.89
811.602	38.96
811.776	44.65
811.95	37.63
812.123	38.46
812.297	36.64
812.471	31.77
812.644	31.25
812.818	27.65
812.992	19.09
813.165	22.94
813.339	24.49
813.512	23.72
813.686	21.36
813.86	25.58
814.033	25.87
814.207	30.79
814.38	32.54
814.554	31.24
814.727	36.95
814.9	36.55
815.074	30.94
815.247	33.7
815.421	36.74
815.594	33.12
815.767	34.39
815.941	30.71
816.114	31.75
816.287	27.01
816.46	26.2
816.634	19.1
816.807	27.62
816.98	24.47
817.153	22.81
817.327	22.33
817.5	23.72
817.673	24.63
817.846	27.81
818.019	21.73
818.192	29.11
818.365	35.02
818.538	39.46
818.711	35.31
818.884	40.93
819.057	36.2
819.23	32.56
819.403	33.37
819.576	32.06
819.749	29.48
819.922	34.48
820.095	34.88
820.268	31
820.441	29.61
820.614	31.68
820.786	32.76
820.959	31.96
821.132	32.11
821.305	34.98
821.477	36.54
821.65	38.89
821.823	37.31
821.996	37.21
822.168	38.62
822.341	39.57
822.514	40.1
822.686	40.08
822.859	41.28
823.031	42.15
823.204	41.71
823.376	42.45
823.549	41.86
823.722	42.36
823.894	42.67
824.067	43.07
824.239	42.81
824.411	42.01
824.584	42.9
824.756	42.05
824.929	41.28
825.101	41.08
825.273	39.74
825.446	41.11
825.618	40.98
825.79	41.11
825.963	41.52
826.135	41.2
826.307	41.12
826.479	40
826.652	41.01
826.824	42.36
826.996	42.94
827.168	41.98
827.34	40.16
827.512	39.74
827.684	39.25
827.856	36.69
828.029	36.64
828.201	36.92
828.373	35.89
828.545	36.52
828.717	35.37
828.889	34.74
829.061	33.47
829.232	31.64
829.404	30.72
829.576	33.01
829.748	35.78
829.92	36.37
830.092	36.03
830.264	35.3
830.436	29.83
830.607	32.15
830.779	30.22
830.951	31.56
831.123	36.58
831.294	40.23
831.466	35.14
831.638	31.84
831.809	32.65
831.981	34.83
832.153	35.01
832.324	41.48
832.496	38.55
832.667	37.76
832.839	38.17
833.011	35.96
833.182	33.34
833.354	40.22
833.525	38.41
833.697	37.21
833.868	36.25
834.039	39.22
834.211	36.01
834.382	38.73
834.554	41.42
834.725	40.8
834.896	41.24
835.068	44.18
835.239	39.85
835.41	43.39
835.581	44.34
835.753	43.4
835.924	42.7
836.095	44.49
836.266	39.81
836.438	36.25
836.609	34.49
836.78	31.8
836.951	27.94
837.122	29.81
837.293	27.57
837.464	23.41
837.635	23.56
837.806	27
837.977	22.92
838.148	26.4
838.319	28.51
838.49	31.84
838.661	36.58
838.832	35.88
839.003	30.1
839.174	34.07
839.345	41.87
839.516	40.56
839.687	35.89
839.857	46.22
840.028	56.24
840.199	65.92
840.37	57.52
840.54	47.05
840.711	45.89
840.882	51.02
841.053	50.47
841.223	41.47
841.394	43.45
841.564	47.09
841.735	50.23
841.906	40.7
842.076	32.44
842.247	46.23
842.417	55.6
842.588	60.54
842.758	66.38
842.929	58.67
843.099	67.4
843.27	63.78
843.44	68.57
843.611	55.2
843.781	63.23
843.951	64.72
844.122	57.78
844.292	60.7
844.462	60.32
844.633	38.43
844.803	37.63
844.973	51.34
845.144	56.91
845.314	51.02
845.484	56.12
845.654	61.53
845.824	47.59
845.995	32.56
846.165	27.15
846.335	36.31
846.505	44.31
846.675	40.53
846.845	43.7
847.015	35.28
847.185	16.38
847.355	17.43
847.525	7.04
847.695	-9.12
847.865	7.04
848.035	6.09
848.205	-11.19
848.375	-30.35
848.545	-23.06
848.715	-52.5
848.884	-75.77
849.054	-71.82
849.224	-61.12
849.394	-29.19
849.564	-25.4
849.733	-36.93
849.903	-27.46
850.073	-52.21
850.243	-93.11
850.412	-125.1
850.582	-63.26
850.752	-50.91
850.921	-41.68
851.091	-31.15
851.26	-35.16
851.43	14.33
851.599	24.63
851.769	-5.48
851.939	24.98
852.108	33.06
852.278	49.08
852.447	42.68
852.616	24.36
852.786	23.7
852.955	10.77
853.125	-16.43
853.294	-41.12
853.463	-23.34
853.633	-6.34
853.802	-13.81
853.971	10.03
854.141	16.48
854.31	10.75
854.479	23.91
854.648	28.52
854.818	41.62
854.987	38.87
855.156	49.82
855.325	53.33
855.494	52.01
855.663	50.9
855.832	45.67
856.001	46.43
856.171	30.14
856.34	19.76
856.509	2.32
856.678	-24.66
856.847	-13.23
857.016	-15.07
857.185	-13.41
857.353	-13.95
857.522	-25.78
857.691	-47.33
857.86	-58.99
858.029	-18.42
858.198	0.24
858.367	-2.22
858.535	-9.62
858.704	21.65
858.873	37.87
859.042	27.73
859.21	35.08
859.379	51.11
859.548	57.68
859.717	53.1
859.885	37.03
860.054	26.16
860.222	49.64
860.391	55.24
860.56	39.19
860.728	15.8
860.897	46.29
861.065	95.86
861.234	80.72
861.402	65.7
861.571	71.73
861.739	61.28
861.908	71.74
862.076	73.5
862.244	73.5
862.413	79.2
862.581	95.56
862.749	72.35
862.918	23.4
863.086	41.11
863.254	60.08
863.423	72.01
863.591	38.93
863.759	99.93
863.927	28.55
864.096	43.26
864.264	8.92
864.432	-0.23
864.6	10.84
864.768	22.82
864.936	5.29
865.104	11
865.272	9.1
865.44	45.79
865.608	-211.88
865.776	-22.93
865.944	-84.89
866.112	303.66
866.28	55.32
866.448	202.41
866.616	16.71
866.784	-138.04
866.952	-47.41
867.12	-2.17
867.288	-23.01
867.455	6.72
867.623	-13.21
867.791	-24.64
867.959	-40.7
868.127	-28.64
868.294	-22.29
868.462	-17.35
868.63	1.53
868.797	-2.75
868.965	19.95
869.133	45.96
869.3	22.06
869.468	29.02
869.636	35.37
869.803	39.45
869.971	22.13
870.138	33.8
870.306	38.19
870.473	48.32
870.641	36.08
870.808	18.05
870.975	19.86
871.143	7.04
871.31	3.2
871.478	-4.48
871.645	-17.28
871.812	-29.65
871.98	-34.71
872.147	-17.16
872.314	-7.71
872.482	-4.97
872.649	6.47
872.816	3.35
872.983	10.26
873.15	7.72
873.318	13.8
873.485	16.23
873.652	18.12
873.819	11.91
873.986	-0.94
874.153	-23.23
874.32	-14.67
874.487	-63.46
874.654	-126.45
874.821	-88.11
874.988	-129.9
875.155	-100.88
875.322	-637.7
875.489	-485.78
875.656	-244.93
875.823	-552.62
875.99	-1019.17
876.157	424.91
876.324	512.24
876.49	-475.95
876.657	-84.57
876.824	11.53
876.991	23.82
877.157	74.39
877.324	93.87
877.491	84.63
877.658	102.89
877.824	83.04
877.991	89.93
878.157	76.36
878.324	103.84
878.491	134.42
878.657	80.98
878.824	66.26
878.99	24.9
879.157	38.79
879.323	13.86
879.49	15.29
879.656	-0.46
879.823	-4.39
879.989	-12.36
880.156	-18.47
880.322	-8.93
880.488	-14.16
880.655	-11.57
880.821	-3.27
880.987	-6.75
881.154	10.61
881.32	-16.03
881.486	-4.49
881.652	6.65
881.819	15.43
881.985	15.79
882.151	14.8
882.317	17.03
882.483	24.69
882.649	30
882.816	29.6
882.982	27.21
883.148	34.07
883.314	37.64
883.48	35.22
883.646	34.41
883.812	38.64
883.978	40.8
884.144	44.67
884.31	46.43
884.476	42.02
884.642	44.88
884.807	46.32
884.973	49.49
885.139	47.58
885.305	50.54
885.471	48.16
885.637	44.88
885.802	49.23
885.968	41.62
886.134	36.3
886.3	45.27
886.465	47.85
886.631	47.3
886.797	53.17
886.962	50.55
887.128	40.67
887.293	45.34
887.459	44.26
887.625	51.23
887.79	83.08
887.956	81.26
888.121	82.77
888.287	78.14
888.452	82.02
888.618	48.31
888.783	60.79
