Data from 2937830_Reflection_1.txt Node
Date: Wed Jul 15 16:48:06 EDT 2015
User: robert
Spectrometer: USB4E03001
Autoset integration time: false
Trigger mode: 4
Integration Time (sec): 1.000000E-1
Scans to average: 10
Electric dark correction enabled: true
Nonlinearity correction enabled: false
Boxcar width: 5
Stray light correction enabled: false
XAxis mode: Wavelengths
Stop averaging: false
Number of Pixels in Spectrum: 3648
>>>>>Begin Spectral Data<<<<<
177.566	-758.93
177.785	-492.98
178.005	183.14
178.225	237.33
178.445	375.94
178.665	135.87
178.885	161.66
179.105	438.36
179.324	-503.8
179.544	-346.87
179.764	-210.94
179.984	-194.34
180.204	-184.71
180.423	-342.99
180.643	-445.61
180.863	-272.83
181.083	-553.41
181.302	2703.51
181.522	-2638.3
181.742	364.32
181.961	339.76
182.181	369.32
182.401	301.11
182.621	121.87
182.84	167.53
183.06	224.56
183.279	476.88
183.499	394.24
183.719	32.05
183.938	86.69
184.158	82.74
184.377	55.23
184.597	40.61
184.816	59.61
185.036	45.99
185.256	72.46
185.475	65.46
185.695	115.19
185.914	104.74
186.134	114.98
186.353	98.27
186.572	87.03
186.792	122.53
187.011	220.17
187.231	124
187.45	82.65
187.67	56.67
187.889	155.57
188.108	43.14
188.328	36.97
188.547	17.27
188.766	-8.13
188.986	-64.28
189.205	-59.84
189.424	-61.12
189.644	-94.17
189.863	-131.74
190.082	-62.69
190.302	-151.48
190.521	-51.71
190.74	-64.74
190.959	-136.68
191.178	-198.98
191.398	-21.82
191.617	0.69
191.836	-19.57
192.055	7.5
192.274	-8.7
192.494	4.89
192.713	5.6
192.932	-44.48
193.151	-23.92
193.37	-80.15
193.589	-72.91
193.808	-69.49
194.027	-33.73
194.246	-1.02
194.465	-22.48
194.685	-48.07
194.904	-38.45
195.123	-26.96
195.342	-9.68
195.561	-16.85
195.78	3.93
195.999	34.92
196.218	21.18
196.436	-4.41
196.655	-6.9
196.874	-17.37
197.093	-8.35
197.312	5.67
197.531	0.28
197.75	1.26
197.969	-10.2
198.188	-42.23
198.407	-131.71
198.625	-94.55
198.844	-77.05
199.063	-129.34
199.282	7.29
199.501	15.69
199.719	-94.31
199.938	-190.21
200.157	-751.6
200.376	-223.24
200.594	-163.38
200.813	-253.01
201.032	-478.45
201.251	-231.11
201.469	-82.74
201.688	-47.73
201.907	-8.61
202.125	13.97
202.344	25.71
202.563	26.11
202.781	28.95
203	30.4
203.218	29.15
203.437	27.43
203.656	25.8
203.874	-8.59
204.093	-50.19
204.311	-104.86
204.53	-92.48
204.748	-18.78
204.967	-35.29
205.185	-21.44
205.404	-99.96
205.622	-44.11
205.841	-58.96
206.059	-216.02
206.278	-137.41
206.496	-77.57
206.715	-18.98
206.933	-21.88
207.151	-18.12
207.37	1.34
207.588	-7.58
207.806	14.07
208.025	8.53
208.243	3.05
208.461	18.53
208.68	18.68
208.898	15.62
209.116	3.32
209.335	7
209.553	-10.95
209.771	-30.41
209.989	-54.46
210.208	-133.12
210.426	-95.52
210.644	-114.63
210.862	-122.78
211.081	-90.92
211.299	-117.27
211.517	-260.66
211.735	-144.57
211.953	-123.77
212.171	-39.28
212.39	-18.43
212.608	3.32
212.826	-9.39
213.044	-20.21
213.262	-8.43
213.48	23.66
213.698	52.73
213.916	65.53
214.134	77.53
214.352	27.92
214.57	39.15
214.788	46.81
215.006	13.59
215.224	33.28
215.442	27.77
215.66	-3.72
215.878	-2.42
216.096	-12.6
216.314	-13.94
216.532	-1.79
216.75	24.38
216.968	4.26
217.185	5.2
217.403	26.21
217.621	3.62
217.839	4.29
218.057	22.33
218.275	23.46
218.492	27.25
218.71	32.29
218.928	15.47
219.146	28.74
219.363	28.36
219.581	23.26
219.799	32.73
220.017	38.31
220.234	41.82
220.452	53.01
220.67	42.17
220.887	32.99
221.105	43.84
221.323	38.27
221.54	32.56
221.758	26.9
221.976	38.98
222.193	24.05
222.411	71.74
222.629	13.2
222.846	36.59
223.064	30.69
223.281	-19.55
223.499	-18.02
223.716	-16.25
223.934	-20.72
224.151	-10.61
224.369	-12.2
224.586	0.88
224.804	4.58
225.021	14.71
225.239	11.53
225.456	15.1
225.674	32.97
225.891	20.17
226.108	17.44
226.326	20.47
226.543	7.36
226.76	5.29
226.978	3.49
227.195	-2.03
227.413	-9.82
227.63	-11.15
227.847	-8.17
228.064	-1.93
228.282	3.39
228.499	7.17
228.716	5.75
228.934	9.51
229.151	9.15
229.368	9.15
229.585	13.06
229.802	17.61
230.02	21.17
230.237	22.04
230.454	20.73
230.671	18.39
230.888	17.76
231.105	15.35
231.323	15.72
231.54	15.81
231.757	13.23
231.974	11.26
232.191	2.4
232.408	-1.79
232.625	-8.37
232.842	-12.89
233.059	-8.72
233.276	0.22
233.493	-0.69
233.71	-3.42
233.927	6.49
234.144	9.93
234.361	10.32
234.578	15.7
234.795	16.91
235.012	21.32
235.229	21.57
235.446	18.75
235.663	16.38
235.879	19.45
236.096	22.31
236.313	20.27
236.53	17.02
236.747	13.68
236.964	7.2
237.181	11.9
237.397	12.83
237.614	18.28
237.831	22.4
238.048	16.35
238.264	14.77
238.481	9.84
238.698	3.7
238.915	6.09
239.131	0.55
239.348	8.36
239.565	2.67
239.781	-0.32
239.998	-3.28
240.215	-2.29
240.431	0.57
240.648	2.22
240.865	7.47
241.081	13.93
241.298	14.75
241.514	18.5
241.731	19.17
241.947	15.8
242.164	15.95
242.38	16.92
242.597	16.83
242.814	17.3
243.03	19.83
243.246	23.72
243.463	21.38
243.679	21.66
243.896	19.65
244.112	17.79
244.329	21.01
244.545	21.15
244.762	18.61
244.978	17.98
245.194	18.19
245.411	17.13
245.627	11.22
245.843	11.76
246.06	12.42
246.276	14.47
246.492	13.72
246.709	14.42
246.925	14.88
247.141	15
247.357	16.1
247.574	15.64
247.79	14.43
248.006	15.34
248.222	15.35
248.439	15.99
248.655	15.48
248.871	14.98
249.087	14.7
249.303	14.19
249.519	16.13
249.736	16.62
249.952	16.52
250.168	19.75
250.384	16.73
250.6	17.85
250.816	13.91
251.032	14.02
251.248	15.11
251.464	13.33
251.68	14.4
251.896	11.68
252.112	9.73
252.328	10.15
252.544	8.21
252.76	6.88
252.976	3.9
253.192	4.1
253.408	3.02
253.624	4.08
253.84	4.31
254.056	2.3
254.272	1.85
254.487	-0.55
254.703	-1.21
254.919	-3.64
255.135	0.37
255.351	-0.06
255.567	0.65
255.782	0.87
255.998	0.33
256.214	1.31
256.43	2.62
256.646	3.73
256.861	3.5
257.077	3.49
257.293	4.67
257.508	2.19
257.724	3.98
257.94	4.8
258.155	8.53
258.371	8.7
258.587	8.05
258.802	7.97
259.018	8.68
259.234	10.71
259.449	10.94
259.665	13
259.88	14.02
260.096	14.1
260.312	14.02
260.527	13.23
260.743	13.21
260.958	13.48
261.174	13.65
261.389	13.69
261.605	14.04
261.82	13.93
262.036	11.66
262.251	10.71
262.466	10.71
262.682	11.62
262.897	10.82
263.113	11.07
263.328	11.08
263.543	10.63
263.759	11.03
263.974	7.62
264.189	6.55
264.405	7.78
264.62	7.89
264.835	6.81
265.051	1.98
265.266	1.23
265.481	1.62
265.696	2.56
265.912	2.21
266.127	1.4
266.342	2.55
266.557	2.62
266.773	1.56
266.988	2.56
267.203	3.05
267.418	3.77
267.633	3.49
267.848	3.78
268.064	3.08
268.279	2.21
268.494	2.11
268.709	1.76
268.924	1.45
269.139	1.06
269.354	1.29
269.569	1.19
269.784	2.93
269.999	2.56
270.214	2.45
270.429	5.52
270.644	8.53
270.859	9.96
271.074	10.44
271.289	12.34
271.504	14.44
271.719	14.71
271.934	14.28
272.149	13.17
272.363	15.2
272.578	15.61
272.793	14.15
273.008	13.71
273.223	12.57
273.438	13.35
273.653	12.85
273.867	11.5
274.082	11.8
274.297	13.4
274.512	14.13
274.726	11.98
274.941	11.9
275.156	11.06
275.371	8.72
275.585	9.17
275.8	8.68
276.015	8.44
276.229	8.57
276.444	6.82
276.659	6.27
276.873	7.52
277.088	9.36
277.302	6.52
277.517	6.87
277.732	7.1
277.946	6.16
278.161	5.93
278.375	6.8
278.59	7.15
278.804	7.84
279.019	5.77
279.233	6.05
279.448	4.67
279.662	6.11
279.877	7.28
280.091	7.41
280.306	8.99
280.52	8.2
280.735	8.91
280.949	8.96
281.163	9.31
281.378	10.79
281.592	9.64
281.806	11.55
282.021	11.99
282.235	11.68
282.449	13.13
282.664	11.52
282.878	12.73
283.092	12.99
283.307	12.03
283.521	10.61
283.735	10.72
283.949	11.9
284.164	9.74
284.378	10.27
284.592	12.21
284.806	11.48
285.02	13.44
285.234	12.23
285.449	10.73
285.663	11.54
285.877	12.19
286.091	12.07
286.305	11.46
286.519	12.2
286.733	12.5
286.947	10.07
287.161	9.69
287.375	7.75
287.589	7.79
287.803	8.19
288.017	8.23
288.231	7.98
288.445	8.74
288.659	8.97
288.873	8.48
289.087	6.4
289.301	6.93
289.515	6.79
289.729	7.31
289.943	6.55
290.157	6.27
290.371	6.63
290.584	7.1
290.798	5.7
291.012	5.64
291.226	4.64
291.44	6.58
291.654	6.8
291.867	7.07
292.081	5.82
292.295	7.67
292.509	7.85
292.722	6.39
292.936	6.21
293.15	7.94
293.364	6.31
293.577	6.89
293.791	6.13
294.005	6.06
294.218	7.15
294.432	8.5
294.645	9.52
294.859	9.74
295.073	10.29
295.286	9.71
295.5	8.14
295.713	10
295.927	11.4
296.14	12.06
296.354	11.74
296.568	12.62
296.781	12.77
296.994	11.04
297.208	11.85
297.421	12.88
297.635	14.56
297.848	15.08
298.062	14.85
298.275	14.81
298.489	15.71
298.702	15.69
298.915	14.81
299.129	13.39
299.342	14.92
299.555	14.69
299.769	13.8
299.982	12.47
300.195	12.47
300.409	13.67
300.622	13.95
300.835	13.85
301.048	12.86
301.262	11.82
301.475	14.89
301.688	13.8
301.901	13.51
302.115	12.78
302.328	14.27
302.541	13.84
302.754	12.33
302.967	11.43
303.18	9.34
303.393	9.32
303.607	10.11
303.82	9.97
304.033	10.17
304.246	9.67
304.459	12.24
304.672	10.63
304.885	11.71
305.098	11.35
305.311	11.5
305.524	11.48
305.737	12.67
305.95	13.59
306.163	12.4
306.376	13.43
306.589	13.93
306.802	11.85
307.015	12.53
307.228	12.09
307.44	11.1
307.653	12.83
307.866	12.51
308.079	13.74
308.292	10.86
308.505	11.67
308.718	11.31
308.93	10.65
309.143	11.81
309.356	13.19
309.569	14.24
309.781	17.09
309.994	16.56
310.207	17.07
310.42	16.03
310.632	17.19
310.845	16.8
311.058	16.71
311.27	15.57
311.483	14.3
311.696	12.77
311.908	12.59
312.121	10.98
312.333	10.5
312.546	10.49
312.759	11.76
312.971	12.22
313.184	12.35
313.396	12.28
313.609	12.26
313.821	13.02
314.034	12.06
314.246	9.85
314.459	11.28
314.671	11.16
314.884	8.19
315.096	8.01
315.309	7.96
315.521	6.98
315.733	7.3
315.946	7.89
316.158	7.82
316.371	9.15
316.583	10.58
316.795	9.63
317.008	8.77
317.22	12.52
317.432	10.47
317.644	10.82
317.857	11.84
318.069	11.81
318.281	12.98
318.494	12.83
318.706	14.47
318.918	13.72
319.13	12.85
319.342	14.28
319.555	14.47
319.767	16
319.979	16.61
320.191	15.33
320.403	14.8
320.615	14.98
320.827	14.02
321.039	11.41
321.252	10.52
321.464	11.29
321.676	9.64
321.888	8.16
322.1	7.89
322.312	7.12
322.524	8.66
322.736	8.03
322.948	7.6
323.16	9.58
323.372	10.32
323.584	12.36
323.796	12.09
324.007	12.95
324.219	13.41
324.431	13.54
324.643	13.24
324.855	12.89
325.067	13.5
325.279	13.11
325.491	12.39
325.702	12.49
325.914	12.83
326.126	13.56
326.338	13.92
326.55	15.1
326.761	15.32
326.973	14.92
327.185	14.82
327.396	15.34
327.608	16.04
327.82	15.9
328.032	17.34
328.243	16.55
328.455	15.55
328.666	14.62
328.878	11.91
329.09	11.46
329.301	13.03
329.513	13.01
329.725	13.75
329.936	13.08
330.148	15.05
330.359	14.83
330.571	14.29
330.782	12.65
330.994	14.46
331.205	16.47
331.417	18.55
331.628	18.01
331.84	18.64
332.051	18.42
332.262	19.56
332.474	18.14
332.685	17.19
332.897	18.05
333.108	21.23
333.319	19.12
333.531	19.56
333.742	18.4
333.953	18.23
334.165	19.1
334.376	18.11
334.587	17.62
334.799	18.64
335.01	18.75
335.221	18.79
335.432	18.01
335.644	18.9
335.855	19.43
336.066	19.38
336.277	18.55
336.488	19.22
336.7	18.98
336.911	19.2
337.122	18.05
337.333	18.27
337.544	18
337.755	17.66
337.966	17.98
338.177	17.7
338.388	17.22
338.599	18.4
338.811	16.07
339.022	14.14
339.233	13.49
339.444	13
339.655	12.21
339.866	11.63
340.076	10.9
340.287	10.86
340.498	9.77
340.709	9.88
340.92	9.59
341.131	10.34
341.342	13.97
341.553	15.6
341.764	15.68
341.975	16
342.185	16.47
342.396	16.88
342.607	16.76
342.818	16.71
343.029	17.38
343.239	17.46
343.45	17.57
343.661	16.7
343.872	16.16
344.082	17.19
344.293	16.55
344.504	16.47
344.714	16.61
344.925	17.53
345.136	19.07
345.346	19.37
345.557	19.22
345.768	18.21
345.978	18.85
346.189	18.69
346.399	17.39
346.61	19.26
346.821	19.85
347.031	20.31
347.242	18.75
347.452	17.45
347.663	16.09
347.873	17.15
348.084	17.08
348.294	16.62
348.504	16.7
348.715	17.67
348.925	17.25
349.136	16.5
349.346	15.12
349.557	16.13
349.767	15.73
349.977	15.85
350.188	15.26
350.398	16.61
350.608	16.85
350.819	16.93
351.029	17.02
351.239	16.17
351.449	16.75
351.66	17.07
351.87	16.45
352.08	17.39
352.29	16.92
352.501	17.29
352.711	17.49
352.921	16.46
353.131	16.53
353.341	16.93
353.552	16.18
353.762	15.45
353.972	17.36
354.182	17.65
354.392	17.2
354.602	18.26
354.812	16.89
355.022	15.95
355.232	17.23
355.442	17.03
355.652	16.76
355.862	16.91
356.072	17.6
356.282	16.87
356.492	17.85
356.702	18.29
356.912	17.23
357.122	17.49
357.332	17.82
357.542	17.46
357.752	17.46
357.962	17.47
358.171	19.58
358.381	19.02
358.591	18.78
358.801	18.05
359.011	17.4
359.221	17.65
359.43	18.45
359.64	17.92
359.85	16.79
360.06	16.75
360.269	17.03
360.479	15.71
360.689	15.47
360.899	15.8
361.108	15.43
361.318	16.42
361.528	16.54
361.737	16.09
361.947	16.14
362.156	16.63
362.366	16.78
362.576	16.94
362.785	16.97
362.995	17.72
363.204	17.66
363.414	18.39
363.623	17.16
363.833	16.89
364.042	17.23
364.252	17.99
364.461	18.03
364.671	17.72
364.88	16.48
365.09	16.74
365.299	16.61
365.509	16.03
365.718	15.45
365.927	15.84
366.137	16.63
366.346	16.54
366.555	16.87
366.765	16.82
366.974	16.4
367.183	16.09
367.393	14.74
367.602	14.34
367.811	14.48
368.021	15.45
368.23	15.79
368.439	14.46
368.648	13.85
368.857	12.9
369.067	12.64
369.276	12.44
369.485	14.01
369.694	14.95
369.903	14.66
370.112	13.73
370.321	13.1
370.531	12.19
370.74	13.86
370.949	13.99
371.158	13.62
371.367	14.55
371.576	15.12
371.785	14.38
371.994	13.24
372.203	13.32
372.412	13.54
372.621	12.31
372.83	13.1
373.039	11.67
373.248	11.32
373.457	11.21
373.666	10.49
373.874	11
374.083	10.56
374.292	11.32
374.501	11.39
374.71	11.34
374.919	11.86
375.128	11.93
375.336	12.89
375.545	13
375.754	13.95
375.963	13.63
376.171	12.66
376.38	12.62
376.589	12.48
376.798	13.09
377.006	13.37
377.215	13.55
377.424	13.11
377.632	12.56
377.841	13.16
378.05	12.63
378.258	12.47
378.467	12.7
378.675	12.63
378.884	12.45
379.093	11.4
379.301	11.87
379.51	11.78
379.718	12.13
379.927	12.63
380.135	12.37
380.344	12.14
380.552	12.81
380.761	12.96
380.969	13.79
381.177	13.9
381.386	13.8
381.594	12.69
381.803	12.56
382.011	12.54
382.219	12.23
382.428	11.38
382.636	10.92
382.845	10.47
383.053	10.6
383.261	10.5
383.469	10.48
383.678	10.61
383.886	11.47
384.094	11.52
384.302	11.02
384.511	10.56
384.719	10.59
384.927	10.87
385.135	10.6
385.343	9.96
385.552	9.07
385.76	9.18
385.968	9.01
386.176	8.88
386.384	8.53
386.592	8.97
386.8	8.76
387.008	8.86
387.216	8.98
387.424	9.36
387.633	9.81
387.841	9.83
388.049	9.63
388.257	9.84
388.465	9.61
388.672	9.58
388.88	9.14
389.088	9.48
389.296	9.47
389.504	8.89
389.712	8.72
389.92	8.17
390.128	8.34
390.336	8.34
390.544	8.49
390.751	8.46
390.959	8.33
391.167	8.64
391.375	8.6
391.583	9.15
391.79	9.33
391.998	9.43
392.206	9.55
392.414	9.61
392.621	9.23
392.829	9.47
393.037	9.55
393.244	9.83
393.452	9.45
393.66	9.47
393.867	8.91
394.075	8.77
394.283	8.48
394.49	8.21
394.698	8.38
394.905	8.51
395.113	8.12
395.32	7.73
395.528	7.61
395.735	7.92
395.943	7.62
396.15	7.37
396.358	7.89
396.565	8
396.773	8.01
396.98	7.71
397.188	8.32
397.395	8.6
397.602	8.61
397.81	8.55
398.017	8.41
398.225	8.44
398.432	8.77
398.639	8.54
398.847	8.42
399.054	8.34
399.261	8.43
399.468	8.06
399.676	7.74
399.883	7.8
400.09	8.06
400.297	7.79
400.505	7.73
400.712	7.84
400.919	7.91
401.126	7.87
401.333	7.95
401.54	7.83
401.748	8.4
401.955	8.52
402.162	8.87
402.369	8.39
402.576	8.33
402.783	8.09
402.99	8.04
403.197	8.09
403.404	8.27
403.611	8.38
403.818	8.47
404.025	7.96
404.232	7.78
404.439	7.74
404.646	8.09
404.853	8.25
405.06	8.57
405.267	8.94
405.474	8.79
405.681	8.6
405.887	8.62
406.094	8.61
406.301	8.83
406.508	8.86
406.715	8.65
406.922	8.65
407.128	8.77
407.335	8.99
407.542	8.72
407.749	8.92
407.955	9.04
408.162	8.91
408.369	8.87
408.575	8.43
408.782	8.87
408.989	8.81
409.195	8.8
409.402	8.68
409.609	8.67
409.815	8.67
410.022	8.41
410.228	8.53
410.435	8.69
410.642	8.45
410.848	8.43
411.055	7.78
411.261	8.06
411.468	8.17
411.674	7.98
411.881	7.91
412.087	7.64
412.294	7.38
412.5	7.31
412.706	7.28
412.913	7.33
413.119	7.39
413.326	7.62
413.532	7.41
413.738	7.08
413.945	7.4
414.151	7.4
414.357	7.29
414.564	7.72
414.77	7.76
414.976	7.66
415.182	7.76
415.389	7.92
415.595	7.93
415.801	8.22
416.007	8.26
416.214	8.17
416.42	7.87
416.626	8.14
416.832	8.15
417.038	7.94
417.244	7.92
417.45	7.73
417.657	7.85
417.863	7.99
418.069	7.96
418.275	7.81
418.481	7.78
418.687	7.91
418.893	7.7
419.099	7.7
419.305	7.73
419.511	7.92
419.717	8.24
419.923	8.15
420.129	7.94
420.335	7.65
420.541	7.7
420.746	7.56
420.952	7.63
421.158	7.81
421.364	7.73
421.57	7.79
421.776	7.66
421.982	7.59
422.187	7.59
422.393	7.66
422.599	7.66
422.805	7.92
423.01	8.01
423.216	7.88
423.422	7.84
423.628	7.83
423.833	7.82
424.039	7.77
424.245	7.7
424.45	7.6
424.656	7.52
424.862	7.69
425.067	7.51
425.273	7.57
425.478	7.6
425.684	7.63
425.889	7.59
426.095	7.55
426.301	7.72
426.506	7.87
426.712	7.85
426.917	8.03
427.123	7.68
427.328	7.8
427.533	7.69
427.739	7.66
427.944	7.53
428.15	7.73
428.355	7.84
428.561	7.76
428.766	7.51
428.971	7.57
429.177	7.57
429.382	7.79
429.587	7.44
429.793	7.54
429.998	7.62
430.203	7.61
430.408	7.3
430.614	7.2
430.819	7.02
431.024	7
431.229	6.97
431.434	7.19
431.64	7.25
431.845	7.3
432.05	7.33
432.255	7.34
432.46	7.51
432.665	7.49
432.87	7.33
433.076	7.49
433.281	7.7
433.486	7.74
433.691	7.41
433.896	7.42
434.101	7.45
434.306	7.47
434.511	7.47
434.716	7.53
434.921	7.7
435.126	7.85
435.331	7.61
435.535	7.38
435.74	7.32
435.945	7.15
436.15	7.19
436.355	7.15
436.56	7.04
436.765	6.79
436.97	6.53
437.174	6.35
437.379	6.12
437.584	6.29
437.789	6.4
437.993	6.6
438.198	6.76
438.403	6.76
438.608	6.75
438.812	6.55
439.017	6.62
439.222	6.57
439.426	6.73
439.631	6.87
439.836	6.88
440.04	6.79
440.245	6.74
440.45	6.91
440.654	6.96
440.859	7.07
441.063	7.25
441.268	7.27
441.472	7.25
441.677	7.18
441.881	7.15
442.086	7.2
442.29	7.25
442.495	7.3
442.699	7.24
442.904	7.2
443.108	7.2
443.312	7.21
443.517	7.18
443.721	7.29
443.925	7.34
444.13	7.33
444.334	7.37
444.538	7.38
444.743	7.16
444.947	7.16
445.151	7.06
445.356	7.21
445.56	7.25
445.764	7.35
445.968	7.41
446.173	7.35
446.377	7.46
446.581	7.42
446.785	7.37
446.989	7.5
447.193	7.45
447.398	7.38
447.602	7.23
447.806	7.3
448.01	7.3
448.214	7.24
448.418	7.22
448.622	7.23
448.826	7.16
449.03	7.18
449.234	7.19
449.438	7.31
449.642	7.46
449.846	7.56
450.05	7.36
450.254	7.37
450.458	7.02
450.662	7.12
450.866	6.96
451.069	7
451.273	7.11
451.477	7.21
451.681	7.01
451.885	7.1
452.089	6.89
452.292	6.84
452.496	6.91
452.7	7.09
452.904	7.2
453.107	7.33
453.311	7.25
453.515	7.14
453.719	6.93
453.922	7.2
454.126	7.04
454.33	7.25
454.533	7.41
454.737	7.04
454.94	7.27
455.144	7
455.348	6.83
455.551	6.85
455.755	6.76
455.958	6.66
456.162	6.26
456.365	6.29
456.569	6.2
456.772	6.22
456.976	6.39
457.179	6.26
457.383	6.28
457.586	6.23
457.79	6.41
457.993	6.4
458.196	6.38
458.4	6.56
458.603	6.66
458.807	6.57
459.01	6.55
459.213	6.53
459.417	6.7
459.62	6.74
459.823	6.9
460.026	6.88
460.23	6.97
460.433	7.14
460.636	6.99
460.839	6.87
461.042	6.87
461.246	6.83
461.449	6.93
461.652	6.79
461.855	6.81
462.058	6.76
462.261	6.56
462.464	6.48
462.668	6.47
462.871	6.71
463.074	6.86
463.277	6.95
463.48	7.07
463.683	7.05
463.886	7.42
464.089	7.41
464.292	7.45
464.495	7.3
464.698	7.58
464.901	7.53
465.104	7.41
465.306	7.39
465.509	7.38
465.712	7.21
465.915	7.27
466.118	6.95
466.321	6.69
466.524	6.51
466.726	6.57
466.929	6.13
467.132	6.02
467.335	6.11
467.538	6.09
467.74	6.09
467.943	6.17
468.146	6.02
468.348	6.12
468.551	6.28
468.754	6.34
468.956	6.43
469.159	6.55
469.362	6.75
469.564	6.65
469.767	6.46
469.969	6.29
470.172	6.33
470.375	6.44
470.577	6.36
470.78	6.36
470.982	6.62
471.185	6.8
471.387	6.86
471.59	6.71
471.792	6.73
471.995	6.76
472.197	6.99
472.399	7.04
472.602	7.13
472.804	6.97
473.007	7.16
473.209	6.9
473.411	6.95
473.614	7
473.816	7.07
474.018	7.38
474.22	7.38
474.423	7.14
474.625	7.21
474.827	7.03
475.03	7.06
475.232	6.81
475.434	6.85
475.636	6.48
475.838	6.47
476.04	6.58
476.243	6.28
476.445	6.31
476.647	6.51
476.849	6.48
477.051	6.41
477.253	6.48
477.455	6.46
477.657	6.48
477.859	6.74
478.061	6.64
478.263	6.6
478.465	6.53
478.667	6.52
478.869	6.4
479.071	6.22
479.273	6.41
479.475	6.41
479.677	6.54
479.879	6.58
480.081	6.51
480.283	6.62
480.485	6.28
480.686	6.55
480.888	6.66
481.09	6.84
481.292	6.89
481.494	6.96
481.695	6.99
481.897	6.98
482.099	6.89
482.301	6.92
482.502	6.81
482.704	6.98
482.906	6.96
483.107	6.99
483.309	6.92
483.511	6.86
483.712	6.83
483.914	6.85
484.115	6.83
484.317	6.82
484.519	6.84
484.72	6.91
484.922	6.92
485.123	6.9
485.325	6.84
485.526	6.89
485.728	7.02
485.929	6.95
486.131	6.91
486.332	6.89
486.534	6.93
486.735	6.96
486.936	6.98
487.138	7
487.339	6.99
487.541	7
487.742	6.94
487.943	6.92
488.144	7.09
488.346	7.07
488.547	7.08
488.748	7.11
488.95	6.99
489.151	6.9
489.352	6.91
489.553	6.77
489.755	6.78
489.956	6.72
490.157	6.62
490.358	6.43
490.559	6.43
490.76	6.35
490.961	6.41
491.163	6.57
491.364	6.63
491.565	6.63
491.766	6.77
491.967	6.77
492.168	6.76
492.369	6.72
492.57	6.72
492.771	6.76
492.972	6.97
493.173	6.88
493.374	6.81
493.575	6.79
493.776	6.7
493.976	6.62
494.177	6.57
494.378	6.59
494.579	6.74
494.78	6.87
494.981	6.9
495.182	6.75
495.382	6.77
495.583	6.7
495.784	6.77
495.985	6.86
496.185	6.94
496.386	6.93
496.587	7.09
496.788	6.98
496.988	6.93
497.189	6.9
497.39	6.94
497.59	6.98
497.791	6.93
497.992	6.89
498.192	6.89
498.393	6.82
498.593	6.79
498.794	6.72
498.994	6.74
499.195	6.69
499.395	6.6
499.596	6.67
499.796	6.63
499.997	6.72
500.197	6.76
500.398	6.58
500.598	6.72
500.799	6.73
500.999	6.73
501.199	6.53
501.4	6.75
501.6	6.91
501.801	6.62
502.001	6.52
502.201	6.39
502.402	6.41
502.602	6.5
502.802	6.56
503.002	6.64
503.203	6.57
503.403	6.87
503.603	6.72
503.803	6.61
504.003	6.77
504.204	6.84
504.404	7.11
504.604	7.18
504.804	7.25
505.004	7.14
505.204	7.23
505.404	7.19
505.604	7.01
505.804	6.95
506.005	6.94
506.205	6.96
506.405	6.93
506.605	6.73
506.805	6.58
507.005	6.42
507.204	6.38
507.404	6.32
507.604	6.45
507.804	6.6
508.004	6.42
508.204	6.43
508.404	6.36
508.604	6.57
508.804	6.63
509.003	6.7
509.203	6.7
509.403	6.71
509.603	6.63
509.803	6.87
510.002	6.73
510.202	7.11
510.402	7.22
510.602	7.31
510.801	7.27
511.001	7.41
511.201	7.35
511.4	7.6
511.6	7.67
511.8	7.84
511.999	7.66
512.199	7.82
512.398	7.77
512.598	7.8
512.797	7.92
512.997	7.8
513.197	7.87
513.396	7.92
513.596	7.69
513.795	7.75
513.994	7.74
514.194	7.78
514.393	7.75
514.593	7.57
514.792	7.58
514.992	7.54
515.191	7.65
515.39	7.47
515.59	7.43
515.789	7.48
515.988	7.51
516.188	7.56
516.387	7.45
516.586	7.64
516.786	7.78
516.985	7.75
517.184	7.73
517.383	7.69
517.582	7.84
517.782	7.88
517.981	8.14
518.18	8.13
518.379	8.21
518.578	8.37
518.777	8.25
518.976	8.24
519.176	8.25
519.375	8.22
519.574	8.32
519.773	8.24
519.972	8.34
520.171	8.25
520.37	8.22
520.569	8.1
520.768	7.88
520.967	8.16
521.166	8.08
521.365	8.13
521.564	8.33
521.762	8.29
521.961	8.3
522.16	8.32
522.359	8.43
522.558	8.28
522.757	8.24
522.956	8.45
523.154	8.17
523.353	8.43
523.552	8.38
523.751	8.3
523.949	8.36
524.148	8.47
524.347	8.5
524.546	8.42
524.744	8.57
524.943	8.64
525.142	8.65
525.34	8.73
525.539	8.63
525.737	8.68
525.936	8.7
526.135	8.65
526.333	8.6
526.532	8.49
526.73	8.54
526.929	8.65
527.127	8.73
527.326	8.72
527.524	8.78
527.723	8.9
527.921	8.94
528.12	8.94
528.318	9.08
528.516	9.13
528.715	9.22
528.913	9.27
529.112	9.34
529.31	9.29
529.508	9.35
529.707	9.34
529.905	9.27
530.103	9.31
530.301	9.33
530.5	9.26
530.698	9.24
530.896	9.27
531.094	9.22
531.293	9.12
531.491	9.15
531.689	9.12
531.887	9.22
532.085	9.32
532.283	9.36
532.481	9.41
532.68	9.48
532.878	9.54
533.076	9.53
533.274	9.63
533.472	9.67
533.67	9.81
533.868	9.77
534.066	9.73
534.264	9.73
534.462	9.62
534.66	9.56
534.858	9.58
535.056	9.54
535.253	9.55
535.451	9.51
535.649	9.54
535.847	9.45
536.045	9.56
536.243	9.56
536.441	9.68
536.638	9.92
536.836	10.02
537.034	9.98
537.232	10.11
537.43	10.16
537.627	10.06
537.825	10.08
538.023	10.11
538.22	10.24
538.418	10.21
538.616	10.23
538.813	10.25
539.011	10.41
539.209	10.43
539.406	10.32
539.604	10.35
539.801	10.51
539.999	10.55
540.196	10.69
540.394	10.66
540.591	10.76
540.789	10.74
540.986	10.68
541.184	10.73
541.381	10.69
541.579	10.84
541.776	10.88
541.974	10.94
542.171	10.9
542.368	10.93
542.566	10.98
542.763	11.03
542.96	11.07
543.158	11.07
543.355	11.06
543.552	11.09
543.75	11.19
543.947	11.27
544.144	11.36
544.341	11.48
544.539	11.51
544.736	11.53
544.933	11.62
545.13	11.6
545.327	11.77
545.524	11.79
545.722	11.91
545.919	11.81
546.116	11.92
546.313	11.96
546.51	12.09
546.707	12.01
546.904	11.92
547.101	11.89
547.298	11.94
547.495	12.02
547.692	12.2
547.889	12.4
548.086	12.39
548.283	12.33
548.48	12.36
548.677	12.28
548.874	12.55
549.07	12.85
549.267	12.92
549.464	13.31
549.661	13.28
549.858	13.02
550.055	13.16
550.251	13.32
550.448	13.45
550.645	13.3
550.842	13.53
551.038	13.34
551.235	13.31
551.432	13.53
551.628	13.45
551.825	13.37
552.022	13.43
552.218	13.27
552.415	13.33
552.612	13.19
552.808	13.58
553.005	13.6
553.201	13.85
553.398	13.89
553.594	13.7
553.791	13.75
553.987	13.89
554.184	13.84
554.38	14.2
554.577	14.26
554.773	14.48
554.97	14.3
555.166	14.19
555.362	14.15
555.559	14.26
555.755	14.4
555.952	14.18
556.148	14.19
556.344	14.46
556.541	14.26
556.737	14.3
556.933	14.27
557.129	14.37
557.326	14.42
557.522	14.78
557.718	14.75
557.914	14.66
558.11	14.9
558.307	14.92
558.503	15.17
558.699	15.28
558.895	15.32
559.091	15.39
559.287	15.37
559.483	15.53
559.679	15.43
559.876	15.7
560.072	16.08
560.268	15.94
560.464	16.24
560.66	16.13
560.856	16.42
561.052	16.44
561.247	16.6
561.443	16.88
561.639	16.93
561.835	16.84
562.031	16.85
562.227	16.75
562.423	17.04
562.619	16.99
562.815	17.11
563.01	16.95
563.206	17.15
563.402	17.25
563.598	16.87
563.793	16.77
563.989	17.04
564.185	17.15
564.381	17.3
564.576	17.4
564.772	17.5
564.968	17.83
565.163	17.92
565.359	18.01
565.555	17.83
565.75	18.17
565.946	18.46
566.141	18.36
566.337	18.29
566.532	18.4
566.728	18.5
566.923	18.47
567.119	18.39
567.314	18.45
567.51	18.49
567.705	18.76
567.901	18.78
568.096	18.85
568.292	18.94
568.487	19.02
568.682	19.12
568.878	19.14
569.073	19.19
569.268	19.28
569.464	19.44
569.659	19.48
569.854	19.72
570.05	19.82
570.245	19.71
570.44	19.86
570.635	19.84
570.831	19.79
571.026	20.02
571.221	20.26
571.416	20.23
571.611	20.26
571.806	20.28
572.002	20.26
572.197	20.3
572.392	20.25
572.587	20.14
572.782	20.26
572.977	20.42
573.172	20.35
573.367	20.29
573.562	20.27
573.757	20.31
573.952	20.31
574.147	20.01
574.342	19.95
574.537	20.19
574.732	20.29
574.927	20.42
575.121	20.55
575.316	20.55
575.511	20.6
575.706	20.55
575.901	20.29
576.096	20.61
576.29	21.06
576.485	21.21
576.68	21.41
576.875	21.62
577.069	21.72
577.264	21.58
577.459	21.51
577.654	21.44
577.848	21.88
578.043	22.05
578.238	21.79
578.432	21.65
578.627	21.65
578.821	21.53
579.016	21.38
579.21	21.51
579.405	21.51
579.6	21.69
579.794	22.11
579.989	21.87
580.183	22.02
580.378	22.19
580.572	22.12
580.766	22.12
580.961	22.23
581.155	22.27
581.35	21.97
581.544	21.94
581.738	21.81
581.933	21.63
582.127	21.37
582.321	21.16
582.516	20.99
582.71	21.13
582.904	20.98
583.099	21.01
583.293	20.99
583.487	21.2
583.681	21.15
583.875	21.31
584.07	21.24
584.264	21.54
584.458	21.66
584.652	21.88
584.846	21.93
585.04	22.1
585.234	22.24
585.428	22.38
585.623	21.97
585.817	22.24
586.011	22.34
586.205	22.64
586.399	22.89
586.593	23.15
586.787	23.07
586.981	22.97
587.174	23.04
587.368	23.04
587.562	23.16
587.756	23.34
587.95	23.65
588.144	23.45
588.338	23.3
588.532	23.19
588.725	23.23
588.919	23.54
589.113	23.78
589.307	23.88
589.501	23.87
589.694	23.86
589.888	23.77
590.082	23.4
590.275	23.74
590.469	23.89
590.663	23.95
590.856	23.72
591.05	23.69
591.244	23.6
591.437	23.37
591.631	23.36
591.824	23.45
592.018	23.71
592.212	23.94
592.405	23.74
592.599	23.57
592.792	23.46
592.986	23.67
593.179	23.27
593.372	23.4
593.566	23.84
593.759	23.84
593.953	23.67
594.146	23.79
594.339	23.64
594.533	23.65
594.726	23.76
594.92	23.76
595.113	24.05
595.306	24.41
595.499	24.56
595.693	24.57
595.886	24.6
596.079	24.83
596.272	24.99
596.466	25.19
596.659	25.13
596.852	25.22
597.045	25.32
597.238	25.2
597.431	25.24
597.624	25.2
597.818	24.97
598.011	24.9
598.204	24.61
598.397	24.49
598.59	24.5
598.783	24.48
598.976	24.25
599.169	24.16
599.362	24.16
599.555	24.05
599.748	23.75
599.941	23.74
600.134	23.77
600.326	24.04
600.519	23.88
600.712	23.76
600.905	24.02
601.098	24.25
601.291	24.44
601.483	24.43
601.676	24.62
601.869	24.84
602.062	25.24
602.255	25.19
602.447	25.21
602.64	25.55
602.833	25.71
603.025	25.6
603.218	25.53
603.411	25.66
603.603	25.79
603.796	25.69
603.989	25.81
604.181	26.04
604.374	26.2
604.566	26.17
604.759	25.89
604.951	25.85
605.144	25.9
605.336	26.25
605.529	26.2
605.721	26.13
605.914	26.05
606.106	25.78
606.299	25.36
606.491	25.31
606.683	25.19
606.876	25.34
607.068	25.24
607.26	25.34
607.453	25.21
607.645	25.33
607.837	25.4
608.03	25.5
608.222	25.74
608.414	25.77
608.606	25.72
608.799	26.02
608.991	26.11
609.183	26.19
609.375	26.14
609.567	25.82
609.759	25.53
609.952	25.45
610.144	25.59
610.336	25.46
610.528	25.57
610.72	25.5
610.912	25.48
611.104	25.63
611.296	25.58
611.488	25.63
611.68	25.97
611.872	25.93
612.064	25.97
612.256	26.03
612.448	26.23
612.64	25.88
612.832	25.79
613.023	25.92
613.215	25.54
613.407	25.45
613.599	25.53
613.791	25.48
613.983	25.71
614.174	25.4
614.366	25.26
614.558	25.17
614.75	25.52
614.941	25.43
615.133	25.14
615.325	25.54
615.516	25.99
615.708	25.73
615.9	25.38
616.091	25.47
616.283	25.9
616.475	25.66
616.666	25.33
616.858	25.6
617.049	26.03
617.241	26.01
617.432	25.51
617.624	24.96
617.815	25.2
618.007	25.73
618.198	25.76
618.39	25.33
618.581	25.45
618.773	25.73
618.964	25.72
619.155	25.69
619.347	25.9
619.538	25.76
619.729	25.92
619.921	25.89
620.112	25.56
620.303	25.55
620.494	25.74
620.686	26.01
620.877	25.89
621.068	25.51
621.259	25.5
621.451	25.75
621.642	26.04
621.833	26.12
622.024	26.1
622.215	26.38
622.406	26.3
622.597	26.59
622.788	26.29
622.98	26.6
623.171	26.86
623.362	26.99
623.553	26.87
623.744	26.77
623.935	27.33
624.126	27.12
624.317	27.04
624.508	27.21
624.698	27.08
624.889	27.34
625.08	27.13
625.271	27.17
625.462	26.93
625.653	26.67
625.844	26.86
626.034	26.59
626.225	26.91
626.416	26.73
626.607	26.86
626.798	27.12
626.988	27.2
627.179	27.2
627.37	27.15
627.56	27.41
627.751	27.4
627.942	27.53
628.132	27.33
628.323	27.2
628.514	27.22
628.704	27.12
628.895	27.06
629.085	27.07
629.276	27.25
629.466	27.31
629.657	27.3
629.847	27.31
630.038	27.23
630.228	27.31
630.419	27.59
630.609	27.76
630.8	27.58
630.99	27.7
631.181	27.75
631.371	27.89
631.561	27.95
631.752	27.53
631.942	27.52
632.132	27.51
632.323	27.64
632.513	27.2
632.703	27.22
632.893	27.05
633.084	26.97
633.274	26.91
633.464	26.58
633.654	26.46
633.844	26.68
634.034	26.8
634.225	26.93
634.415	26.85
634.605	27.34
634.795	27.12
634.985	27.48
635.175	26.81
635.365	26.96
635.555	27.06
635.745	26.97
635.935	26.92
636.125	27.35
636.315	27.63
636.505	27.47
636.695	27.16
636.885	27.37
637.075	27.12
637.265	27.99
637.455	27.59
637.644	27.7
637.834	27.78
638.024	28.14
638.214	27.54
638.404	27.35
638.593	27.49
638.783	27.96
638.973	27.7
639.163	28.07
639.352	27.82
639.542	28.39
639.732	28.56
639.921	28.32
640.111	28.22
640.301	28.43
640.49	28.32
640.68	28.32
640.87	27.94
641.059	27.9
641.249	27.55
641.438	27.63
641.628	27.4
641.817	27.38
642.007	27.99
642.196	27.99
642.386	27.6
642.575	27.84
642.764	28.17
642.954	27.99
643.143	28.12
643.333	28.45
643.522	28.2
643.711	27.88
643.901	27.8
644.09	27.56
644.279	27.75
644.469	28.13
644.658	28.14
644.847	28
645.036	28.32
645.226	28.27
645.415	27.86
645.604	28.06
645.793	27.89
645.982	27.95
646.171	28.4
646.361	28.56
646.55	28.98
646.739	28.83
646.928	28.47
647.117	28.52
647.306	28.84
647.495	28.93
647.684	29.12
647.873	29.05
648.062	29.02
648.251	28.52
648.44	28.25
648.629	27.96
648.818	27.86
649.007	27.75
649.196	27.76
649.384	28.12
649.573	28.2
649.762	27.97
649.951	28.27
650.14	28.32
650.328	28.69
650.517	28.32
650.706	28.27
650.895	28.21
651.083	28.68
651.272	28.55
651.461	28.51
651.65	29.07
651.838	29.22
652.027	29
652.216	29.15
652.404	28.89
652.593	29.71
652.781	29.81
652.97	30.12
653.158	30.13
653.347	30.01
653.535	29.43
653.724	29.21
653.912	29.17
654.101	29.67
654.289	29.61
654.478	30.07
654.666	29.45
654.855	29.17
655.043	29.03
655.231	29
655.42	29.59
655.608	30.01
655.796	30.02
655.985	29.88
656.173	29.95
656.361	29.95
656.55	29.45
656.738	29.41
656.926	29.53
657.114	29.89
657.302	30.1
657.491	30.3
657.679	30.47
657.867	30.32
658.055	30.14
658.243	30.05
658.431	29.84
658.619	30.06
658.807	30.24
658.996	30.42
659.184	30.13
659.372	29.85
659.56	29.64
659.748	29.35
659.936	29.51
660.124	29.62
660.311	29.44
660.499	29.84
660.687	29.77
660.875	29.85
661.063	29.77
661.251	29.58
661.439	29.66
661.627	29.49
661.814	29.65
662.002	29.4
662.19	29.67
662.378	29.97
662.565	29.52
662.753	29.19
662.941	29.19
663.129	29.23
663.316	29
663.504	28.54
663.692	28.01
663.879	27.93
664.067	28.56
664.254	28.13
664.442	27.71
664.63	27.48
664.817	27.81
665.005	27.24
665.192	27.18
665.38	27.37
665.567	28.18
665.755	28.53
665.942	28.74
666.13	28.25
666.317	28.66
666.504	28.6
666.692	29.14
666.879	28.7
667.067	28.97
667.254	29.03
667.441	29.21
667.629	29.11
667.816	29.46
668.003	29.51
668.19	29.19
668.378	28.87
668.565	29.76
668.752	29.41
668.939	30.25
669.127	30.09
669.314	30.1
669.501	29.82
669.688	29.19
669.875	28.62
670.062	28.13
670.249	28.53
670.436	29.01
670.623	28.69
670.81	28.91
670.997	28
671.184	28.23
671.371	27.52
671.558	28.35
671.745	28.94
671.932	29.6
672.119	29.73
672.306	30.1
672.493	30.05
672.68	29.74
672.867	29.66
673.054	30.14
673.24	30.73
673.427	31.67
673.614	31.05
673.801	30.91
673.988	30.12
674.174	30.16
674.361	30.05
674.548	29.35
674.734	29.17
674.921	28.98
675.108	28.85
675.294	28.63
675.481	28.83
675.668	29.21
675.854	29.4
676.041	29.78
676.227	29.79
676.414	29.13
676.601	30.15
676.787	30
676.974	30.11
677.16	30.06
677.347	30.18
677.533	29.4
677.719	29.49
677.906	29.38
678.092	29.7
678.279	29.71
678.465	29.67
678.651	29.52
678.838	29.62
679.024	29.87
679.21	30.24
679.397	30.27
679.583	31.05
679.769	30.82
679.955	30.74
680.142	30.68
680.328	30.83
680.514	31.61
680.7	31.37
680.886	31.44
681.073	30.78
681.259	30.17
681.445	29.97
681.631	29.23
681.817	29.31
682.003	29.37
682.189	28.95
682.375	28.61
682.561	28.23
682.747	28.29
682.933	28.97
683.119	29.36
683.305	29.66
683.491	29.54
683.677	29.77
683.863	29.33
684.049	29.69
684.235	30.37
684.42	31.05
684.606	30.91
684.792	31.32
684.978	31
685.164	31.39
685.349	32.18
685.535	32.2
685.721	32.4
685.907	32.07
686.092	31.5
686.278	31.4
686.464	31.82
686.649	31.71
686.835	31.12
687.021	30.72
687.206	30.33
687.392	29.97
687.577	29.91
687.763	29.87
687.948	30.82
688.134	31.08
688.319	30.95
688.505	30.46
688.69	30.98
688.876	31.36
689.061	31.34
689.247	31.76
689.432	31.59
689.618	31.92
689.803	32.47
689.988	32.47
690.174	32.71
690.359	33.08
690.544	32.96
690.73	32.27
690.915	32.32
691.1	32.34
691.285	31.71
691.471	31.26
691.656	30.63
691.841	30.17
692.026	29.64
692.211	28.9
692.396	28.31
692.582	27.91
692.767	27.95
692.952	27.39
693.137	27.53
693.322	27.99
693.507	29.16
693.692	29.27
693.877	29.14
694.062	29.04
694.247	29.52
694.432	29.67
694.617	30.08
694.802	31.36
694.987	31.75
695.172	31.71
695.357	31.94
695.541	31.39
695.726	31.84
695.911	31.71
696.096	32.56
696.281	33.23
696.466	32.9
696.65	33.7
696.835	32.82
697.02	32.7
697.204	32.28
697.389	31.66
697.574	31.15
697.759	30.84
697.943	31.01
698.128	30.9
698.312	30.75
698.497	31.07
698.682	30.55
698.866	30.69
699.051	30.64
699.235	30.63
699.42	31.68
699.604	32.16
699.789	32.46
699.973	32.39
700.158	32.66
700.342	33.11
700.527	33
700.711	33.15
700.895	32.32
701.08	32.4
701.264	32.73
701.448	31.74
701.633	31.09
701.817	31.22
702.001	31.3
702.186	30.73
702.37	29.24
702.554	29.13
702.738	28.77
702.923	29.37
703.107	29.03
703.291	29.67
703.475	29.3
703.659	29.86
703.843	29.17
704.027	29.8
704.212	30.15
704.396	30.4
704.58	30.79
704.764	30.31
704.948	30.92
705.132	31.01
705.316	30.72
705.5	31.43
705.684	31.23
705.868	31.22
706.052	30.11
706.235	30.03
706.419	30.37
706.603	30.22
706.787	30.83
706.971	30.84
707.155	31.09
707.339	31
707.522	30.5
707.706	30.04
707.89	30.95
708.074	31.26
708.257	31.32
708.441	30.86
708.625	30.67
708.808	29.99
708.992	29.32
709.176	29.62
709.359	29.25
709.543	29.1
709.727	29.83
709.91	30
710.094	30.13
710.277	29.68
710.461	30.13
710.644	30.62
710.828	31.04
711.011	31.9
711.195	32.03
711.378	32.53
711.562	33.21
711.745	32.85
711.928	32.49
712.112	33.16
712.295	33.43
712.478	33.3
712.662	32.32
712.845	32.59
713.028	31.86
713.212	31.31
713.395	31.41
713.578	31.01
713.761	30.84
713.945	30.64
714.128	30.11
714.311	29.82
714.494	30.18
714.677	30.64
714.86	30.09
715.043	30
715.227	29.9
715.41	29.73
715.593	30.13
715.776	31.47
715.959	31.17
716.142	31.26
716.325	31.63
716.508	31.67
716.691	31.98
716.874	32.75
717.057	33.12
717.239	32.95
717.422	32.62
717.605	32.25
717.788	30.72
717.971	30.76
718.154	30.98
718.337	30.89
718.519	30.14
718.702	30.63
718.885	29.62
719.068	30.38
719.25	30.04
719.433	31.14
719.616	32.12
719.798	33.04
719.981	33.23
720.164	32.95
720.346	33.03
720.529	33.73
720.712	32.89
720.894	33.04
721.077	32.21
721.259	32.04
721.442	31.96
721.624	31.05
721.807	31.5
721.989	31.56
722.172	31.34
722.354	30.83
722.537	31.39
722.719	32.76
722.901	33.16
723.084	32.71
723.266	33.34
723.448	32.63
723.631	32.17
723.813	31.59
723.995	32.6
724.178	32.99
724.36	34.17
724.542	33.37
724.724	32.18
724.907	32.41
725.089	31.93
725.271	33.25
725.453	31.86
725.635	32.22
725.817	31.68
725.999	31.56
726.181	31.39
726.364	30.71
726.546	30.51
726.728	31.38
726.91	31.12
727.092	32.3
727.274	30.36
727.456	31.02
727.638	29.99
727.819	29.56
728.001	29.25
728.183	28.43
728.365	27.99
728.547	27.62
728.729	27.03
728.911	26.17
729.093	26.08
729.274	27.26
729.456	28.23
729.638	29.65
729.82	29.86
730.001	30.22
730.183	31.99
730.365	32.03
730.546	32.72
730.728	31.89
730.91	32.15
731.091	32.54
731.273	32.66
731.455	32.31
731.636	31.83
731.818	32.8
731.999	32.39
732.181	31.97
732.362	32.46
732.544	31.88
732.725	32.71
732.907	32.46
733.088	31.61
733.27	30.88
733.451	31.16
733.633	31.93
733.814	31.71
733.995	31.89
734.177	31.97
734.358	30.66
734.539	30.23
734.721	30.7
734.902	31.04
735.083	31.4
735.264	32.62
735.446	32.48
735.627	31.49
735.808	31.26
735.989	30.34
736.17	28.5
736.351	29.61
736.533	30.77
736.714	29.6
736.895	29.75
737.076	29.61
737.257	29.98
737.438	30.64
737.619	30.74
737.8	31.09
737.981	30.99
738.162	32.57
738.343	32.66
738.524	32.32
738.705	32.17
738.886	33.13
739.067	32.87
739.247	31.74
739.428	30.47
739.609	31.66
739.79	30.87
739.971	31.24
740.151	30.45
740.332	30.37
740.513	30.19
740.694	31.5
740.874	31.76
741.055	31.24
741.236	31.35
741.417	31.18
741.597	30.61
741.778	30.74
741.958	30.52
742.139	30.71
742.32	30.62
742.5	31.41
742.681	29.82
742.861	28.99
743.042	29.13
743.222	28.5
743.403	28.96
743.583	27.83
743.764	26.67
743.944	27.37
744.124	26.12
744.305	26.2
744.485	26.92
744.666	28.24
744.846	27.92
745.026	28.35
745.207	28.52
745.387	28.43
745.567	29.15
745.747	30.17
745.928	30.26
746.108	31.77
746.288	31.49
746.468	30.61
746.648	30.72
746.829	29.59
747.009	30.23
747.189	31.35
747.369	32.01
747.549	31.44
747.729	30.09
747.909	29.32
748.089	29.38
748.269	29.7
748.449	29.22
748.629	28.79
748.809	28.95
748.989	27.99
749.169	28.06
749.349	27.49
749.529	28.51
749.709	30.39
749.889	30.87
750.068	29.79
750.248	30.08
750.428	30.5
750.608	31.77
750.788	34.15
750.967	35.24
751.147	32.69
751.327	33.4
751.507	33.87
751.686	34.16
751.866	34.84
752.046	35.78
752.225	34.68
752.405	34.79
752.585	33.53
752.764	33.91
752.944	33.91
753.123	37.38
753.303	35.74
753.482	34.36
753.662	33.1
753.841	32.78
754.021	31.78
754.2	32.85
754.38	30.02
754.559	30.02
754.739	28.25
754.918	27.13
755.097	24.24
755.277	24.59
755.456	23.63
755.635	25.23
755.815	23.45
755.994	22.63
756.173	23.35
756.352	25.63
756.532	25.31
756.711	25.8
756.89	27.37
757.069	29.08
757.248	30.59
757.427	32.02
757.607	31.71
757.786	32.25
757.965	34.18
758.144	34.78
758.323	34.63
758.502	34.65
758.681	35.06
758.86	34.33
759.039	32.35
759.218	32.5
759.397	33.31
759.576	32.08
759.755	35.53
759.934	34.77
760.113	33.32
760.291	33.36
760.47	32.59
760.649	33.04
760.828	32.73
761.007	34.5
761.186	34.24
761.364	32.85
761.543	33.43
761.722	31.01
761.901	32.74
762.079	33.13
762.258	33.69
762.437	35.05
762.615	35.67
762.794	35.72
762.972	35.56
763.151	35.28
763.33	35.38
763.508	35.96
763.687	36.09
763.865	35.33
764.044	35.08
764.222	35.05
764.401	35.36
764.579	33.65
764.758	33.79
764.936	33.89
765.114	33.89
765.293	33.67
765.471	33.26
765.65	32.85
765.828	32.18
766.006	32.63
766.184	31.26
766.363	31.24
766.541	31.25
766.719	31.02
766.898	31.33
767.076	31.67
767.254	31.67
767.432	30.33
767.61	29.6
767.788	30.1
767.967	29.18
768.145	31.84
768.323	30.1
768.501	31.35
768.679	31.26
768.857	30.64
769.035	31.74
769.213	33.49
769.391	34.94
769.569	34.54
769.747	36.6
769.925	36.24
770.103	33.67
770.281	34.49
770.459	34.33
770.636	33.92
770.814	34.86
770.992	34.58
771.17	33.2
771.348	33.63
771.525	35.23
771.703	33.24
771.881	31.73
772.059	33.44
772.236	35.74
772.414	35.71
772.592	37.37
772.769	34.45
772.947	33.51
773.125	33.85
773.302	32.64
773.48	32.91
773.657	31.15
773.835	32.39
774.013	31.18
774.19	28.63
774.368	29.6
774.545	28.72
774.723	30.6
774.9	30.52
775.077	29.01
775.255	28.5
775.432	28.34
775.61	30.08
775.787	30.36
775.964	29.83
776.142	29.64
776.319	29.3
776.496	28.71
776.674	26.83
776.851	29.17
777.028	32.79
777.205	32.87
777.382	31.67
777.56	33.4
777.737	33.02
777.914	34.58
778.091	33.39
778.268	29.82
778.445	27.63
778.622	32.69
778.8	30.55
778.977	30.34
779.154	32.3
779.331	32.88
779.508	32.88
779.685	35.06
779.862	36.8
780.038	37.21
780.215	37.8
780.392	39.97
780.569	36.46
780.746	35.03
780.923	32.56
781.1	31.61
781.277	31.82
781.453	28.07
781.63	28.19
781.807	27.33
781.984	27.11
782.16	28.14
782.337	27.55
782.514	26.61
782.691	28.64
782.867	28.38
783.044	29.92
783.221	32.76
783.397	36.07
783.574	35.17
783.75	31.91
783.927	31.22
784.103	34.39
784.28	32.58
784.456	33.32
784.633	36.5
784.809	38.51
784.986	36.47
785.162	33.15
785.339	33.08
785.515	33.13
785.692	34.16
785.868	32.19
786.044	28.91
786.221	31.66
786.397	33.3
786.573	26.71
786.749	22.47
786.926	24.05
787.102	23.62
787.278	23.21
787.454	22.02
787.631	22.3
787.807	22.76
787.983	23.92
788.159	23.52
788.335	22.38
788.511	23.6
788.687	25.32
788.863	26.77
789.039	25.99
789.216	25.04
789.392	24.82
789.568	26.52
789.744	29.04
789.919	29.32
790.095	29.11
790.271	26.98
790.447	28.18
790.623	27.36
790.799	26.98
790.975	29.15
791.151	29.55
791.327	30.99
791.502	32.06
791.678	33.36
791.854	31.67
792.03	31.29
792.205	33.67
792.381	34.81
792.557	34.22
792.733	30.03
792.908	28.08
793.084	25.27
793.259	25.15
793.435	22.88
793.611	20.12
793.786	18.85
793.962	18.15
794.137	19.17
794.313	16.97
794.488	16.32
794.664	16.9
794.839	17.65
795.015	21.43
795.19	18
795.366	19.21
795.541	21.52
795.716	26.04
795.892	28.72
796.067	26.44
796.242	27.01
796.418	30.59
796.593	32.32
796.768	33.84
796.944	33.04
797.119	34.49
797.294	30.2
797.469	29.06
797.644	26.27
797.82	22.89
797.995	23.45
798.17	24.87
798.345	22.6
798.52	22.13
798.695	20.84
798.87	19.66
799.045	18.8
799.22	22.58
799.395	23.99
799.57	25.62
799.745	24.8
799.92	24.81
800.095	22.21
800.27	23.6
800.445	22.45
800.62	22.22
800.795	23.58
800.97	25.53
801.145	25.7
801.319	24.65
801.494	25.18
801.669	27.77
801.844	26.02
802.018	29.02
802.193	27.07
802.368	29.29
802.543	31.87
802.717	32.05
802.892	31.1
803.067	28.96
803.241	28.95
803.416	29.29
803.59	26.81
803.765	28.87
803.94	27.92
804.114	28.69
804.289	25.79
804.463	24.56
804.638	24.94
804.812	26.6
804.986	29.05
805.161	28.2
805.335	26.23
805.51	28.61
805.684	27.92
805.858	26.77
806.033	27.95
806.207	31.45
806.381	29.82
806.556	28.24
806.73	30.22
806.904	26.25
807.078	29.1
807.253	29.3
807.427	31.33
807.601	33.59
807.775	36.01
807.949	33.71
808.123	30.64
808.298	30.09
808.472	33.16
808.646	26.23
808.82	30.41
808.994	28.14
809.168	26.83
809.342	24.23
809.516	21.7
809.69	16.6
809.864	18.88
810.038	24
810.212	23.6
810.385	20.46
810.559	26.2
810.733	21.16
810.907	23.77
811.081	28.71
811.255	30.83
811.428	30.1
811.602	32.24
811.776	34.4
811.95	27.86
812.123	31.92
812.297	37.36
812.471	38.49
812.644	42.93
812.818	37.8
812.992	35.54
813.165	34.11
813.339	29.97
813.512	29.11
813.686	20.99
813.86	24.33
814.033	21.5
814.207	18.43
814.38	18.51
814.554	22.71
814.727	21.45
814.9	22.58
815.074	24.8
815.247	27.59
815.421	27.7
815.594	29.41
815.767	31.47
815.941	32.31
816.114	31.2
816.287	33.3
816.46	29.22
816.634	32.18
816.807	36.4
816.98	34.5
817.153	38.69
817.327	39.87
817.5	46.3
817.673	42.85
817.846	39.72
818.019	36.28
818.192	29.74
818.365	29.51
818.538	32.32
818.711	26.37
818.884	25.66
819.057	22.81
819.23	23.89
819.403	19.27
819.576	23.67
819.749	27.69
819.922	32.52
820.095	36.15
820.268	35.98
820.441	35.09
820.614	33.93
820.786	36.51
820.959	36.93
821.132	36.82
821.305	38.85
821.477	37.91
821.65	37.31
821.823	34.57
821.996	34.01
822.168	34.14
822.341	34.22
822.514	34.89
822.686	33.67
822.859	34.22
823.031	34.51
823.204	33.94
823.376	33.66
823.549	34.67
823.722	35.9
823.894	35.98
824.067	36.4
824.239	36.5
824.411	36.8
824.584	38.1
824.756	38.42
824.929	38.09
825.101	38.12
825.273	38.72
825.446	37.49
825.618	37.22
825.79	38.02
825.963	35.96
826.135	35.66
826.307	35.25
826.479	34.89
826.652	33.56
826.824	34.45
826.996	34.29
827.168	33.96
827.34	33.59
827.512	33.47
827.684	32.16
827.856	32.66
828.029	32.19
828.201	32.86
828.373	32.68
828.545	33.63
828.717	33.84
828.889	33.79
829.061	32.57
829.232	33.8
829.404	32.69
829.576	33.82
829.748	31.9
829.92	32.05
830.092	30.75
830.264	27.37
830.436	26.43
830.607	28.22
830.779	28.79
830.951	27.19
831.123	27.88
831.294	26.98
831.466	27.92
831.638	30.92
831.809	32.22
831.981	30.77
832.153	32.87
832.324	30.46
832.496	23.18
832.667	18.96
832.839	19.06
833.011	16.06
833.182	19.16
833.354	15.06
833.525	16.79
833.697	16.49
833.868	23.58
834.039	24.85
834.211	26.38
834.382	28.16
834.554	29.41
834.725	31.17
834.896	30.54
835.068	28.31
835.239	26.31
835.41	26.64
835.581	26.6
835.753	21.85
835.924	21.32
836.095	17.93
836.266	15.51
836.438	16.29
836.609	15.63
836.78	15.7
836.951	17.54
837.122	25.88
837.293	19.85
837.464	24.22
837.635	24.52
837.806	22.18
837.977	26.03
838.148	31.29
838.319	30.94
838.49	28.07
838.661	26.9
838.832	29.87
839.003	26.85
839.174	35.92
839.345	25.81
839.516	29.04
839.687	29.14
839.857	27.14
840.028	25.46
840.199	21.7
840.37	34.32
840.54	35.42
840.711	33.87
840.882	27.01
841.053	25.38
841.223	30.02
841.394	23.81
841.564	25.46
841.735	28.81
841.906	33.41
842.076	36.69
842.247	24.94
842.417	18.48
842.588	14.02
842.758	22.01
842.929	21.63
843.099	14.22
843.27	21.42
843.44	20.7
843.611	14.28
843.781	6.81
843.951	5.95
844.122	6.17
844.292	12.91
844.462	17.65
844.633	12.82
844.803	14.73
844.973	26.23
845.144	17.62
845.314	29.1
845.484	28.83
845.654	32.42
845.824	34.68
845.995	39.62
846.165	38.15
846.335	44.96
846.505	52.67
846.675	50.23
846.845	40.27
847.015	40.16
847.185	30.29
847.355	42.27
847.525	37.43
847.695	49.57
847.865	65.28
848.035	73.86
848.205	82.88
848.375	70.92
848.545	61.35
848.715	60.95
848.884	76.63
849.054	61.29
849.224	56.12
849.394	48.41
849.564	36.72
849.733	13.59
849.903	0.53
850.073	-5.41
850.243	-0.04
850.412	18.64
850.582	20.1
850.752	18.5
850.921	28.81
851.091	26.92
851.26	32.92
851.43	44.13
851.599	55.2
851.769	75.51
851.939	70.88
852.108	62.93
852.278	39.51
852.447	28.26
852.616	31.81
852.786	27.36
852.955	22.13
853.125	21.16
853.294	15.92
853.463	21.46
853.633	10.11
853.802	2.61
853.971	8.62
854.141	22.72
854.31	14.98
854.479	2.97
854.648	3.29
854.818	2.3
854.987	9.93
855.156	9.4
855.325	-2.23
855.494	-3.62
855.663	3.14
855.832	13.69
856.001	13.28
856.171	28.6
856.34	37.44
856.509	38.21
856.678	48.57
856.847	23.81
857.016	0.63
857.185	12.23
857.353	3.36
857.522	-4.14
857.691	5.98
857.86	10.87
858.029	3.32
858.198	0.31
858.367	8.64
858.535	-0.34
858.704	3.3
858.873	25.31
859.042	10.66
859.21	23.38
859.379	26.9
859.548	0.07
859.717	0.57
859.885	16.57
860.054	18.07
860.222	12.36
860.391	21.92
860.56	18.46
860.728	9.37
860.897	31.22
861.065	28.33
861.234	25.09
861.402	35.95
861.571	45.05
861.739	44.25
861.908	33.09
862.076	48.81
862.244	56.79
862.413	51.5
862.581	72.32
862.749	58.68
862.918	69.68
863.086	74.59
863.254	64.54
863.423	71.48
863.591	66.57
863.759	86.05
863.927	70.89
864.096	61.19
864.264	71.34
864.432	41.71
864.6	39.23
864.768	23.89
864.936	31.07
865.104	21.29
865.272	16.19
865.44	19.25
865.608	11.13
865.776	4.75
865.944	-3.96
866.112	-18
866.28	2.87
866.448	11.44
866.616	17.92
866.784	14.51
866.952	9.62
867.12	7.21
867.288	-8.09
867.455	-28.44
867.623	-33.99
867.791	-35.99
867.959	-21.25
868.127	-37.65
868.294	-39.01
868.462	-35.17
868.63	-18.22
868.797	4.61
868.965	9.58
869.133	25.6
869.3	44.25
869.468	48.55
869.636	43.7
869.803	45.78
869.971	51.03
870.138	43.6
870.306	38.99
870.473	28.15
870.641	16.65
870.808	11.24
870.975	12.98
871.143	21.11
871.31	13.29
871.478	18.79
871.645	14.13
871.812	11.79
871.98	13.65
872.147	19.42
872.314	21.2
872.482	18.82
872.649	23.45
872.816	27.06
872.983	19.89
873.15	27.44
873.318	15.83
873.485	36.91
873.652	27.2
873.819	14.39
873.986	18.56
874.153	21.99
874.32	34.4
874.487	39.23
874.654	30.15
874.821	30.92
874.988	33.9
875.155	42.12
875.322	38.99
875.489	41.5
875.656	43.91
875.823	55.96
875.99	58.12
876.157	58.42
876.324	42.54
876.49	30.2
876.657	27.76
876.824	28.32
876.991	20.34
877.157	7.83
877.324	24.69
877.491	21.41
877.658	-4.97
877.824	-9.32
877.991	-13.94
878.157	7.19
878.324	26.38
878.491	16.6
878.657	13.92
878.824	25.93
878.99	26.06
879.157	15.82
879.323	1.66
879.49	9.33
879.656	0.93
879.823	16.93
879.989	13.6
880.156	16.87
880.322	20.26
880.488	2.28
880.655	-7.56
880.821	3.89
880.987	1.42
881.154	16.41
881.32	34.92
881.486	40.45
881.652	37.59
881.819	33.02
881.985	24.52
882.151	25.26
882.317	39.68
882.483	38.12
882.649	35
882.816	33.26
882.982	34.05
883.148	29.75
883.314	30.23
883.48	31.01
883.646	33.31
883.812	33.67
883.978	33.77
884.144	34.25
884.31	36.86
884.476	41.88
884.642	44.08
884.807	44.11
884.973	42.8
885.139	40.8
885.305	41.39
885.471	41.79
885.637	40.41
885.802	41.4
885.968	36.55
886.134	35.93
886.3	31.17
886.465	26.7
886.631	26.91
886.797	26.72
886.962	27.16
887.128	24.49
887.293	27.08
887.459	32.77
887.625	33.72
887.79	30.33
887.956	27.77
888.121	28.36
888.287	29.77
888.452	25.93
888.618	27.67
888.783	26.7
