Data from 2937866_Reflection_1.txt Node
Date: Wed Jul 15 15:10:31 EDT 2015
User: robert
Spectrometer: USB4E03001
Autoset integration time: false
Trigger mode: 4
Integration Time (sec): 1.000000E-1
Scans to average: 10
Electric dark correction enabled: true
Nonlinearity correction enabled: false
Boxcar width: 5
Stray light correction enabled: false
XAxis mode: Wavelengths
Stop averaging: false
Number of Pixels in Spectrum: 3648
>>>>>Begin Spectral Data<<<<<
177.566	-2007.56
177.785	-422.28
178.005	1390.2
178.225	706.56
178.445	382.52
178.665	466.14
178.885	217.56
179.105	659.09
179.324	-83.02
179.544	-47.85
179.764	-94.56
179.984	-94.49
180.204	-64.78
180.423	-94.73
180.643	-94.14
180.863	-171.27
181.083	-227.09
181.302	-358.49
181.522	-123.93
181.742	-277.35
181.961	-1452.63
182.181	-967.71
182.401	551.85
182.621	172.87
182.84	122.3
183.06	107.08
183.279	99.03
183.499	124.39
183.719	127.85
183.938	145.51
184.158	220.95
184.377	186.67
184.597	196.25
184.816	258.7
185.036	517.73
185.256	441.1
185.475	350.61
185.695	-2465.47
185.914	-503.43
186.134	-148.24
186.353	-194.72
186.572	-224.2
186.792	-217.46
187.011	-171.11
187.231	-132.03
187.45	-168.65
187.67	-192.9
187.889	-146.27
188.108	-638.88
188.328	387.95
188.547	254.64
188.766	629.52
188.986	394.65
189.205	348.17
189.424	201.01
189.644	301.09
189.863	546.42
190.082	497.53
190.302	-25492.86
190.521	-1376.71
190.74	-104.56
190.959	-205.39
191.178	-119.61
191.398	-103.32
191.617	-20.21
191.836	-8.55
192.055	-50.1
192.274	-93.76
192.494	-134.64
192.713	-246.14
192.932	-133.57
193.151	-185.15
193.37	-200.13
193.589	-1293.72
193.808	-3449.48
194.027	419.39
194.246	192.95
194.465	196.74
194.685	285.92
194.904	226.12
195.123	225.86
195.342	195.2
195.561	216
195.78	163.85
195.999	144.62
196.218	137.85
196.436	124.13
196.655	169.86
196.874	147.55
197.093	143.59
197.312	168.22
197.531	168.06
197.75	146.81
197.969	155.6
198.188	207.73
198.407	211.69
198.625	219.92
198.844	305.45
199.063	213.32
199.282	705.67
199.501	254.94
199.719	230.95
199.938	357.35
200.157	1467.33
200.376	667.52
200.594	498.18
200.813	1022.21
201.032	2968.55
201.251	3772.2
201.469	-863.05
201.688	385.12
201.907	397.2
202.125	416.85
202.344	405.34
202.563	251.37
202.781	241.49
203	234.09
203.218	311.69
203.437	212.89
203.656	1492.8
203.874	-1340.19
204.093	-389.92
204.311	-178.06
204.53	-141.92
204.748	-149.66
204.967	-184.77
205.185	-171.86
205.404	-176.94
205.622	-217.94
205.841	-336.61
206.059	-1049.66
206.278	14696.88
206.496	2193.66
206.715	1476.4
206.933	7466.02
207.151	2440.94
207.37	1102.83
207.588	1148.89
207.806	649.54
208.025	670.72
208.243	-4320.1
208.461	-2345.78
208.68	-477.09
208.898	-1690.28
209.116	-757.09
209.335	601.39
209.553	632.48
209.771	3105.15
209.989	439.06
210.208	472.35
210.426	2694.44
210.644	-475.36
210.862	938.83
211.081	235.85
211.299	-768.82
211.517	-510.09
211.735	-44.28
211.953	-71.62
212.171	-61.18
212.39	-44.89
212.608	-37.51
212.826	-139.84
213.044	-3038.19
213.262	649.16
213.48	-2385.65
213.698	710.49
213.916	140.58
214.134	113.19
214.352	232.12
214.57	108.77
214.788	114.79
215.006	193.46
215.224	147.28
215.442	136.59
215.66	242.33
215.878	137.84
216.096	207.88
216.314	205.94
216.532	242.42
216.75	145.8
216.968	223.57
217.185	216.12
217.403	269.18
217.621	725.75
217.839	798.03
218.057	851.9
218.275	-403.19
218.492	-1432.16
218.71	-1108.12
218.928	-436.71
219.146	-128.5
219.363	-122.84
219.581	-35.44
219.799	2.82
220.017	-16.13
220.234	-34.1
220.452	7.84
220.67	24.16
220.887	33.37
221.105	75.05
221.323	209.72
221.54	125.76
221.758	66.22
221.976	100.59
222.193	90.61
222.411	93.89
222.629	72.38
222.846	95.79
223.064	86.66
223.281	81.19
223.499	102.03
223.716	119.03
223.934	107.64
224.151	213.72
224.369	154.03
224.586	271.3
224.804	399.87
225.021	1293.46
225.239	696.82
225.456	232.67
225.674	286.1
225.891	242.29
226.108	281.97
226.326	230.24
226.543	495.95
226.76	314.04
226.978	91.95
227.195	67.59
227.413	40.08
227.63	43.3
227.847	39.44
228.064	36.37
228.282	34.14
228.499	33.33
228.716	31.42
228.934	31.64
229.151	34.44
229.368	33.92
229.585	32.72
229.802	33.29
230.02	32.34
230.237	32.77
230.454	26.94
230.671	31.62
230.888	29.89
231.105	32.2
231.323	27.14
231.54	20.88
231.757	22.67
231.974	17.38
232.191	19.97
232.408	18.77
232.625	14.95
232.842	26.38
233.059	27.54
233.276	20.14
233.493	19.74
233.71	45.02
233.927	51.81
234.144	48.94
234.361	57.3
234.578	56.01
234.795	58
235.012	56.86
235.229	63.88
235.446	60.39
235.663	59.92
235.879	53.54
236.096	40.08
236.313	37.66
236.53	45.39
236.747	45.61
236.964	40.13
237.181	40.45
237.397	42.74
237.614	30.97
237.831	32.38
238.048	41.67
238.264	45.06
238.481	54.18
238.698	49.93
238.915	41.89
239.131	36.5
239.348	39
239.565	45.4
239.781	40.81
239.998	34.32
240.215	31.84
240.431	21.71
240.648	24.23
240.865	26.62
241.081	25.88
241.298	21.35
241.514	19.42
241.731	17.13
241.947	17
242.164	18.33
242.38	19.43
242.597	20.98
242.814	22.99
243.03	24.7
243.246	21.47
243.463	20.67
243.679	21.51
243.896	20.27
244.112	19.31
244.329	19.54
244.545	20.67
244.762	23.29
244.978	21.62
245.194	25.6
245.411	22.79
245.627	26.12
245.843	26.43
246.06	27.59
246.276	28.14
246.492	27.7
246.709	25.51
246.925	23.35
247.141	22.58
247.357	22.13
247.574	20.13
247.79	19.96
248.006	18.96
248.222	17.95
248.439	16.27
248.655	15.28
248.871	14.71
249.087	13.42
249.303	12.55
249.519	11.61
249.736	12.04
249.952	12.4
250.168	13.13
250.384	10.81
250.6	12.32
250.816	15.77
251.032	17.76
251.248	18.22
251.464	20.75
251.68	21.66
251.896	19.82
252.112	17.59
252.328	15.53
252.544	14.09
252.76	16.73
252.976	14.52
253.192	12.32
253.408	10.56
253.624	13.39
253.84	14.13
254.056	16.46
254.272	17.46
254.487	20.5
254.703	26.34
254.919	28.91
255.135	26.08
255.351	30.7
255.567	31.38
255.782	31.97
255.998	28.53
256.214	27.26
256.43	24.69
256.646	25.8
256.861	23.04
257.077	18.44
257.293	17.11
257.508	19.22
257.724	15.77
257.94	14.83
258.155	13.43
258.371	13.25
258.587	13.23
258.802	14.82
259.018	13.43
259.234	14.65
259.449	14.34
259.665	13.13
259.88	12.68
260.096	13.38
260.312	14.02
260.527	15.12
260.743	15.63
260.958	14.96
261.174	13.1
261.389	13.85
261.605	13.08
261.82	13.55
262.036	14.81
262.251	15.33
262.466	13.61
262.682	13.49
262.897	14.17
263.113	12.72
263.328	13.57
263.543	16.55
263.759	15.49
263.974	15.27
264.189	14.08
264.405	11.88
264.62	12.36
264.835	12.41
265.051	11.32
265.266	6.93
265.481	6.69
265.696	5.67
265.912	4.57
266.127	6.54
266.342	8.1
266.557	7.93
266.773	10.12
266.988	9.91
267.203	12.24
267.418	10.86
267.633	11.59
267.848	13.39
268.064	12.97
268.279	10.8
268.494	10.88
268.709	10.12
268.924	10.45
269.139	8.51
269.354	7.8
269.569	6.43
269.784	8.09
269.999	10.24
270.214	8.66
270.429	10.31
270.644	12.65
270.859	10.89
271.074	11.18
271.289	12.41
271.504	12.93
271.719	12.73
271.934	13.41
272.149	13.5
272.363	12.93
272.578	14.54
272.793	13.44
273.008	14.27
273.223	14.19
273.438	13.73
273.653	11.88
273.867	11.79
274.082	12.28
274.297	12.43
274.512	11.49
274.726	9.52
274.941	7.52
275.156	9.19
275.371	5.82
275.585	6.03
275.8	5.79
276.015	8.4
276.229	8.69
276.444	8.77
276.659	7.01
276.873	8.37
277.088	8.72
277.302	7.07
277.517	7.07
277.732	9.14
277.946	8.34
278.161	10.29
278.375	7.02
278.59	8.45
278.804	7.8
279.019	9.1
279.233	8.43
279.448	9.65
279.662	11.6
279.877	11.8
280.091	12.98
280.306	14.58
280.52	13.45
280.735	16.25
280.949	16.89
281.163	16.34
281.378	15.68
281.592	15.66
281.806	15.94
282.021	15.5
282.235	13.42
282.449	13.54
282.664	14.59
282.878	15.75
283.092	15.04
283.307	15.27
283.521	15.84
283.735	16
283.949	16.35
284.164	15.57
284.378	14.92
284.592	15.43
284.806	13.24
285.02	11.68
285.234	10.86
285.449	11.04
285.663	10.15
285.877	11.11
286.091	10.5
286.305	11.59
286.519	9.88
286.733	12.05
286.947	11.94
287.161	13.12
287.375	13.63
287.589	12.72
287.803	12.8
288.017	13.52
288.231	10.96
288.445	12.41
288.659	11.16
288.873	13.17
289.087	12.04
289.301	13.44
289.515	13.82
289.729	14.48
289.943	16.41
290.157	15.42
290.371	15.11
290.584	16.56
290.798	16.11
291.012	15.59
291.226	16.73
291.44	16.71
291.654	15.7
291.867	15.34
292.081	14.47
292.295	13.1
292.509	12.83
292.722	13.09
292.936	12.95
293.15	12.37
293.364	13.67
293.577	12.25
293.791	11.4
294.005	12.48
294.218	10.88
294.432	11.34
294.645	11.76
294.859	12.6
295.073	11.45
295.286	11.51
295.5	12.58
295.713	11.3
295.927	12.22
296.14	13.05
296.354	12.02
296.568	13.01
296.781	12.91
296.994	13.81
297.208	14.28
297.421	14.61
297.635	13.28
297.848	13.37
298.062	13.8
298.275	14.16
298.489	13.21
298.702	15.42
298.915	15.71
299.129	15.46
299.342	13.2
299.555	12.55
299.769	11.83
299.982	15.85
300.195	15.28
300.409	14.43
300.622	13.37
300.835	13.17
301.048	11.21
301.262	10.32
301.475	11.76
301.688	12.16
301.901	11.71
302.115	12.72
302.328	11.03
302.541	11.61
302.754	11.03
302.967	12.47
303.18	13.99
303.393	15.11
303.607	15.82
303.82	14.68
304.033	16.75
304.246	16.6
304.459	16.54
304.672	16.03
304.885	16.15
305.098	17.81
305.311	15.68
305.524	15.12
305.737	14.95
305.95	16.61
306.163	16.97
306.376	15.66
306.589	16.2
306.802	15.12
307.015	14.98
307.228	15.43
307.44	16.32
307.653	19.56
307.866	20.74
308.079	19.17
308.292	17.83
308.505	17.41
308.718	17.43
308.93	17.97
309.143	18.36
309.356	17.6
309.569	16.44
309.781	16.32
309.994	15.75
310.207	15.99
310.42	16.8
310.632	17.77
310.845	19.2
311.058	19.48
311.27	18.62
311.483	16.59
311.696	17.45
311.908	17.27
312.121	15.84
312.333	14.01
312.546	13.67
312.759	12.95
312.971	12.78
313.184	10.64
313.396	10.89
313.609	11.9
313.821	13.93
314.034	13.89
314.246	13.65
314.459	14.58
314.671	15.06
314.884	13.29
315.096	13.46
315.309	11.94
315.521	15.08
315.733	14.73
315.946	16.6
316.158	17.69
316.371	18.5
316.583	21.01
316.795	20.52
317.008	19.7
317.22	20.6
317.432	19.57
317.644	20.04
317.857	16.74
318.069	13.97
318.281	12.28
318.494	15.68
318.706	14.77
318.918	14.31
319.13	13.58
319.342	15.74
319.555	14.68
319.767	14.73
319.979	14.13
320.191	15.7
320.403	18.53
320.615	17.89
320.827	16.57
321.039	17.45
321.252	17.05
321.464	19.21
321.676	21.19
321.888	20.67
322.1	22.47
322.312	22.89
322.524	23.37
322.736	22.5
322.948	23.74
323.16	23.45
323.372	22.01
323.584	20.68
323.796	20.58
324.007	17.85
324.219	19.53
324.431	20.1
324.643	20.03
324.855	18.89
325.067	18.36
325.279	17.71
325.491	16.05
325.702	16.13
325.914	18.14
326.126	17.66
326.338	17.93
326.55	18.02
326.761	16.77
326.973	16.88
327.185	16.73
327.396	18.11
327.608	18.07
327.82	18.74
328.032	19.77
328.243	18.88
328.455	19.68
328.666	18.57
328.878	19.49
329.09	19.78
329.301	20.65
329.513	21.96
329.725	21.67
329.936	22.6
330.148	22.77
330.359	22.64
330.571	22.43
330.782	21.35
330.994	23.98
331.205	22.68
331.417	23.13
331.628	21.08
331.84	23.18
332.051	23.11
332.262	21.53
332.474	21.2
332.685	19.45
332.897	20.17
333.108	21.28
333.319	20.14
333.531	22.01
333.742	22.34
333.953	22.27
334.165	19.47
334.376	20.19
334.587	20.32
334.799	20.21
335.01	21.06
335.221	21.64
335.432	20.99
335.644	20.32
335.855	19.8
336.066	18.94
336.277	21.21
336.488	22.21
336.7	21.66
336.911	22.2
337.122	23.06
337.333	23.65
337.544	22.36
337.755	22.72
337.966	23.56
338.177	22.07
338.388	22.72
338.599	21.91
338.811	21.36
339.022	21.39
339.233	21.37
339.444	20.76
339.655	20.53
339.866	21.42
340.076	21.32
340.287	21.11
340.498	21.3
340.709	20.37
340.92	19.84
341.131	20.19
341.342	20.18
341.553	20.41
341.764	21.41
341.975	22.29
342.185	20.45
342.396	19.58
342.607	20.51
342.818	20.4
343.029	20.17
343.239	20.69
343.45	18.6
343.661	17.97
343.872	17.73
344.082	16.93
344.293	16.32
344.504	17.87
344.714	19.09
344.925	17.75
345.136	17.67
345.346	18.19
345.557	18.51
345.768	19.95
345.978	20.5
346.189	20.38
346.399	21.42
346.61	21.15
346.821	20.8
347.031	20.98
347.242	22.36
347.452	21.88
347.663	19.49
347.873	18.58
348.084	18.03
348.294	18.16
348.504	17.4
348.715	14.87
348.925	13.77
349.136	14.72
349.346	11.81
349.557	9.53
349.767	11.03
349.977	13.87
350.188	14.7
350.398	15.92
350.608	15.49
350.819	15.52
351.029	16.91
351.239	18.11
351.449	16.47
351.66	17.77
351.87	18.96
352.08	19.39
352.29	20.13
352.501	19.58
352.711	18.4
352.921	19.2
353.131	19.44
353.341	18.39
353.552	18.6
353.762	19.36
353.972	19.83
354.182	20.55
354.392	20.46
354.602	19.66
354.812	19.5
355.022	20.66
355.232	20.87
355.442	21.16
355.652	22.08
355.862	21.86
356.072	21.61
356.282	20.4
356.492	18.41
356.702	18.35
356.912	18.11
357.122	17.92
357.332	16.72
357.542	16.29
357.752	16.53
357.962	16.56
358.171	18.29
358.381	18.12
358.591	18.84
358.801	19.46
359.011	19.27
359.221	19.21
359.43	19.98
359.64	20.68
359.85	19.8
360.06	19.36
360.269	18.97
360.479	16.84
360.689	17.67
360.899	16.81
361.108	17.81
361.318	17.62
361.528	18.44
361.737	18.1
361.947	17.23
362.156	17.08
362.366	16.92
362.576	16.92
362.785	18.6
362.995	18.47
363.204	19.35
363.414	19.07
363.623	20.27
363.833	19.25
364.042	19.11
364.252	18.88
364.461	19.28
364.671	20.05
364.88	20.16
365.09	18.9
365.299	18.08
365.509	17.42
365.718	17.04
365.927	15.13
366.137	16.03
366.346	15.78
366.555	16.24
366.765	16.27
366.974	16.22
367.183	15.75
367.393	14.68
367.602	15.47
367.811	16.11
368.021	14.98
368.23	16.11
368.439	14.42
368.648	14.1
368.857	15.48
369.067	15.29
369.276	14.67
369.485	14.92
369.694	15.87
369.903	15.63
370.112	15.53
370.321	16.2
370.531	16.05
370.74	16.4
370.949	17.32
371.158	16.77
371.367	17.19
371.576	17.41
371.785	17.63
371.994	17.03
372.203	16.83
372.412	16.83
372.621	17.46
372.83	17.49
373.039	18.4
373.248	17.03
373.457	16.63
373.666	16.3
373.874	15.58
374.083	14.85
374.292	15.61
374.501	15.36
374.71	14.72
374.919	14.59
375.128	14.32
375.336	13.36
375.545	13.49
375.754	13.5
375.963	13.2
376.171	14.15
376.38	13.93
376.589	12.61
376.798	12.9
377.006	13.54
377.215	12.9
377.424	12.67
377.632	12.06
377.841	11.77
378.05	11.64
378.258	11.71
378.467	11.72
378.675	12.23
378.884	13.12
379.093	12.64
379.301	12.03
379.51	12.29
379.718	12.25
379.927	12.99
380.135	13.93
380.344	13.97
380.552	13.88
380.761	13.66
380.969	13.4
381.177	12.83
381.386	12.75
381.594	12.34
381.803	11.66
382.011	11.11
382.219	11.27
382.428	10.9
382.636	10.86
382.845	10.89
383.053	10.27
383.261	9.91
383.469	9.81
383.678	9.52
383.886	9.85
384.094	9.92
384.302	10.58
384.511	10.71
384.719	10.8
384.927	10.72
385.135	11
385.343	11.1
385.552	11.13
385.76	11.03
385.968	11.25
386.176	11.36
386.384	11.52
386.592	10.69
386.8	10.82
387.008	10.3
387.216	9.9
387.424	9.6
387.633	9.71
387.841	9.59
388.049	9.78
388.257	10.11
388.465	10.7
388.672	10.72
388.88	10.73
389.088	9.97
389.296	9.91
389.504	10.35
389.712	10.3
389.92	10.2
390.128	10.08
390.336	9.89
390.544	9.8
390.751	9.57
390.959	9.29
391.167	9.32
391.375	9.23
391.583	9.11
391.79	8.86
391.998	9.21
392.206	9.01
392.414	9.12
392.621	9.08
392.829	8.73
393.037	8.53
393.244	8.8
393.452	8.86
393.66	9.02
393.867	9.27
394.075	9.09
394.283	8.43
394.49	8.07
394.698	8.09
394.905	8.16
395.113	8.59
395.32	8.25
395.528	8.05
395.735	8.14
395.943	8.68
396.15	8.97
396.358	8.97
396.565	8.97
396.773	9.58
396.98	9.76
397.188	10.17
397.395	10.03
397.602	10.24
397.81	10.37
398.017	9.96
398.225	9.57
398.432	8.93
398.639	8.82
398.847	8.93
399.054	8.4
399.261	8.14
399.468	7.48
399.676	6.92
399.883	7.24
400.09	7.29
400.297	7.66
400.505	7.59
400.712	8.13
400.919	8.33
401.126	8.6
401.333	9.23
401.54	9.13
401.748	9.05
401.955	9.26
402.162	8.6
402.369	8.27
402.576	8.14
402.783	8.3
402.99	8
403.197	8.06
403.404	8.1
403.611	7.79
403.818	8.03
404.025	8.02
404.232	8.42
404.439	8.7
404.646	8.84
404.853	9.09
405.06	9.02
405.267	9.11
405.474	9.12
405.681	9.11
405.887	9.01
406.094	8.85
406.301	9.32
406.508	8.88
406.715	8.76
406.922	8.61
407.128	8.32
407.335	8.42
407.542	8.41
407.749	8.24
407.955	8.26
408.162	8.14
408.369	8.19
408.575	8.29
408.782	8.4
408.989	8.77
409.195	8.9
409.402	8.88
409.609	8.8
409.815	8.53
410.022	8.96
410.228	9.12
410.435	9.03
410.642	8.84
410.848	8.31
411.055	8.41
411.261	7.95
411.468	7.89
411.674	8.2
411.881	7.91
412.087	8.15
412.294	7.9
412.5	7.39
412.706	8.08
412.913	7.93
413.119	8.26
413.326	7.93
413.532	7.82
413.738	8.17
413.945	8.16
414.151	8.24
414.357	7.97
414.564	8.28
414.77	8.43
414.976	8.04
415.182	8.58
415.389	8.34
415.595	8.45
415.801	8.56
416.007	8.3
416.214	7.84
416.42	7.79
416.626	8.28
416.832	8.15
417.038	8.12
417.244	8.26
417.45	7.8
417.657	7.89
417.863	7.87
418.069	7.97
418.275	7.95
418.481	8.09
418.687	8.11
418.893	7.92
419.099	7.69
419.305	7.72
419.511	7.52
419.717	7.87
419.923	7.94
420.129	8.1
420.335	8.03
420.541	8.03
420.746	8.01
420.952	7.93
421.158	7.89
421.364	8.01
421.57	8.05
421.776	8.17
421.982	7.99
422.187	7.91
422.393	7.89
422.599	7.99
422.805	8.23
423.01	8.35
423.216	8.48
423.422	8.54
423.628	8.33
423.833	8.4
424.039	8.29
424.245	8.29
424.45	8.19
424.656	7.94
424.862	7.79
425.067	7.54
425.273	7.53
425.478	7.47
425.684	7.42
425.889	7.57
426.095	7.52
426.301	7.43
426.506	7.34
426.712	7.51
426.917	7.8
427.123	7.85
427.328	7.82
427.533	7.62
427.739	7.79
427.944	7.72
428.15	7.7
428.355	7.35
428.561	7.72
428.766	7.94
428.971	7.99
429.177	7.98
429.382	8.16
429.587	8.21
429.793	8.24
429.998	8.03
430.203	8.1
430.408	7.84
430.614	8.11
430.819	8.08
431.024	8.07
431.229	8
431.434	7.85
431.64	7.71
431.845	7.81
432.05	7.95
432.255	7.9
432.46	7.8
432.665	7.96
432.87	8.06
433.076	7.96
433.281	7.99
433.486	7.95
433.691	7.9
433.896	7.86
434.101	7.69
434.306	7.77
434.511	7.89
434.716	7.91
434.921	7.82
435.126	7.55
435.331	7.45
435.535	7.32
435.74	7.44
435.945	7.51
436.15	7.5
436.355	7.68
436.56	7.81
436.765	7.97
436.97	8.04
437.174	8.26
437.379	8.38
437.584	8.35
437.789	8.19
437.993	8
438.198	8.06
438.403	8.27
438.608	8.21
438.812	8.18
439.017	8.12
439.222	8.11
439.426	8.08
439.631	8.01
439.836	8.1
440.04	8.2
440.245	8.28
440.45	8.26
440.654	8.03
440.859	7.99
441.063	7.81
441.268	7.61
441.472	7.62
441.677	7.56
441.881	7.45
442.086	7.4
442.29	7.51
442.495	7.44
442.699	7.4
442.904	7.59
443.108	7.66
443.312	7.35
443.517	7.45
443.721	7.3
443.925	7.32
444.13	7.56
444.334	7.41
444.538	7.4
444.743	7.39
444.947	7.47
445.151	7.2
445.356	6.97
445.56	7.17
445.764	7.16
445.968	7.2
446.173	7.31
446.377	7.27
446.581	7.27
446.785	7.35
446.989	7.38
447.193	7.2
447.398	7.24
447.602	7.39
447.806	7.4
448.01	7.34
448.214	7.28
448.418	7.15
448.622	7.23
448.826	7.32
449.03	6.96
449.234	7.01
449.438	6.88
449.642	6.96
449.846	6.9
450.05	6.82
450.254	6.83
450.458	6.94
450.662	7.11
450.866	6.89
451.069	6.93
451.273	7.15
451.477	7.03
451.681	7.41
451.885	7.45
452.089	7.56
452.292	7.68
452.496	7.74
452.7	7.79
452.904	7.68
453.107	7.71
453.311	7.77
453.515	7.74
453.719	7.69
453.922	7.59
454.126	7.67
454.33	7.82
454.533	7.63
454.737	7.81
454.94	7.79
455.144	7.62
455.348	7.66
455.551	7.31
455.755	7.56
455.958	7.73
456.162	7.79
456.365	7.64
456.569	7.57
456.772	7.86
456.976	7.67
457.179	7.54
457.383	7.68
457.586	7.61
457.79	7.93
457.993	7.54
458.196	7.3
458.4	7.19
458.603	7.24
458.807	7.13
459.01	6.97
459.213	6.95
459.417	7
459.62	6.81
459.823	6.71
460.026	6.65
460.23	6.67
460.433	6.78
460.636	6.8
460.839	6.8
461.042	6.82
461.246	6.86
461.449	6.9
461.652	6.83
461.855	6.92
462.058	7.23
462.261	7.21
462.464	7.21
462.668	7.14
462.871	7.3
463.074	7.25
463.277	7.36
463.48	7.45
463.683	7.34
463.886	7.49
464.089	7.71
464.292	7.37
464.495	7.34
464.698	7.73
464.901	8.04
465.104	7.74
465.306	7.66
465.509	7.52
465.712	7.31
465.915	7.36
466.118	7.21
466.321	6.84
466.524	7.1
466.726	7.1
466.929	7.01
467.132	6.68
467.335	6.63
467.538	6.58
467.74	6.56
467.943	6.65
468.146	6.62
468.348	6.71
468.551	6.94
468.754	6.75
468.956	6.53
469.159	6.32
469.362	6.59
469.564	6.87
469.767	6.9
469.969	6.86
470.172	6.72
470.375	6.73
470.577	6.65
470.78	6.68
470.982	6.88
471.185	7.2
471.387	7.29
471.59	7.14
471.792	7.06
471.995	7.26
472.197	7.32
472.399	7.28
472.602	7.35
472.804	7.48
473.007	7.52
473.209	7.4
473.411	7.21
473.614	7.22
473.816	7.14
474.018	7
474.22	7.06
474.423	6.96
474.625	7.05
474.827	7.07
475.03	6.97
475.232	6.77
475.434	6.78
475.636	7.04
475.838	7.11
476.04	7.29
476.243	7.35
476.445	7.23
476.647	7.28
476.849	7.31
477.051	7.02
477.253	6.86
477.455	7.03
477.657	6.99
477.859	6.78
478.061	6.69
478.263	6.41
478.465	6.31
478.667	6.25
478.869	6.35
479.071	6.33
479.273	6.69
479.475	6.73
479.677	6.75
479.879	6.68
480.081	6.74
480.283	6.65
480.485	6.7
480.686	6.92
480.888	6.85
481.09	6.78
481.292	6.82
481.494	6.73
481.695	6.82
481.897	6.79
482.099	6.88
482.301	6.89
482.502	6.96
482.704	7.02
482.906	7
483.107	7.02
483.309	6.93
483.511	6.86
483.712	6.83
483.914	6.85
484.115	6.84
484.317	6.89
484.519	6.92
484.72	6.93
484.922	6.93
485.123	6.92
485.325	6.93
485.526	6.96
485.728	7.1
485.929	7.18
486.131	7.22
486.332	7.29
486.534	7.27
486.735	7.31
486.936	7.29
487.138	7.32
487.339	7.3
487.541	7.32
487.742	7.44
487.943	7.36
488.144	7.3
488.346	7.26
488.547	7.23
488.748	7.19
488.95	7.08
489.151	7.09
489.352	7.21
489.553	7.13
489.755	7.03
489.956	6.92
490.157	6.96
490.358	7.01
490.559	7.06
490.76	7.01
490.961	7.03
491.163	7.1
491.364	7.09
491.565	6.99
491.766	7.12
491.967	7.17
492.168	7.21
492.369	7.19
492.57	7.21
492.771	7.2
492.972	7.28
493.173	7.3
493.374	7.31
493.575	7.29
493.776	7.26
493.976	7.25
494.177	7.27
494.378	7.2
494.579	7.14
494.78	7.1
494.981	7
495.182	6.9
495.382	6.86
495.583	6.76
495.784	6.79
495.985	6.76
496.185	6.87
496.386	6.96
496.587	7.06
496.788	7.15
496.988	7.08
497.189	7.16
497.39	7.22
497.59	7.2
497.791	7.32
497.992	7.32
498.192	7.4
498.393	7.4
498.593	7.43
498.794	7.53
498.994	7.46
499.195	7.69
499.395	7.85
499.596	7.8
499.796	7.8
499.997	7.84
500.197	7.89
500.398	7.84
500.598	7.71
500.799	7.68
500.999	7.53
501.199	7.56
501.4	7.53
501.6	7.3
501.801	7.22
502.001	7.28
502.201	7.19
502.402	7.12
502.602	7.16
502.802	7.17
503.002	7.06
503.203	7.03
503.403	7
503.603	6.89
503.803	6.91
504.003	6.98
504.204	7.03
504.404	7.2
504.604	7.28
504.804	7.23
505.004	7.22
505.204	7.36
505.404	7.45
505.604	7.54
505.804	7.54
506.005	7.6
506.205	7.74
506.405	7.71
506.605	7.68
506.805	7.67
507.005	7.67
507.204	7.65
507.404	7.58
507.604	7.48
507.804	7.45
508.004	7.44
508.204	7.4
508.404	7.36
508.604	7.4
508.804	7.31
509.003	7.35
509.203	7.41
509.403	7.51
509.603	7.45
509.803	7.47
510.002	7.43
510.202	7.4
510.402	7.51
510.602	7.37
510.801	7.59
511.001	7.69
511.201	7.7
511.4	7.64
511.6	7.6
511.8	7.8
511.999	7.88
512.199	7.92
512.398	7.96
512.598	7.87
512.797	8.07
512.997	7.85
513.197	7.78
513.396	7.86
513.596	8.07
513.795	8.1
513.994	7.98
514.194	8.09
514.393	8.08
514.593	7.99
514.792	8.21
514.992	8.11
515.191	8.18
515.39	8.37
515.59	8.31
515.789	8.1
515.988	8.35
516.188	8.45
516.387	8.26
516.586	8.33
516.786	8.58
516.985	8.41
517.184	8.42
517.383	8.43
517.582	8.33
517.782	8.33
517.981	8.33
518.18	8.2
518.379	8.1
518.578	8.07
518.777	8.08
518.976	8.11
519.176	8.06
519.375	8.07
519.574	8.03
519.773	8.08
519.972	8.18
520.171	8.12
520.37	8.11
520.569	8.23
520.768	8.43
520.967	8.47
521.166	8.21
521.365	8.31
521.564	8.44
521.762	8.44
521.961	8.38
522.16	8.28
522.359	8.41
522.558	8.42
522.757	8.54
522.956	8.52
523.154	8.44
523.353	8.64
523.552	8.69
523.751	8.56
523.949	8.6
524.148	8.6
524.347	8.61
524.546	8.65
524.744	8.74
524.943	8.73
525.142	8.76
525.34	8.81
525.539	8.88
525.737	8.96
525.936	8.98
526.135	9.04
526.333	9.04
526.532	9.1
526.73	9.12
526.929	9.09
527.127	8.95
527.326	8.93
527.524	8.99
527.723	8.96
527.921	8.97
528.12	9.03
528.318	9.03
528.516	9.06
528.715	9.07
528.913	9.04
529.112	9.04
529.31	9.11
529.508	9.14
529.707	9.09
529.905	9.11
530.103	9.11
530.301	9.07
530.5	9.03
530.698	9.05
530.896	8.94
531.094	9.02
531.293	9.03
531.491	9.06
531.689	9
531.887	9.22
532.085	9.22
532.283	9.26
532.481	9.32
532.68	9.31
532.878	9.41
533.076	9.5
533.274	9.42
533.472	9.45
533.67	9.56
533.868	9.63
534.066	9.52
534.264	9.59
534.462	9.51
534.66	9.54
534.858	9.74
535.056	9.64
535.253	9.65
535.451	9.75
535.649	9.83
535.847	9.75
536.045	9.73
536.243	9.77
536.441	9.82
536.638	9.9
536.836	9.93
537.034	9.86
537.232	9.86
537.43	9.91
537.627	9.98
537.825	9.81
538.023	9.79
538.22	9.88
538.418	9.92
538.616	9.88
538.813	9.94
539.011	10.04
539.209	10
539.406	10.27
539.604	10.23
539.801	10.32
539.999	10.57
540.196	10.78
540.394	10.79
540.591	10.8
540.789	10.89
540.986	11.05
541.184	11.07
541.381	11.19
541.579	11.15
541.776	11.19
541.974	11.18
542.171	11.14
542.368	11.12
542.566	11.19
542.763	11.23
542.96	11.21
543.158	11.19
543.355	11.17
543.552	11.14
543.75	11.3
543.947	11.54
544.144	11.57
544.341	11.66
544.539	11.71
544.736	11.82
544.933	11.86
545.13	11.9
545.327	11.84
545.524	11.89
545.722	12.06
545.919	11.96
546.116	11.89
546.313	11.97
546.51	12
546.707	11.89
546.904	11.74
547.101	11.9
547.298	11.93
547.495	12.03
547.692	12.13
547.889	12.03
548.086	12
548.283	12.07
548.48	12.3
548.677	12.32
548.874	12.49
549.07	12.61
549.267	12.73
549.464	12.99
549.661	13.25
549.858	13.35
550.055	13.55
550.251	13.61
550.448	13.52
550.645	13.43
550.842	13.59
551.038	13.79
551.235	13.9
551.432	13.86
551.628	13.82
551.825	13.5
552.022	13.53
552.218	13.58
552.415	13.84
552.612	14
552.808	13.91
553.005	13.99
553.201	13.9
553.398	13.92
553.594	14.03
553.791	14.02
553.987	14.11
554.184	14.15
554.38	14.23
554.577	14.19
554.773	14.24
554.97	14.38
555.166	14.3
555.362	14.49
555.559	14.74
555.755	14.72
555.952	14.92
556.148	15.03
556.344	15.3
556.541	15.3
556.737	15.54
556.933	15.69
557.129	15.82
557.326	15.98
557.522	16.06
557.718	15.98
557.914	16.2
558.11	16.15
558.307	16.24
558.503	16.19
558.699	16.2
558.895	16.16
559.091	16.17
559.287	16.27
559.483	16.44
559.679	16.41
559.876	16.46
560.072	16.31
560.268	16.17
560.464	16.44
560.66	16.55
560.856	16.78
561.052	16.79
561.247	16.83
561.443	17.15
561.639	17.21
561.835	17.48
562.031	17.47
562.227	17.85
562.423	17.99
562.619	18.02
562.815	18.02
563.01	17.96
563.206	18.39
563.402	18.43
563.598	18.18
563.793	18.06
563.989	17.91
564.185	17.91
564.381	17.81
564.576	18.08
564.772	18
564.968	18.21
565.163	18.33
565.359	18
565.555	18.04
565.75	18.2
565.946	18.38
566.141	18.6
566.337	18.93
566.532	19.04
566.728	18.96
566.923	18.95
567.119	18.88
567.314	18.92
567.51	19.14
567.705	19.28
567.901	19.41
568.096	19.31
568.292	19.35
568.487	19.21
568.682	19.09
568.878	19.27
569.073	19.47
569.268	19.46
569.464	19.49
569.659	19.61
569.854	19.84
570.05	19.64
570.245	20.22
570.44	20.1
570.635	20.44
570.831	20.77
571.026	20.98
571.221	21.2
571.416	21.34
571.611	21.37
571.806	21.38
572.002	21.23
572.197	21.45
572.392	21.33
572.587	21.37
572.782	21.29
572.977	21.22
573.172	20.99
573.367	20.71
573.562	20.89
573.757	21.05
573.952	20.98
574.147	21.25
574.342	21.26
574.537	21.11
574.732	21.23
574.927	21.35
575.121	21.36
575.316	21.25
575.511	21.61
575.706	21.57
575.901	21.37
576.096	21.64
576.29	21.66
576.485	21.85
576.68	22.13
576.875	22.32
577.069	22.49
577.264	22.68
577.459	23.16
577.654	23.15
577.848	23.01
578.043	23.33
578.238	23.23
578.432	23.11
578.627	22.98
578.821	22.88
579.016	23.02
579.21	22.91
579.405	22.54
579.6	22.57
579.794	22.65
579.989	22.66
580.183	22.57
580.378	22.45
580.572	22.62
580.766	22.64
580.961	22.83
581.155	22.42
581.35	22.13
581.544	22.44
581.738	22.21
581.933	22.2
582.127	22.29
582.321	22.48
582.516	22.47
582.71	22.26
582.904	22.25
583.099	22.14
583.293	22.39
583.487	22.54
583.681	22.24
583.875	22.48
584.07	22.29
584.264	22.47
584.458	22.28
584.652	22.43
584.846	22.72
585.04	22.63
585.234	22.77
585.428	22.89
585.623	22.96
585.817	23.35
586.011	23.12
586.205	23.54
586.399	23.69
586.593	23.59
586.787	23.98
586.981	23.89
587.174	24.28
587.368	24.24
587.562	24.15
587.756	24.33
587.95	24.36
588.144	24.71
588.338	24.4
588.532	24.5
588.725	24.88
588.919	24.79
589.113	24.85
589.307	24.56
589.501	24.68
589.694	24.71
589.888	24.67
590.082	24.82
590.275	24.79
590.469	25.02
590.663	24.7
590.856	24.83
591.05	24.68
591.244	24.81
591.437	24.88
591.631	24.73
591.824	24.84
592.018	24.75
592.212	24.72
592.405	24.74
592.599	24.64
592.792	24.83
592.986	24.36
593.179	24.1
593.372	23.97
593.566	23.59
593.759	23.56
593.953	23.51
594.146	23.79
594.339	23.66
594.533	23.64
594.726	23.45
594.92	23.58
595.113	23.73
595.306	23.93
595.499	24.24
595.693	24.81
595.886	24.68
596.079	24.61
596.272	24.75
596.466	24.96
596.659	25.08
596.852	25.19
597.045	25.33
597.238	25.38
597.431	25.59
597.624	25.2
597.818	24.94
598.011	25.25
598.204	25.37
598.397	25.31
598.59	25.39
598.783	25.29
598.976	25.35
599.169	25.3
599.362	25.51
599.555	25.44
599.748	25.41
599.941	25.81
600.134	25.81
600.326	25.73
600.519	25.7
600.712	25.4
600.905	25.63
601.098	25.77
601.291	25.56
601.483	25.78
601.676	25.73
601.869	25.89
602.062	25.95
602.255	26.05
602.447	26.3
602.64	26.26
602.833	26.51
603.025	26.36
603.218	26.39
603.411	26.58
603.603	26.36
603.796	26.37
603.989	26.36
604.181	26.23
604.374	26.11
604.566	25.99
604.759	26.08
604.951	25.85
605.144	25.6
605.336	25.49
605.529	25.16
605.721	25.08
605.914	24.93
606.106	24.91
606.299	24.84
606.491	24.8
606.683	24.94
606.876	24.89
607.068	24.79
607.26	25.2
607.453	25.2
607.645	25.43
607.837	25.38
608.03	25.57
608.222	25.96
608.414	25.86
608.606	25.93
608.799	25.82
608.991	25.95
609.183	26.28
609.375	26
609.567	25.91
609.759	25.94
609.952	25.82
610.144	25.85
610.336	25.49
610.528	25.53
610.72	25.38
610.912	25.19
611.104	24.83
611.296	24.66
611.488	24.66
611.68	24.79
611.872	24.86
612.064	25.05
612.256	24.94
612.448	24.88
612.64	25.14
612.832	25.1
613.023	25.26
613.215	25.45
613.407	25.55
613.599	25.65
613.791	25.6
613.983	25.05
614.174	24.91
614.366	24.75
614.558	24.93
614.75	25.1
614.941	25.05
615.133	24.96
615.325	24.81
615.516	24.68
615.708	24.75
615.9	24.68
616.091	25.15
616.283	25.19
616.475	25.73
616.666	25.81
616.858	25.28
617.049	25.43
617.241	25.44
617.432	25.38
617.624	25.48
617.815	25.62
618.007	25.69
618.198	25.72
618.39	26.03
618.581	25.71
618.773	26.05
618.964	26.43
619.155	26.68
619.347	26.76
619.538	27
619.729	26.73
619.921	26.92
620.112	27.32
620.303	27.19
620.494	27.05
620.686	27.14
620.877	26.83
621.068	26.59
621.259	26.55
621.451	26.62
621.642	26.6
621.833	26.28
622.024	25.95
622.215	25.94
622.406	25.88
622.597	25.9
622.788	25.83
622.98	25.74
623.171	25.65
623.362	25.72
623.553	25.82
623.744	25.65
623.935	26.05
624.126	26.47
624.317	26.26
624.508	26.22
624.698	26
624.889	26.01
625.08	26.09
625.271	26.21
625.462	25.98
625.653	26.2
625.844	26.42
626.034	26.47
626.225	26.29
626.416	26.35
626.607	26.7
626.798	26.95
626.988	27.07
627.179	26.9
627.37	26.78
627.56	26.87
627.751	26.8
627.942	26.94
628.132	27.13
628.323	27.18
628.514	27.04
628.704	26.72
628.895	26.54
629.085	26.21
629.276	26.27
629.466	26.12
629.657	26.08
629.847	26.25
630.038	25.94
630.228	25.85
630.419	25.87
630.609	26.13
630.8	26.04
630.99	25.95
631.181	26.03
631.371	26.5
631.561	26.56
631.752	26.57
631.942	26.03
632.132	26.15
632.323	26.08
632.513	25.87
632.703	25.72
632.893	25.79
633.084	25.64
633.274	26.14
633.464	25.73
633.654	26.1
633.844	26.1
634.034	26.44
634.225	26.16
634.415	26.18
634.605	25.84
634.795	25.88
634.985	25.97
635.175	26.16
635.365	25.72
635.555	25.84
635.745	25.73
635.935	25.84
636.125	25.66
636.315	25.95
636.505	25.82
636.695	26.26
636.885	26.22
637.075	26.5
637.265	27
637.455	26.77
637.644	26.97
637.834	27.1
638.024	27.12
638.214	27.3
638.404	27.31
638.593	27.57
638.783	27.46
638.973	27.33
639.163	26.97
639.352	26.76
639.542	26.97
639.732	26.6
639.921	26.93
640.111	27.09
640.301	26.97
640.49	27.41
640.68	26.98
640.87	26.8
641.059	26.8
641.249	27.13
641.438	26.85
641.628	26.88
641.817	26.96
642.007	26.26
642.196	25.97
642.386	25.25
642.575	24.96
642.764	25.25
642.954	25.55
643.143	25.86
643.333	26.15
643.522	26.68
643.711	26.59
643.901	26.57
644.09	26.57
644.279	26.91
644.469	27.19
644.658	26.89
644.847	26.96
645.036	26.97
645.226	26.69
645.415	25.93
645.604	25.78
645.793	26
645.982	26.33
646.171	26.78
646.361	26.7
646.55	26.89
646.739	27.1
646.928	26.96
647.117	26.85
647.306	27.12
647.495	27.18
647.684	27.21
647.873	26.88
648.062	26.76
648.251	26.73
648.44	26.36
648.629	26.36
648.818	25.59
649.007	25.65
649.196	25.94
649.384	25.97
649.573	26.33
649.762	26.08
649.951	26.65
650.14	26.41
650.328	25.98
650.517	26.52
650.706	26.68
650.895	27.67
651.083	27.93
651.272	27.56
651.461	27.09
651.65	27.26
651.838	27.33
652.027	27.16
652.216	27.38
652.404	27.5
652.593	27.14
652.781	27.38
652.97	26.9
653.158	26.8
653.347	27.15
653.535	27.43
653.724	27.3
653.912	27.7
654.101	27.9
654.289	28.02
654.478	28.07
654.666	28.15
654.855	27.75
655.043	27.93
655.231	27.74
655.42	27.88
655.608	27.92
655.796	27.77
655.985	27.3
656.173	27.17
656.361	26.54
656.55	26.68
656.738	26.78
656.926	27.09
657.114	26.96
657.302	27.26
657.491	26.84
657.679	26.99
657.867	26.93
658.055	27.09
658.243	26.97
658.431	27.17
658.619	27.16
658.807	27.06
658.996	26.74
659.184	26.87
659.372	26.48
659.56	26.7
659.748	26.4
659.936	26.76
660.124	26.19
660.311	25.97
660.499	26.58
660.687	26.37
660.875	26.44
661.063	26.51
661.251	26.67
661.439	26.97
661.627	26.79
661.814	26.82
662.002	26.57
662.19	27.31
662.378	27.32
662.565	26.74
662.753	26.58
662.941	26.62
663.129	26.76
663.316	26.23
663.504	25.76
663.692	25.88
663.879	26.03
664.067	26.02
664.254	25.71
664.442	26.49
664.63	26.76
664.817	26.78
665.005	26.94
665.192	27.21
665.38	26.99
665.567	27.51
665.755	27.83
665.942	27.82
666.13	27.64
666.317	27.99
666.504	27.45
666.692	27.4
666.879	28.31
667.067	27.39
667.254	26.88
667.441	27.49
667.629	27.37
667.816	27.5
668.003	27.45
668.19	27.41
668.378	27.74
668.565	27.84
668.752	27.31
668.939	26.55
669.127	26.57
669.314	26.74
669.501	26.72
669.688	26.56
669.875	26.55
670.062	26.79
670.249	26.86
670.436	25.53
670.623	25.55
670.81	25.96
670.997	26.26
671.184	27.44
671.371	27.71
671.558	27.66
671.745	27.66
671.932	27.18
672.119	27.22
672.306	27.35
672.493	28.08
672.68	27.93
672.867	27.8
673.054	27.89
673.24	26.57
673.427	26.44
673.614	26.8
673.801	26.66
673.988	26.64
674.174	26.52
674.361	26.25
674.548	27
674.734	27.12
674.921	27.15
675.108	27.7
675.294	28.79
675.481	28.4
675.668	27.56
675.854	27.96
676.041	27.6
676.227	27.22
676.414	27.38
676.601	26.47
676.787	25.89
676.974	25.59
677.16	24.61
677.347	24.28
677.533	24.69
677.719	24.95
677.906	24.95
678.092	25.41
678.279	26.19
678.465	25.95
678.651	26.34
678.838	27.07
679.024	27.36
679.21	27.79
679.397	28
679.583	28.2
679.769	27.86
679.955	27.81
680.142	28.03
680.328	27.9
680.514	28.61
680.7	28.42
680.886	28.34
681.073	28.59
681.259	28.28
681.445	28.15
681.631	27.33
681.817	27.81
682.003	27.86
682.189	27.45
682.375	27.45
682.561	27.42
682.747	27.59
682.933	27.69
683.119	27.57
683.305	27.77
683.491	27.89
683.677	28.7
683.863	29.19
684.049	29.25
684.235	29.3
684.42	29.04
684.606	28.03
684.792	28.51
684.978	28.3
685.164	28.35
685.349	28.63
685.535	28.55
685.721	28.44
685.907	27.53
686.092	27.72
686.278	27.76
686.464	27.39
686.649	27.4
686.835	26.83
687.021	26.57
687.206	26.43
687.392	26.18
687.577	25.95
687.763	25.49
687.948	26.12
688.134	25.82
688.319	26.02
688.505	26.12
688.69	26.49
688.876	26.07
689.061	26.22
689.247	26.35
689.432	26.21
689.618	26.43
689.803	27.25
689.988	26.71
690.174	26.89
690.359	27.33
690.544	27.5
690.73	27.39
690.915	27.85
691.1	28.68
691.285	28.55
691.471	28.32
691.656	28.18
691.841	28.27
692.026	28.42
692.211	28.26
692.396	27.24
692.582	27.64
692.767	27.68
692.952	28
693.137	27.29
693.322	27.29
693.507	27.3
693.692	27.51
693.877	26.74
694.062	27.23
694.247	27.4
694.432	27.77
694.617	27.85
694.802	28.27
694.987	28.6
695.172	28.51
695.357	28.51
695.541	28.92
695.726	28.67
695.911	28.72
696.096	28.65
696.281	28.69
696.466	28.59
696.65	28.36
696.835	28.58
697.02	28.02
697.204	28.16
697.389	28.16
697.574	28.16
697.759	28.02
697.943	28.02
698.128	27.97
698.312	27.88
698.497	28.36
698.682	28.21
698.866	28.11
699.051	27.8
699.235	27.64
699.42	27.44
699.604	27.62
699.789	27.65
699.973	27.67
700.158	27.57
700.342	27.88
700.527	27.41
700.711	27.22
700.895	26.99
701.08	27.8
701.264	27.67
701.448	27.7
701.633	27.53
701.817	27.69
702.001	27.75
702.186	27.55
702.37	26.82
702.554	27.07
702.738	27.37
702.923	28.16
703.107	27.67
703.291	28.51
703.475	28.7
703.659	28.32
703.843	28.65
704.027	28.84
704.212	28.07
704.396	28.62
704.58	28.56
704.764	27.61
704.948	26.99
705.132	26.72
705.316	26.09
705.5	26.46
705.684	26.84
705.868	25.92
706.052	25.54
706.235	26.69
706.419	25.38
706.603	26.53
706.787	27.43
706.971	27.99
707.155	27.41
707.339	27.05
707.522	26.96
707.706	27.23
707.89	27.36
708.074	27.68
708.257	27.98
708.441	28.86
708.625	27.38
708.808	27.07
708.992	25.62
709.176	25.44
709.359	26.03
709.543	25.52
709.727	25.71
709.91	25.69
710.094	26.51
710.277	25.58
710.461	26.05
710.644	26
710.828	25.83
711.011	26.49
711.195	26.55
711.378	26.69
711.562	27
711.745	27.21
711.928	27.19
712.112	26.53
712.295	26.86
712.478	27.57
712.662	28.19
712.845	29.14
713.028	29.19
713.212	29.69
713.395	29.88
713.578	29.94
713.761	28.89
713.945	29.33
714.128	28.59
714.311	28.37
714.494	27.26
714.677	26.5
714.86	25.85
715.043	26.17
715.227	26.85
715.41	26.48
715.593	26.76
715.776	27.23
715.959	27.57
716.142	28.02
716.325	28.83
716.508	29.77
716.691	30.72
716.874	30.62
717.057	29.54
717.239	29.79
717.422	29.78
717.605	29.74
717.788	29.82
717.971	29.67
718.154	28.94
718.337	29.01
718.519	27.37
718.702	25.93
718.885	25.94
719.068	26.44
719.25	25.44
719.433	25.19
719.616	24.71
719.798	24.8
719.981	25.32
720.164	26.53
720.346	26.45
720.529	26.37
720.712	27.14
720.894	28.43
721.077	27.95
721.259	27.91
721.442	27.73
721.624	27.99
721.807	27.45
721.989	26
722.172	26.8
722.354	26.33
722.537	26.34
722.719	27.24
722.901	25.58
723.084	26.56
723.266	27.19
723.448	27.24
723.631	27.07
723.813	27.24
723.995	27.73
724.178	26.31
724.36	25.69
724.542	26.29
724.724	25.36
724.907	26.64
725.089	26.92
725.271	26.72
725.453	26.92
725.635	27.29
725.817	26.9
725.999	26.63
726.181	27.08
726.364	27.58
726.546	27.06
726.728	27.41
726.91	26.95
727.092	27.79
727.274	27.8
727.456	27.56
727.638	26.92
727.819	28.15
728.001	27.57
728.183	26.86
728.365	26.54
728.547	26.9
728.729	26.72
728.911	26.3
729.093	24.71
729.274	24.54
729.456	25.16
729.638	25.18
729.82	24.85
730.001	25.28
730.183	25.65
730.365	26.24
730.546	25.71
730.728	25.77
730.91	26.59
731.091	27.2
731.273	27.62
731.455	28.14
731.636	28.52
731.818	28.22
731.999	28.28
732.181	28.2
732.362	28.54
732.544	28.1
732.725	27.76
732.907	27.9
733.088	28.13
733.27	28.38
733.451	27.51
733.633	28.5
733.814	29.68
733.995	30.29
734.177	30.45
734.358	29.39
734.539	31.59
734.721	31.27
734.902	30.51
735.083	30.28
735.264	30.41
735.446	31.16
735.627	30.02
735.808	28.69
735.989	27.56
736.17	29.08
736.351	29.35
736.533	28.75
736.714	31.23
736.895	31.84
737.076	31.18
737.257	31.29
737.438	30.25
737.619	30.78
737.8	30.63
737.981	32.24
738.162	30.2
738.343	30.31
738.524	28.12
738.705	27.84
738.886	28.05
739.067	28.78
739.247	28.21
739.428	28.06
739.609	28.33
739.79	27.84
739.971	27.56
740.151	28.62
740.332	29.95
740.513	31.34
740.694	30.88
740.874	30.26
741.055	29.83
741.236	30.29
741.417	31.32
741.597	30.63
741.778	31.21
741.958	30.4
742.139	29.37
742.32	28.27
742.5	28.6
742.681	27.69
742.861	29.05
743.042	28.86
743.222	27.68
743.403	26.69
743.583	26.19
743.764	26.62
743.944	26.36
744.124	27.68
744.305	27.31
744.485	28.72
744.666	29.22
744.846	26.83
745.026	28.39
745.207	29.18
745.387	30.12
745.567	31.17
745.747	30.93
745.928	31.39
746.108	30.39
746.288	31.4
746.468	30.34
746.648	29.44
746.829	30.23
747.009	29.57
747.189	28.45
747.369	28.57
747.549	28.65
747.729	26.87
747.909	26.18
748.089	27.25
748.269	26.62
748.449	27.8
748.629	28.69
748.809	28.11
748.989	27
749.169	27.25
749.349	26.81
749.529	26.81
749.709	29.11
749.889	29.11
750.068	27.84
750.248	27.47
750.428	25.44
750.608	24.93
750.788	27.06
750.967	28.12
751.147	28.64
751.327	28.88
751.507	28.73
751.686	29.6
751.866	30.65
752.046	31.4
752.225	32.66
752.405	33.14
752.585	33.87
752.764	32.96
752.944	32.27
753.123	32.42
753.303	32.53
753.482	31.89
753.662	30.36
753.841	29.69
754.021	30.53
754.2	29.1
754.38	29.67
754.559	29.42
754.739	29.78
754.918	29.69
755.097	30.93
755.277	30.18
755.456	30.35
755.635	31.77
755.815	33.93
755.994	34.29
756.173	35.07
756.352	34.85
756.532	34.31
756.711	33.7
756.89	33.97
757.069	30.56
757.248	30.74
757.427	32.09
757.607	31.24
757.786	29.38
757.965	28.05
758.144	27.16
758.323	25.57
758.502	25.68
758.681	24.76
758.86	23.85
759.039	26
759.218	25.39
759.397	25.6
759.576	24.39
759.755	24.58
759.934	25.28
760.113	26.32
760.291	25.9
760.47	26.07
760.649	26.94
760.828	28.39
761.007	28.68
761.186	30.38
761.364	28.67
761.543	30.44
761.722	30.87
761.901	29.54
762.079	29.34
762.258	30.38
762.437	29.79
762.615	30.45
762.794	29.71
762.972	28.91
763.151	28
763.33	28.57
763.508	27.6
763.687	26.98
763.865	27.67
764.044	26.66
764.222	27.06
764.401	26.69
764.579	26.3
764.758	27.1
764.936	26.84
765.114	27.82
765.293	27.27
765.471	27.47
765.65	27.97
765.828	26.6
766.006	28.33
766.184	28.87
766.363	29.95
766.541	29.77
766.719	28
766.898	28.98
767.076	27.48
767.254	28.93
767.432	29.09
767.61	27.2
767.788	29.11
767.967	28.55
768.145	26.3
768.323	25.25
768.501	26.04
768.679	27.32
768.857	26.4
769.035	27.2
769.213	24.45
769.391	23.42
769.569	25.05
769.747	23.1
769.925	21.39
770.103	22.61
770.281	24.69
770.459	27.05
770.636	28.23
770.814	28.94
770.992	28.85
771.17	31.59
771.348	31.52
771.525	33.39
771.703	34.6
771.881	36.58
772.059	37.07
772.236	34.91
772.414	28.06
772.592	26.42
772.769	27.08
772.947	28.28
773.125	28.66
773.302	29.31
773.48	28.67
773.657	27.81
773.835	26.71
774.013	26.47
774.19	27.41
774.368	31.89
774.545	34.99
774.723	33.14
774.9	32.01
775.077	30.02
775.255	27.97
775.432	28.83
775.61	29.6
775.787	29.05
775.964	29.19
776.142	31.06
776.319	28.78
776.496	26.82
776.674	30.09
776.851	29.63
777.028	29.99
777.205	31.71
777.382	31.5
777.56	30.1
777.737	32.9
777.914	31.34
778.091	31.27
778.268	30.79
778.445	33.14
778.622	32.04
778.8	28.92
778.977	27.21
779.154	28.72
779.331	25.37
779.508	26.94
779.685	22.85
779.862	19.93
780.038	16.56
780.215	22.94
780.392	16.13
780.569	15.71
780.746	16.67
780.923	19.46
781.1	20.27
781.277	21.59
781.453	23.05
781.63	24.77
781.807	29.94
781.984	30.29
782.16	25.95
782.337	30.72
782.514	30.03
782.691	33.46
782.867	31.31
783.044	31.12
783.221	32.41
783.397	31.27
783.574	34.68
783.75	31.55
783.927	34.81
784.103	33.9
784.28	29.76
784.456	28.15
784.633	25.44
784.809	27.43
784.986	24.91
785.162	21.47
785.339	20.5
785.515	20.06
785.692	22.08
785.868	18.91
786.044	21.83
786.221	25.31
786.397	27
786.573	30.62
786.749	28.22
786.926	32.72
787.102	33.97
787.278	34.38
787.454	33.53
787.631	31.33
787.807	30.35
787.983	29.74
788.159	28.98
788.335	29.45
788.511	28.5
788.687	30.13
788.863	28.52
789.039	30
789.216	30.34
789.392	27.71
789.568	30.16
789.744	33.76
789.919	34.48
790.095	33.69
790.271	33.43
790.447	31.25
790.623	29.38
790.799	27.24
790.975	27.65
791.151	28.58
791.327	29.58
791.502	30.1
791.678	29.45
791.854	27.24
792.03	28.51
792.205	29.43
792.381	30.92
792.557	32.7
792.733	33.17
792.908	33.41
793.084	31.84
793.259	35.51
793.435	38.58
793.611	39.26
793.786	39.13
793.962	40.83
794.137	42.51
794.313	41.65
794.488	43.27
794.664	42.75
794.839	44.08
795.015	47.05
795.19	43.14
795.366	39.09
795.541	37.24
795.716	36.06
795.892	34.02
796.067	30.49
796.242	33.81
796.418	32.71
796.593	34.64
796.768	33.89
796.944	30.66
797.119	30.2
797.294	29.31
797.469	32.07
797.644	36.61
797.82	37.45
797.995	36.9
798.17	34.7
798.345	33.47
798.52	29.83
798.695	27.97
798.87	29.24
799.045	32.12
799.22	36.15
799.395	35.19
799.57	33.76
799.745	35.71
799.92	40.46
800.095	38.06
800.27	36.34
800.445	40.85
800.62	44.07
800.795	44.61
800.97	46.55
801.145	46.12
801.319	45.45
801.494	47.23
801.669	47.93
801.844	47.25
802.018	52.08
802.193	51.11
802.368	45.74
802.543	42
802.717	41.96
802.892	37.26
803.067	36.91
803.241	39.42
803.416	37.61
803.59	34.03
803.765	33.33
803.94	33.87
804.114	34.93
804.289	35.37
804.463	38.69
804.638	38.31
804.812	44.46
804.986	45.43
805.161	40.82
805.335	37.48
805.51	38.52
805.684	37.75
805.858	36.9
806.033	33.46
806.207	35.88
806.381	32.3
806.556	32.93
806.73	27.67
806.904	23.13
807.078	24.05
807.253	28.11
807.427	23.79
807.601	24.32
807.775	22.64
807.949	23.82
808.123	28.58
808.298	31.68
808.472	31.86
808.646	30.95
808.82	29.91
808.994	31.55
809.168	30.62
809.342	30.5
809.516	31.46
809.69	32.83
809.864	37.85
810.038	32.01
810.212	30.4
810.385	32.28
810.559	37.57
810.733	40.01
810.907	42.46
811.081	42.25
811.255	46.09
811.428	46.46
811.602	48.72
811.776	45.28
811.95	48.41
812.123	44.48
812.297	36.44
812.471	29.24
812.644	35.81
812.818	35.09
812.992	33.58
813.165	34.8
813.339	30.6
813.512	23.31
813.686	27.19
813.86	27.72
814.033	34.37
814.207	37.15
814.38	43.46
814.554	38.21
814.727	34.84
814.9	31.12
815.074	30.45
815.247	32.74
815.421	36.01
815.594	36.85
815.767	35.43
815.941	33.78
816.114	35.7
816.287	34.5
816.46	35.44
816.634	40.45
816.807	44.45
816.98	50.61
817.153	50.92
817.327	51.78
817.5	50.94
817.673	52.34
817.846	53.47
818.019	54.78
818.192	50.48
818.365	52.05
818.538	47.86
818.711	44.58
818.884	42.15
819.057	39.44
819.23	36.91
819.403	34.54
819.576	32.04
819.749	33.29
819.922	32.03
820.095	35.39
820.268	27.7
820.441	29.91
820.614	33.15
820.786	27.89
820.959	29.54
821.132	30.14
821.305	31.55
821.477	32.63
821.65	32.39
821.823	31.2
821.996	29.16
822.168	31.03
822.341	30.34
822.514	30.57
822.686	31.35
822.859	30.42
823.031	30.52
823.204	30.25
823.376	29.74
823.549	29.02
823.722	29.29
823.894	30.19
824.067	29.94
824.239	30.89
824.411	30.2
824.584	30.47
824.756	30.8
824.929	29.62
825.101	29.63
825.273	27.97
825.446	28.32
825.618	29.27
825.79	28.16
825.963	27.7
826.135	25.13
826.307	25.86
826.479	25.13
826.652	25.65
826.824	26.88
826.996	28.21
827.168	30.2
827.34	30.82
827.512	28.41
827.684	29.89
827.856	29.81
828.029	31.55
828.201	30.9
828.373	28.89
828.545	28.11
828.717	26.16
828.889	22.53
829.061	22.75
829.232	20.56
829.404	21.07
829.576	17.43
829.748	17.25
829.92	17.43
830.092	18.34
830.264	21.3
830.436	22.78
830.607	26.34
830.779	29.56
830.951	27.09
831.123	25.32
831.294	25.65
831.466	27.93
831.638	29.33
831.809	30.51
831.981	25.61
832.153	23.79
832.324	21
832.496	22.21
832.667	17.27
832.839	19.71
833.011	30.3
833.182	34.71
833.354	31.95
833.525	29.81
833.697	27.12
833.868	28.26
834.039	26.8
834.211	27.53
834.382	28.42
834.554	30.89
834.725	30.07
834.896	26.57
835.068	25.23
835.239	29.51
835.41	30.29
835.581	32.84
835.753	34.14
835.924	36.24
836.095	35.43
836.266	36.81
836.438	33.27
836.609	34.46
836.78	36.34
836.951	34.45
837.122	29.85
837.293	26.42
837.464	19.04
837.635	15.71
837.806	16.33
837.977	19.85
838.148	12.08
838.319	24.65
838.49	23.92
838.661	21.96
838.832	18.22
839.003	18.83
839.174	22.52
839.345	27.37
839.516	28.63
839.687	26.19
839.857	28.95
840.028	31.59
840.199	30.12
840.37	34.65
840.54	33.91
840.711	37.11
840.882	43.79
841.053	47.74
841.223	52.08
841.394	44.05
841.564	48.28
841.735	47.18
841.906	54.34
842.076	44.84
842.247	34.64
842.417	35.01
842.588	44.84
842.758	47.76
842.929	46.16
843.099	42.3
843.27	50.97
843.44	48
843.611	39.96
843.781	25.26
843.951	37.42
844.122	45.21
844.292	39.86
844.462	29.23
844.633	20.85
844.803	26.41
844.973	33.32
845.144	30.82
845.314	21.86
845.484	15.66
845.654	14.93
845.824	18.71
845.995	12.03
846.165	26.25
846.335	31.88
846.505	23.69
846.675	9.22
846.845	0.62
847.015	12.92
847.185	32.92
847.355	58.67
847.525	57.07
847.695	53.6
847.865	65.86
848.035	69.04
848.205	96.61
848.375	137.86
848.545	100.08
848.715	99.27
848.884	70.44
849.054	68.32
849.224	49.16
849.394	60.42
849.564	67.83
849.733	59.71
849.903	45.55
850.073	33.11
850.243	31.59
850.412	48.21
850.582	81.24
850.752	98.08
850.921	86.37
851.091	102.12
851.26	98.4
851.43	90.79
851.599	108.47
851.769	125.1
851.939	137
852.108	139.48
852.278	130.46
852.447	90.21
852.616	99.23
852.786	109.37
852.955	108.86
853.125	107.53
853.294	101.92
853.463	99.34
853.633	89.63
853.802	84.81
853.971	87.73
854.141	83.5
854.31	77.54
854.479	56.88
854.648	46.18
854.818	58.47
854.987	54.64
855.156	84.59
855.325	81.06
855.494	69.56
855.663	57.6
855.832	55.44
856.001	74.03
856.171	115.95
856.34	147.74
856.509	119.58
856.678	91.58
856.847	113.87
857.016	71.32
857.185	98.68
857.353	119.81
857.522	132.35
857.691	134.06
857.86	126.35
858.029	101.21
858.198	114.93
858.367	137.2
858.535	129.17
858.704	106.04
858.873	145.73
859.042	130.19
859.21	119.71
859.379	151.78
859.548	113.75
859.717	80.04
859.885	98.63
860.054	87.4
860.222	74.35
860.391	96.68
860.56	73.18
860.728	0.37
860.897	19.73
861.065	12.25
861.234	26.91
861.402	-23.06
861.571	45.64
861.739	21.21
861.908	17.91
862.076	37.77
862.244	44.41
862.413	59.69
862.581	86.45
862.749	102.11
862.918	104.37
863.086	93.29
863.254	96.29
863.423	115.41
863.591	117.56
863.759	141.65
863.927	176.33
864.096	178.09
864.264	169.7
864.432	158.18
864.6	157.23
864.768	123.07
864.936	134.43
865.104	164.3
865.272	98.45
865.44	117.88
865.608	110.72
865.776	96.34
865.944	63.18
866.112	26.06
866.28	31.99
866.448	50.35
866.616	32.62
866.784	38.34
866.952	49.57
867.12	92.35
867.288	65.54
867.455	51.88
867.623	50.01
867.791	59.83
867.959	100.11
868.127	116.98
868.294	94.58
868.462	125.63
868.63	137.59
868.797	164.44
868.965	105.43
869.133	82.86
869.3	120.01
869.468	137.39
869.636	132.44
869.803	73.74
869.971	71.41
870.138	76.26
870.306	84.09
870.473	96.18
870.641	98.95
870.808	111.37
870.975	191.2
871.143	116.38
871.31	83.91
871.478	67.63
871.645	114.18
871.812	100.16
871.98	109.4
872.147	106.31
872.314	81.89
872.482	88.4
872.649	80.22
872.816	52.91
872.983	99.44
873.15	98.38
873.318	120.31
873.485	111.28
873.652	130.69
873.819	123.63
873.986	110.09
874.153	130.03
874.32	130.9
874.487	111.04
874.654	164.43
874.821	134.78
874.988	233.17
875.155	199.84
875.322	162.57
875.489	145.78
875.656	165.13
875.823	195.78
875.99	179.9
876.157	211.23
876.324	221.01
876.49	198.24
876.657	196.97
876.824	211.9
876.991	193.83
877.157	176.97
877.324	192.96
877.491	173.37
877.658	134.72
877.824	186.53
877.991	120.87
878.157	94.51
878.324	99.17
878.491	79.45
878.657	66.29
878.824	66
878.99	62.84
879.157	53.98
879.323	55.56
879.49	68.2
879.656	77.33
879.823	78.59
879.989	100.51
880.156	119.05
880.322	91.46
880.488	120.28
880.655	105.87
880.821	91.59
880.987	64.21
881.154	88.44
881.32	57.21
881.486	49
881.652	42.72
881.819	43.04
881.985	44.09
882.151	45.62
882.317	41.79
882.483	43.99
882.649	45.46
882.816	48.08
882.982	40.94
883.148	41.51
883.314	38.46
883.48	38.97
883.646	35.15
883.812	35.38
883.978	34.02
884.144	36.6
884.31	32.72
884.476	33.33
884.642	31.27
884.807	32.46
884.973	33.66
885.139	35.9
885.305	37.17
885.471	37.19
885.637	32.23
885.802	37.73
885.968	36.61
886.134	36.61
886.3	33.61
886.465	38.57
886.631	40.9
886.797	46.63
886.962	39.08
887.128	43.85
887.293	47.52
887.459	53.74
887.625	44.68
887.79	42.46
887.956	57.48
888.121	63.73
888.287	62.91
888.452	58.8
888.618	49.21
888.783	68.22
