Data from 2937884_Reflection_1.txt Node
Date: Wed Jul 15 14:36:41 EDT 2015
User: robert
Spectrometer: USB4E03001
Autoset integration time: false
Trigger mode: 4
Integration Time (sec): 1.000000E-1
Scans to average: 10
Electric dark correction enabled: true
Nonlinearity correction enabled: false
Boxcar width: 5
Stray light correction enabled: false
XAxis mode: Wavelengths
Stop averaging: false
Number of Pixels in Spectrum: 3648
>>>>>Begin Spectral Data<<<<<
177.566	-56.6
177.785	-17.41
178.005	-13.07
178.225	-31.89
178.445	70.89
178.665	22.87
178.885	-146.59
179.105	11.04
179.324	-8.2
179.544	-66.82
179.764	33.83
179.984	-26.92
180.204	-50.95
180.423	-73.01
180.643	-298.25
180.863	408.53
181.083	148.35
181.302	544.32
181.522	225.73
181.742	196.12
181.961	127.38
182.181	164.96
182.401	93.07
182.621	100.79
182.84	109.96
183.06	98.61
183.279	122.64
183.499	140.46
183.719	96.24
183.938	148.93
184.158	227.02
184.377	73111.11
184.597	207.89
184.816	216.07
185.036	222.08
185.256	195.06
185.475	202.8
185.695	177.61
185.914	5627.43
186.134	-280.96
186.353	-373.4
186.572	-249.88
186.792	-72.75
187.011	23.99
187.231	-67.61
187.45	-0.64
187.67	-27.21
187.889	-47.43
188.108	-34.88
188.328	65.57
188.547	-139.66
188.766	-148.21
188.986	121.57
189.205	53.15
189.424	-28.92
189.644	41.39
189.863	-288.06
190.082	-21.67
190.302	58.06
190.521	64.89
190.74	119.31
190.959	13166.67
191.178	-472.96
191.398	171.79
191.617	167.87
191.836	73.61
192.055	103.59
192.274	54.24
192.494	236.65
192.713	1070.15
192.932	-189.23
193.151	-553.03
193.37	203.44
193.589	111.42
193.808	23.4
194.027	-133.24
194.246	-66.7
194.465	865.91
194.685	411.35
194.904	2333.33
195.123	403.79
195.342	546.01
195.561	273.41
195.78	175.92
195.999	120.68
196.218	110.08
196.436	111.75
196.655	43.12
196.874	47.64
197.093	-225.68
197.312	172
197.531	218.53
197.75	228.9
197.969	170.9
198.188	120.67
198.407	180.22
198.625	210.89
198.844	116.55
199.063	79.58
199.282	107.67
199.501	113.23
199.719	259.71
199.938	217.8
200.157	478.02
200.376	466.37
200.594	894.47
200.813	456.32
201.032	459.21
201.251	-387.59
201.469	-360.03
201.688	-326.56
201.907	-85.85
202.125	14.51
202.344	54.39
202.563	183.29
202.781	17.27
203	12.39
203.218	-74.06
203.437	-122.22
203.656	-69.79
203.874	-99.57
204.093	-90.34
204.311	-273.22
204.53	-364.36
204.748	-424.69
204.967	-230.7
205.185	-170.21
205.404	-414.04
205.622	-127.57
205.841	-72.07
206.059	-85.28
206.278	-23.49
206.496	-71.99
206.715	-119.99
206.933	-109.74
207.151	428.67
207.37	189.01
207.588	-178.23
207.806	122.67
208.025	-11.36
208.243	-97.39
208.461	-206.93
208.68	-96.65
208.898	16.33
209.116	47.33
209.335	-8.57
209.553	-668.29
209.771	-159.42
209.989	415.72
210.208	446.8
210.426	-116.21
210.644	-304.74
210.862	402.95
211.081	424.95
211.299	-93.74
211.517	15.29
211.735	-97.66
211.953	124.57
212.171	8.52
212.39	-4525.71
212.608	5.67
212.826	-20.28
213.044	14.26
213.262	10.2
213.48	84.38
213.698	153.1
213.916	133.94
214.134	328.14
214.352	442.23
214.57	83.77
214.788	81.88
215.006	125.42
215.224	114.66
215.442	204.35
215.66	-32.95
215.878	-9.14
216.096	67.88
216.314	79.84
216.532	32.34
216.75	50.52
216.968	-11.47
217.185	-2.62
217.403	-10.24
217.621	9.59
217.839	-32.59
218.057	-28.69
218.275	-54.11
218.492	-54.62
218.71	-181.1
218.928	-1556.22
219.146	897.29
219.363	-1511.68
219.581	4350.44
219.799	743.41
220.017	-772.63
220.234	-76.16
220.452	-157.7
220.67	-45.19
220.887	-9.18
221.105	10.31
221.323	38.46
221.54	51.2
221.758	31.29
221.976	18.15
222.193	28.43
222.411	14.19
222.629	20.34
222.846	27.28
223.064	28.82
223.281	27.66
223.499	36.23
223.716	50.38
223.934	58.63
224.151	62.79
224.369	103.66
224.586	116.28
224.804	107.89
225.021	87.09
225.239	66.4
225.456	48.09
225.674	38.74
225.891	27.85
226.108	16.58
226.326	-0.58
226.543	6.34
226.76	-0.47
226.978	3.7
227.195	6.36
227.413	1.74
227.63	1.83
227.847	11.13
228.064	8.08
228.282	11.23
228.499	12.28
228.716	15.21
228.934	16.3
229.151	16.84
229.368	13.3
229.585	13.25
229.802	17.21
230.02	19.29
230.237	14.83
230.454	14.35
230.671	14.8
230.888	15.87
231.105	14.06
231.323	15.66
231.54	15.88
231.757	19.46
231.974	20.25
232.191	14.91
232.408	13.63
232.625	19.56
232.842	23.13
233.059	18.49
233.276	12.4
233.493	16.41
233.71	10.55
233.927	6.53
234.144	6.91
234.361	5.53
234.578	-1.95
234.795	-4.45
235.012	-3.86
235.229	-5.28
235.446	2.03
235.663	8.14
235.879	-8.06
236.096	0.09
236.313	2.36
236.53	-2.76
236.747	-6.06
236.964	0.05
237.181	7.14
237.397	11.87
237.614	18.15
237.831	6.81
238.048	11.89
238.264	24.88
238.481	24.3
238.698	20.04
238.915	18.11
239.131	17.01
239.348	12.52
239.565	11.26
239.781	6.1
239.998	2.66
240.215	7.4
240.431	0.95
240.648	-0.99
240.865	-2.76
241.081	0.56
241.298	3.22
241.514	9.21
241.731	11.28
241.947	10.7
242.164	10.17
242.38	9.84
242.597	8.58
242.814	9.45
243.03	9.6
243.246	10.49
243.463	10.74
243.679	7.67
243.896	0.4
244.112	0.66
244.329	2.5
244.545	4.06
244.762	3.92
244.978	4.53
245.194	4.82
245.411	7.3
245.627	7.18
245.843	9.23
246.06	12.22
246.276	15.24
246.492	14.85
246.709	14.62
246.925	14.92
247.141	14.69
247.357	15.59
247.574	17.05
247.79	15.27
248.006	15.4
248.222	15.73
248.439	15.51
248.655	14.7
248.871	14.48
249.087	12.76
249.303	11.17
249.519	10.15
249.736	9.15
249.952	4.11
250.168	3.81
250.384	0.88
250.6	-0.56
250.816	-1.96
251.032	-0.7
251.248	-2.75
251.464	-0.29
251.68	1.17
251.896	2.39
252.112	1.24
252.328	5.02
252.544	6.42
252.76	6.94
252.976	4.16
253.192	3.5
253.408	3.61
253.624	5.57
253.84	5.19
254.056	3.37
254.272	3.06
254.487	6.28
254.703	-0.03
254.919	-0.29
255.135	1.61
255.351	1.35
255.567	4.56
255.782	7.07
255.998	8.48
256.214	7.81
256.43	6.66
256.646	8.48
256.861	2.79
257.077	2.96
257.293	1.81
257.508	4.24
257.724	5.72
257.94	6.15
258.155	5.27
258.371	6.28
258.587	7.27
258.802	9.79
259.018	8.82
259.234	9.87
259.449	11.95
259.665	13.24
259.88	11.63
260.096	12.93
260.312	12.39
260.527	12.3
260.743	13.4
260.958	13.4
261.174	12.75
261.389	13.53
261.605	12.8
261.82	12.08
262.036	10.82
262.251	11.62
262.466	10.19
262.682	9.53
262.897	9.3
263.113	5.14
263.328	3.52
263.543	4.4
263.759	1.5
263.974	3.79
264.189	5.21
264.405	5.53
264.62	5.72
264.835	4.36
265.051	4.74
265.266	7.41
265.481	7.26
265.696	8.48
265.912	6.78
266.127	9.52
266.342	9.88
266.557	9.08
266.773	9.17
266.988	9.6
267.203	9.37
267.418	11.23
267.633	9.83
267.848	9.42
268.064	9.5
268.279	10.81
268.494	9.41
268.709	5.28
268.924	4.62
269.139	4.01
269.354	3.06
269.569	2.16
269.784	1.51
269.999	-0.07
270.214	1.24
270.429	0.83
270.644	-0.38
270.859	2.28
271.074	4.17
271.289	3.69
271.504	5.08
271.719	4.97
271.934	6.53
272.149	4.36
272.363	5.95
272.578	4.77
272.793	4.62
273.008	7.12
273.223	6.74
273.438	9.91
273.653	10.61
273.867	9.06
274.082	9.61
274.297	8.93
274.512	11.49
274.726	9.19
274.941	11.73
275.156	12.43
275.371	10.06
275.585	7.46
275.8	3.68
276.015	4.37
276.229	4.65
276.444	4.16
276.659	3.7
276.873	2.78
277.088	5.27
277.302	2.01
277.517	4.53
277.732	3.6
277.946	6.01
278.161	8.54
278.375	9.26
278.59	8.26
278.804	7.91
279.019	8.22
279.233	7.56
279.448	8.42
279.662	10.67
279.877	8.12
280.091	11.25
280.306	11.1
280.52	11.06
280.735	10.19
280.949	11.06
281.163	11.21
281.378	11.63
281.592	11.77
281.806	10.25
282.021	8.74
282.235	10.51
282.449	8.31
282.664	7.18
282.878	6.39
283.092	5.12
283.307	4.6
283.521	4.2
283.735	3.33
283.949	2.73
284.164	3.97
284.378	5.46
284.592	5.38
284.806	6.9
285.02	7.59
285.234	8.39
285.449	9.2
285.663	8.78
285.877	9.58
286.091	9.59
286.305	10.1
286.519	9.67
286.733	8.94
286.947	7.04
287.161	6.53
287.375	6.63
287.589	7.2
287.803	6.33
288.017	6.27
288.231	3.94
288.445	4.55
288.659	4.02
288.873	4.23
289.087	5.79
289.301	6.52
289.515	5.23
289.729	5.29
289.943	5.11
290.157	6.61
290.371	7.21
290.584	9.63
290.798	9.68
291.012	11.7
291.226	12.82
291.44	11.38
291.654	10.91
291.867	12
292.081	11.08
292.295	10.17
292.509	9.73
292.722	9.04
292.936	7.89
293.15	6.88
293.364	5.79
293.577	3.36
293.791	4.33
294.005	3.96
294.218	4.16
294.432	5.89
294.645	6.91
294.859	7.02
295.073	8.88
295.286	9.82
295.5	10.96
295.713	11.2
295.927	11.1
296.14	11.62
296.354	11.12
296.568	11.51
296.781	11.51
296.994	10.75
297.208	11.24
297.421	10.64
297.635	9.8
297.848	8.71
298.062	8.19
298.275	8.3
298.489	7.55
298.702	8.08
298.915	7.79
299.129	7.54
299.342	6.94
299.555	5.96
299.769	6.38
299.982	7.07
300.195	8.47
300.409	7.82
300.622	8.51
300.835	9.63
301.048	11.42
301.262	11.15
301.475	11.36
301.688	11.68
301.901	10.67
302.115	9.98
302.328	9.97
302.541	8.59
302.754	9.9
302.967	10.52
303.18	8.73
303.393	9.39
303.607	9.57
303.82	10.36
304.033	11.1
304.246	14.53
304.459	14.49
304.672	12.83
304.885	11.81
305.098	10.97
305.311	12.01
305.524	13.81
305.737	12.67
305.95	12.67
306.163	11.74
306.376	11.9
306.589	10.06
306.802	10.5
307.015	11.07
307.228	12.73
307.44	13.87
307.653	12.76
307.866	11.19
308.079	9.92
308.292	10.31
308.505	10.1
308.718	9.2
308.93	8.23
309.143	8.92
309.356	9.5
309.569	12.28
309.781	11.35
309.994	11.26
310.207	12.85
310.42	12.42
310.632	12.84
310.845	12.39
311.058	12.93
311.27	13.6
311.483	13.01
311.696	14.09
311.908	12.5
312.121	13.49
312.333	14.39
312.546	14.78
312.759	16.04
312.971	15.57
313.184	17.63
313.396	16.93
313.609	18.27
313.821	18.6
314.034	16.87
314.246	18.2
314.459	17.24
314.671	15.29
314.884	12.44
315.096	11.99
315.309	13.02
315.521	11.61
315.733	11.8
315.946	8.74
316.158	9.34
316.371	10.64
316.583	7.95
316.795	6.49
317.008	8.7
317.22	10.68
317.432	10.33
317.644	8.67
317.857	10.28
318.069	9.68
318.281	10.98
318.494	11.78
318.706	12.69
318.918	14.36
319.13	15.53
319.342	13.43
319.555	14.57
319.767	13.78
319.979	14.47
320.191	14.02
320.403	17.26
320.615	16.39
320.827	16.42
321.039	16.64
321.252	17.76
321.464	15.73
321.676	17.28
321.888	14.24
322.1	15.1
322.312	15.64
322.524	14.44
322.736	13.1
322.948	16.03
323.16	13.85
323.372	14.09
323.584	10.92
323.796	13.65
324.007	13.99
324.219	14.3
324.431	15.82
324.643	15.99
324.855	15.36
325.067	15.44
325.279	13.41
325.491	15.52
325.702	13.39
325.914	16.87
326.126	16.54
326.338	15.04
326.55	16.08
326.761	14.13
326.973	13.05
327.185	14.2
327.396	12.35
327.608	11.16
327.82	9.57
328.032	11.46
328.243	9.06
328.455	9.22
328.666	10.11
328.878	10.48
329.09	12.65
329.301	12.32
329.513	12.5
329.725	14.67
329.936	15.94
330.148	15.33
330.359	13.7
330.571	15.14
330.782	14.63
330.994	16.63
331.205	15.63
331.417	14.62
331.628	15
331.84	14.5
332.051	13.97
332.262	15.09
332.474	16.08
332.685	18.1
332.897	15.44
333.108	15.32
333.319	12.82
333.531	14.35
333.742	13.98
333.953	14.98
334.165	15.18
334.376	15.9
334.587	16.34
334.799	16.55
335.01	14.97
335.221	17.07
335.432	16.39
335.644	18.02
335.855	16.88
336.066	17.05
336.277	15.89
336.488	16.27
336.7	16.65
336.911	17.49
337.122	19.75
337.333	20.68
337.544	20.08
337.755	20.12
337.966	19.46
338.177	20.02
338.388	20.15
338.599	21.36
338.811	21.43
339.022	20.46
339.233	19.27
339.444	16.05
339.655	14.49
339.866	15.71
340.076	18.37
340.287	18.17
340.498	19.79
340.709	18.2
340.92	18.43
341.131	17.79
341.342	18.18
341.553	18.96
341.764	19.7
341.975	20.04
342.185	20.53
342.396	17.7
342.607	17.45
342.818	15.86
343.029	18.22
343.239	16.79
343.45	17.67
343.661	17.48
343.872	15.62
344.082	15.72
344.293	16.62
344.504	14.34
344.714	16.24
344.925	17
345.136	17.23
345.346	16.49
345.557	17.18
345.768	18.27
345.978	19.45
346.189	20.59
346.399	21.28
346.61	21.23
346.821	22.63
347.031	22.08
347.242	22.18
347.452	23.07
347.663	23.82
347.873	24.46
348.084	22.28
348.294	20.77
348.504	20.61
348.715	19.21
348.925	19.8
349.136	19.26
349.346	19.13
349.557	18.43
349.767	17.18
349.977	17.67
350.188	18.07
350.398	19.45
350.608	19.51
350.819	17.88
351.029	19.8
351.239	18.56
351.449	18.16
351.66	18.83
351.87	20.38
352.08	21.29
352.29	20.26
352.501	20.41
352.711	19.64
352.921	19.22
353.131	21.41
353.341	20.18
353.552	20.7
353.762	20.08
353.972	19.81
354.182	19.36
354.392	19.09
354.602	18.05
354.812	17.6
355.022	18.04
355.232	18.7
355.442	18.41
355.652	18.09
355.862	17.05
356.072	18.43
356.282	18.14
356.492	16.79
356.702	16.61
356.912	18.04
357.122	17.95
357.332	17.6
357.542	16.84
357.752	15.55
357.962	16.44
358.171	16.12
358.381	13.92
358.591	13.42
358.801	13.8
359.011	13.68
359.221	13.87
359.43	13.41
359.64	12.33
359.85	12.41
360.06	13.16
360.269	13.57
360.479	14.66
360.689	15.49
360.899	16
361.108	16.95
361.318	17.11
361.528	16.98
361.737	16.32
361.947	17.47
362.156	18.48
362.366	18.05
362.576	17.86
362.785	17.47
362.995	17.61
363.204	17.99
363.414	17.05
363.623	16.77
363.833	15.89
364.042	16.4
364.252	17.06
364.461	16.3
364.671	16.62
364.88	16.2
365.09	16.12
365.299	16.7
365.509	16.01
365.718	15.66
365.927	15.54
366.137	16.4
366.346	17.13
366.555	17.31
366.765	17.54
366.974	18.25
367.183	18.21
367.393	18.06
367.602	18.22
367.811	18.09
368.021	19.12
368.23	18.88
368.439	18.82
368.648	18.73
368.857	17.08
369.067	16.57
369.276	16.12
369.485	15.95
369.694	17.36
369.903	16.19
370.112	16.03
370.321	16.16
370.531	16.29
370.74	15.4
370.949	14.9
371.158	15.28
371.367	16
371.576	15.97
371.785	16.72
371.994	16.12
372.203	17.29
372.412	17.09
372.621	16.25
372.83	16.13
373.039	15.79
373.248	15.92
373.457	15.16
373.666	13.85
373.874	13.65
374.083	11.69
374.292	11.38
374.501	9.82
374.71	10.17
374.919	10.88
375.128	11.22
375.336	11.81
375.545	10.92
375.754	12.02
375.963	12.83
376.171	12.52
376.38	13.41
376.589	12.79
376.798	13.58
377.006	13.5
377.215	12.92
377.424	12.53
377.632	12.02
377.841	12.27
378.05	11.73
378.258	11.85
378.467	12.08
378.675	11.19
378.884	11.46
379.093	11.58
379.301	11.37
379.51	11.28
379.718	12.02
379.927	12.83
380.135	13.48
380.344	13.98
380.552	13.66
380.761	13.3
380.969	14.54
381.177	14.39
381.386	14.43
381.594	14.47
381.803	14.8
382.011	14.41
382.219	13.59
382.428	13.39
382.636	13.49
382.845	12.74
383.053	12.6
383.261	12.06
383.469	12.6
383.678	12.97
383.886	12.65
384.094	12.27
384.302	11.39
384.511	10.97
384.719	10.45
384.927	9.71
385.135	10.5
385.343	10.66
385.552	10.95
385.76	10.71
385.968	10.03
386.176	10.28
386.384	9.99
386.592	10.7
386.8	11.6
387.008	11.23
387.216	11.43
387.424	11.41
387.633	11.44
387.841	11
388.049	10.92
388.257	11.06
388.465	10.88
388.672	11.07
388.88	11.29
389.088	10.62
389.296	11.01
389.504	10.81
389.712	9.76
389.92	10
390.128	9.46
390.336	9.19
390.544	9.12
390.751	9.22
390.959	9.4
391.167	8.83
391.375	8.54
391.583	9.25
391.79	9.26
391.998	10.07
392.206	10.14
392.414	10.4
392.621	10.58
392.829	10.71
393.037	10.87
393.244	10.78
393.452	11.19
393.66	11.42
393.867	10.73
394.075	10.55
394.283	10.86
394.49	10.47
394.698	10.89
394.905	11.08
395.113	10.88
395.32	10.27
395.528	9.96
395.735	9.71
395.943	10.22
396.15	10.58
396.358	10.64
396.565	10.14
396.773	10.02
396.98	10.08
397.188	9.42
397.395	9.57
397.602	9.67
397.81	9.72
398.017	9.1
398.225	9.01
398.432	8.42
398.639	8.47
398.847	8.79
399.054	8.77
399.261	8.18
399.468	8.41
399.676	7.81
399.883	8.12
400.09	8.07
400.297	8.26
400.505	7.73
400.712	8.04
400.919	8.31
401.126	8
401.333	7.93
401.54	7.81
401.748	7.39
401.955	7.7
402.162	7.37
402.369	7.56
402.576	8.01
402.783	7.99
402.99	7.98
403.197	7.53
403.404	7.65
403.611	7.57
403.818	7.85
404.025	7.91
404.232	7.96
404.439	7.82
404.646	7.35
404.853	7.04
405.06	7.27
405.267	7.45
405.474	7.47
405.681	7.36
405.887	7.52
406.094	7.49
406.301	7.69
406.508	7.57
406.715	7.99
406.922	8.38
407.128	8.4
407.335	8.05
407.542	7.85
407.749	7.98
407.955	7.78
408.162	7.94
408.369	7.78
408.575	8.01
408.782	8.15
408.989	7.77
409.195	7.61
409.402	7.49
409.609	7.87
409.815	7.91
410.022	8.17
410.228	8.08
410.435	7.74
410.642	7.72
410.848	7.79
411.055	7.52
411.261	8.1
411.468	8.03
411.674	8.11
411.881	7.79
412.087	7.82
412.294	7.62
412.5	7.66
412.706	8.04
412.913	8.34
413.119	8.1
413.326	8.59
413.532	7.95
413.738	8.45
413.945	8.66
414.151	9.08
414.357	9.09
414.564	8.88
414.77	8.94
414.976	8.72
415.182	8.79
415.389	8.85
415.595	8.83
415.801	9.16
416.007	8.9
416.214	8.51
416.42	8.27
416.626	8.06
416.832	8.2
417.038	8.16
417.244	7.97
417.45	7.74
417.657	7.62
417.863	7.41
418.069	7.16
418.275	7.19
418.481	7.51
418.687	7.61
418.893	7.62
419.099	7.6
419.305	7.52
419.511	7.62
419.717	7.7
419.923	7.69
420.129	7.73
420.335	7.82
420.541	7.76
420.746	7.74
420.952	7.76
421.158	7.81
421.364	7.72
421.57	7.59
421.776	7.68
421.982	7.59
422.187	7.76
422.393	7.76
422.599	7.72
422.805	7.75
423.01	7.88
423.216	7.78
423.422	7.65
423.628	7.78
423.833	7.9
424.039	7.62
424.245	7.67
424.45	7.5
424.656	7.46
424.862	7.54
425.067	7.65
425.273	7.48
425.478	7.52
425.684	7.65
425.889	7.39
426.095	7.44
426.301	7.61
426.506	7.74
426.712	7.66
426.917	7.55
427.123	7.49
427.328	7.53
427.533	7.29
427.739	7.28
427.944	7.11
428.15	7.38
428.355	7.43
428.561	7.41
428.766	7.28
428.971	7.43
429.177	7.55
429.382	7.36
429.587	7.15
429.793	7.24
429.998	7.07
430.203	7.1
430.408	6.88
430.614	6.89
430.819	6.93
431.024	6.96
431.229	6.73
431.434	6.39
431.64	6.67
431.845	6.72
432.05	6.7
432.255	7.02
432.46	7.22
432.665	7.33
432.87	7.29
433.076	7.31
433.281	7.33
433.486	7.29
433.691	7.55
433.896	7.58
434.101	7.3
434.306	7.26
434.511	6.91
434.716	6.9
434.921	7.02
435.126	7.04
435.331	6.87
435.535	6.7
435.74	6.86
435.945	6.57
436.15	6.22
436.355	6.39
436.56	6.45
436.765	6.73
436.97	6.71
437.174	6.69
437.379	6.73
437.584	6.92
437.789	6.97
437.993	6.99
438.198	7.22
438.403	7.51
438.608	7.47
438.812	7.53
439.017	7.48
439.222	7.51
439.426	7.48
439.631	7.42
439.836	7.46
440.04	7.55
440.245	7.52
440.45	7.45
440.654	7.44
440.859	7.55
441.063	7.4
441.268	7.34
441.472	7.2
441.677	7.07
441.881	6.98
442.086	6.81
442.29	6.68
442.495	6.62
442.699	6.54
442.904	6.18
443.108	5.99
443.312	6.05
443.517	5.95
443.721	5.97
443.925	5.96
444.13	6.03
444.334	6.07
444.538	6.25
444.743	6.44
444.947	6.56
445.151	7.02
445.356	7.17
445.56	7.23
445.764	7.28
445.968	7.21
446.173	7.39
446.377	7.29
446.581	7.19
446.785	7.17
446.989	6.93
447.193	7.04
447.398	6.97
447.602	6.87
447.806	6.88
448.01	6.93
448.214	6.98
448.418	6.8
448.622	6.97
448.826	7.21
449.03	7.04
449.234	7.18
449.438	7.15
449.642	7.04
449.846	7.02
450.05	7.12
450.254	7.02
450.458	7.1
450.662	7.07
450.866	7.08
451.069	6.97
451.273	7.02
451.477	7.05
451.681	6.97
451.885	6.87
452.089	6.96
452.292	6.72
452.496	6.88
452.7	6.72
452.904	6.8
453.107	6.69
453.311	6.53
453.515	6.49
453.719	6.37
453.922	6.49
454.126	6.55
454.33	6.39
454.533	6.62
454.737	6.61
454.94	6.56
455.144	6.48
455.348	6.5
455.551	6.58
455.755	6.74
455.958	6.83
456.162	6.6
456.365	6.81
456.569	7.07
456.772	6.84
456.976	6.64
457.179	6.51
457.383	6.55
457.586	6.75
457.79	6.89
457.993	6.74
458.196	6.91
458.4	7.08
458.603	6.73
458.807	6.47
459.01	6.43
459.213	6.64
459.417	6.84
459.62	6.8
459.823	6.68
460.026	6.67
460.23	6.72
460.433	6.68
460.636	6.58
460.839	6.73
461.042	6.73
461.246	6.89
461.449	6.76
461.652	6.73
461.855	6.75
462.058	6.62
462.261	6.46
462.464	6.3
462.668	6.3
462.871	6.3
463.074	6.24
463.277	6.54
463.48	6.55
463.683	6.43
463.886	6.43
464.089	6.76
464.292	6.94
464.495	7.18
464.698	7.57
464.901	7.4
465.104	7.51
465.306	7.44
465.509	7.3
465.712	7.12
465.915	7.23
466.118	7.18
466.321	6.82
466.524	6.86
466.726	6.78
466.929	6.46
467.132	6.42
467.335	6.24
467.538	6.4
467.74	6.4
467.943	6.45
468.146	6.4
468.348	6.48
468.551	6.69
468.754	6.76
468.956	6.44
469.159	6.48
469.362	6.79
469.564	6.64
469.767	6.55
469.969	6.36
470.172	6.26
470.375	6.22
470.577	6.15
470.78	6.06
470.982	6.02
471.185	6.36
471.387	6.55
471.59	6.27
471.792	6.44
471.995	6.52
472.197	6.7
472.399	6.66
472.602	6.85
472.804	6.82
473.007	6.84
473.209	6.73
473.411	6.63
473.614	6.52
473.816	6.65
474.018	6.76
474.22	6.75
474.423	6.63
474.625	7.07
474.827	6.87
475.03	7.01
475.232	7.15
475.434	7.27
475.636	7.29
475.838	7.57
476.04	7.6
476.243	7.46
476.445	7.2
476.647	7.44
476.849	7.05
477.051	6.83
477.253	6.67
477.455	6.42
477.657	6.3
477.859	6.34
478.061	6.2
478.263	5.86
478.465	5.85
478.667	6.11
478.869	5.94
479.071	6.13
479.273	6.28
479.475	6.26
479.677	6.3
479.879	6.23
480.081	6.15
480.283	6.03
480.485	6.31
480.686	6.32
480.888	6.22
481.09	6.28
481.292	6.2
481.494	6.32
481.695	6.37
481.897	6.57
482.099	6.67
482.301	6.67
482.502	6.54
482.704	6.53
482.906	6.62
483.107	6.63
483.309	6.63
483.511	6.63
483.712	6.68
483.914	6.73
484.115	6.63
484.317	6.61
484.519	6.67
484.72	6.74
484.922	6.74
485.123	6.8
485.325	6.85
485.526	6.81
485.728	6.82
485.929	6.79
486.131	6.79
486.332	6.83
486.534	6.85
486.735	6.79
486.936	6.77
487.138	6.74
487.339	6.56
487.541	6.52
487.742	6.6
487.943	6.62
488.144	6.58
488.346	6.56
488.547	6.59
488.748	6.57
488.95	6.54
489.151	6.62
489.352	6.52
489.553	6.58
489.755	6.47
489.956	6.46
490.157	6.46
490.358	6.43
490.559	6.43
490.76	6.43
490.961	6.54
491.163	6.58
491.364	6.43
491.565	6.57
491.766	6.62
491.967	6.72
492.168	6.71
492.369	6.66
492.57	6.67
492.771	6.64
492.972	6.62
493.173	6.54
493.374	6.58
493.575	6.64
493.776	6.65
493.976	6.54
494.177	6.47
494.378	6.52
494.579	6.65
494.78	6.72
494.981	6.9
495.182	6.77
495.382	6.68
495.583	6.58
495.784	6.64
495.985	6.66
496.185	6.71
496.386	6.75
496.587	6.65
496.788	6.53
496.988	6.47
497.189	6.36
497.39	6.36
497.59	6.52
497.791	6.59
497.992	6.69
498.192	6.75
498.393	6.67
498.593	6.72
498.794	6.78
498.994	6.94
499.195	6.88
499.395	6.94
499.596	7.15
499.796	7.12
499.997	7.05
500.197	6.88
500.398	6.58
500.598	6.62
500.799	6.74
500.999	6.63
501.199	6.48
501.4	6.77
501.6	6.65
501.801	6.58
502.001	6.7
502.201	6.75
502.402	6.85
502.602	7.13
502.802	7.15
503.002	7.06
503.203	7.13
503.403	7.3
503.603	7.19
503.803	7.06
504.003	7.13
504.204	7.03
504.404	7.06
504.604	6.94
504.804	6.97
505.004	7.25
505.204	7.34
505.404	7.36
505.604	7.39
505.804	7.37
506.005	7.6
506.205	7.49
506.405	7.47
506.605	7.49
506.805	7.69
507.005	7.81
507.204	7.71
507.404	7.47
507.604	7.54
507.804	7.52
508.004	7.62
508.204	7.61
508.404	7.57
508.604	7.58
508.804	7.57
509.003	7.5
509.203	7.33
509.403	7.23
509.603	7.18
509.803	7.17
510.002	7.11
510.202	7.1
510.402	7.25
510.602	7.49
510.801	7.67
511.001	7.78
511.201	7.7
511.4	7.76
511.6	7.86
511.8	8.27
511.999	8.37
512.199	8.49
512.398	8.51
512.598	8.39
512.797	8.21
512.997	8.09
513.197	8.14
513.396	8.41
513.596	8.5
513.795	8.53
513.994	8.42
514.194	8.28
514.393	8.02
514.593	8.09
514.792	8.17
514.992	8.28
515.191	8.26
515.39	8.26
515.59	8.14
515.789	8.18
515.988	8.08
516.188	8.25
516.387	8.38
516.586	8.72
516.786	8.89
516.985	8.91
517.184	8.99
517.383	8.96
517.582	8.94
517.782	9.12
517.981	9.05
518.18	9.32
518.379	9.24
518.578	9.28
518.777	9.26
518.976	9.29
519.176	9.29
519.375	9.31
519.574	9.43
519.773	9.4
519.972	9.31
520.171	9.27
520.37	9.2
520.569	9.15
520.768	9.07
520.967	9.18
521.166	8.97
521.365	9.1
521.564	8.96
521.762	8.97
521.961	9.13
522.16	9.05
522.359	9.28
522.558	9.26
522.757	9.23
522.956	9.38
523.154	9.31
523.353	9.52
523.552	9.41
523.751	9.55
523.949	9.44
524.148	9.38
524.347	9.46
524.546	9.54
524.744	9.54
524.943	9.68
525.142	9.62
525.34	9.71
525.539	9.7
525.737	9.81
525.936	9.87
526.135	10
526.333	10.2
526.532	10.32
526.73	10.33
526.929	10.43
527.127	10.49
527.326	10.61
527.524	10.65
527.723	10.72
527.921	10.75
528.12	10.84
528.318	10.9
528.516	10.85
528.715	10.89
528.913	10.89
529.112	10.86
529.31	10.88
529.508	10.87
529.707	10.86
529.905	10.82
530.103	10.79
530.301	10.8
530.5	10.83
530.698	10.82
530.896	10.81
531.094	10.87
531.293	10.98
531.491	11
531.689	11.13
531.887	11.26
532.085	11.29
532.283	11.38
532.481	11.35
532.68	11.34
532.878	11.33
533.076	11.33
533.274	11.4
533.472	11.4
533.67	11.49
533.868	11.53
534.066	11.54
534.264	11.54
534.462	11.5
534.66	11.55
534.858	11.66
535.056	11.82
535.253	11.87
535.451	11.87
535.649	11.86
535.847	11.97
536.045	12.01
536.243	12.05
536.441	12.07
536.638	12.13
536.836	12.25
537.034	12.2
537.232	12.16
537.43	12.29
537.627	12.23
537.825	12.28
538.023	12.21
538.22	12.21
538.418	12.14
538.616	12.2
538.813	12.32
539.011	12.35
539.209	12.33
539.406	12.42
539.604	12.34
539.801	12.43
539.999	12.61
540.196	12.69
540.394	12.66
540.591	12.7
540.789	12.92
540.986	12.97
541.184	13.03
541.381	13.14
541.579	13.24
541.776	13.23
541.974	13.23
542.171	13.24
542.368	13.18
542.566	13.18
542.763	13.26
542.96	13.16
543.158	13.21
543.355	13.15
543.552	13.15
543.75	13.1
543.947	13.15
544.144	13.18
544.341	13.17
544.539	13.25
544.736	13.35
544.933	13.31
545.13	13.4
545.327	13.46
545.524	13.49
545.722	13.51
545.919	13.58
546.116	13.76
546.313	13.89
546.51	14.07
546.707	14.06
546.904	14.24
547.101	14.19
547.298	14.26
547.495	14.33
547.692	14.52
547.889	14.64
548.086	14.71
548.283	14.75
548.48	14.93
548.677	14.83
548.874	14.94
549.07	14.96
549.267	15.2
549.464	15.04
549.661	15.01
549.858	15.03
550.055	15.18
550.251	15.26
550.448	15.19
550.645	15.08
550.842	15.04
551.038	15.46
551.235	15.31
551.432	15.34
551.628	15.77
551.825	15.76
552.022	15.92
552.218	15.72
552.415	15.63
552.612	15.87
552.808	15.99
553.005	16.22
553.201	16.14
553.398	16.3
553.594	16.45
553.791	16.44
553.987	16.7
554.184	16.66
554.38	16.72
554.577	16.86
554.773	17
554.97	16.94
555.166	16.9
555.362	16.93
555.559	16.99
555.755	17.21
555.952	17.14
556.148	17.16
556.344	17.32
556.541	17.67
556.737	17.83
556.933	17.7
557.129	17.83
557.326	18.03
557.522	18.13
557.718	18.32
557.914	18.16
558.11	18.26
558.307	18.28
558.503	18.13
558.699	18.06
558.895	18.06
559.091	18.16
559.287	18.19
559.483	18.08
559.679	17.66
559.876	17.67
560.072	18.01
560.268	18.38
560.464	18.56
560.66	18.67
560.856	18.75
561.052	18.79
561.247	19.09
561.443	19.16
561.639	19.32
561.835	20.08
562.031	20
562.227	19.98
562.423	19.84
562.619	19.79
562.815	19.91
563.01	19.66
563.206	19.82
563.402	19.69
563.598	19.77
563.793	19.86
563.989	19.75
564.185	19.83
564.381	19.86
564.576	19.79
564.772	19.94
564.968	20.14
565.163	20.73
565.359	20.84
565.555	20.81
565.75	21.16
565.946	21.36
566.141	21.32
566.337	21.36
566.532	21.68
566.728	21.85
566.923	21.94
567.119	22.05
567.314	22.08
567.51	22.24
567.705	22.5
567.901	22.44
568.096	22.37
568.292	22.55
568.487	22.9
568.682	22.65
568.878	22.75
569.073	22.75
569.268	22.76
569.464	22.66
569.659	22.63
569.854	22.49
570.05	22.69
570.245	22.98
570.44	23.13
570.635	23.33
570.831	23.53
571.026	23.62
571.221	23.52
571.416	23.52
571.611	23.6
571.806	23.52
572.002	23.83
572.197	23.87
572.392	23.92
572.587	23.87
572.782	23.82
572.977	23.67
573.172	23.78
573.367	23.9
573.562	23.94
573.757	24.06
573.952	24.2
574.147	24.22
574.342	24.14
574.537	24.16
574.732	24.06
574.927	23.96
575.121	24.22
575.316	24.19
575.511	24.18
575.706	24.27
575.901	24.37
576.096	24.46
576.29	24.56
576.485	24.78
576.68	24.76
576.875	24.84
577.069	25.01
577.264	25.02
577.459	25.04
577.654	25.19
577.848	25.23
578.043	25
578.238	25.12
578.432	24.9
578.627	25.01
578.821	24.92
579.016	24.84
579.21	24.75
579.405	24.85
579.6	24.84
579.794	24.95
579.989	24.68
580.183	24.78
580.378	24.89
580.572	25.19
580.766	24.88
580.961	25.01
581.155	25.32
581.35	25.32
581.544	25.58
581.738	25.88
581.933	25.98
582.127	26.15
582.321	26.42
582.516	26.47
582.71	26.51
582.904	26.8
583.099	26.89
583.293	26.73
583.487	26.65
583.681	26.52
583.875	26.48
584.07	26.54
584.264	26.34
584.458	26.11
584.652	26.49
584.846	26.34
585.04	26.27
585.234	26.35
585.428	26.47
585.623	26.62
585.817	26.69
586.011	26.78
586.205	26.73
586.399	27.29
586.593	27.64
586.787	27.06
586.981	27.22
587.174	27.61
587.368	27.74
587.562	28.03
587.756	28.12
587.95	27.93
588.144	27.82
588.338	27.97
588.532	27.84
588.725	27.95
588.919	28.3
589.113	27.99
589.307	27.68
589.501	27.9
589.694	27.73
589.888	27.8
590.082	27.86
590.275	27.82
590.469	28.01
590.663	28.05
590.856	27.83
591.05	27.74
591.244	28.17
591.437	28.28
591.631	28.09
591.824	28.17
592.018	28.39
592.212	28.31
592.405	28.48
592.599	28.43
592.792	28.51
592.986	28.75
593.179	28.86
593.372	28.74
593.566	28.86
593.759	28.78
593.953	28.92
594.146	28.57
594.339	28.53
594.533	28.31
594.726	28.23
594.92	28.19
595.113	28.24
595.306	28.21
595.499	28.36
595.693	28.35
595.886	28.56
596.079	28.55
596.272	28.87
596.466	29.32
596.659	29.47
596.852	29.47
597.045	29.42
597.238	29.5
597.431	29.4
597.624	29.39
597.818	29.59
598.011	29.52
598.204	29.52
598.397	29.31
598.59	29.19
598.783	29.46
598.976	29.5
599.169	29.59
599.362	29.47
599.555	29.72
599.748	29.95
599.941	29.72
600.134	29.85
600.326	30.28
600.519	30.55
600.712	30.28
600.905	30.21
601.098	30.31
601.291	30.51
601.483	30.44
601.676	30.49
601.869	30.31
602.062	30.27
602.255	30.25
602.447	29.75
602.64	30.17
602.833	30.68
603.025	30.65
603.218	30.6
603.411	30.54
603.603	30.56
603.796	30.55
603.989	30.57
604.181	30.84
604.374	30.85
604.566	31.12
604.759	30.86
604.951	30.72
605.144	30.87
605.336	30.98
605.529	31.06
605.721	31.29
605.914	31.48
606.106	31.71
606.299	31.57
606.491	31.48
606.683	31.43
606.876	31.53
607.068	31.51
607.26	31.29
607.453	31.2
607.645	31.34
607.837	31.19
608.03	30.78
608.222	30.56
608.414	30.67
608.606	30.58
608.799	30.58
608.991	30.25
609.183	30.15
609.375	30.27
609.567	30.2
609.759	29.87
609.952	29.83
610.144	29.98
610.336	29.84
610.528	29.52
610.72	29.7
610.912	29.6
611.104	29.77
611.296	29.58
611.488	29.45
611.68	29.61
611.872	29.9
612.064	30.02
612.256	29.77
612.448	29.75
612.64	30.08
612.832	29.83
613.023	30.11
613.215	30.08
613.407	30.52
613.599	30.72
613.791	30.91
613.983	30.89
614.174	30.98
614.366	31.07
614.558	31.49
614.75	31.1
614.941	31.13
615.133	30.99
615.325	30.99
615.516	30.83
615.708	30.55
615.9	30.45
616.091	30.91
616.283	30.84
616.475	31.02
616.666	30.92
616.858	31.32
617.049	31.32
617.241	31.45
617.432	32.01
617.624	32.38
617.815	32.59
618.007	32.69
618.198	31.86
618.39	31.88
618.581	31.59
618.773	31.45
618.964	31.21
619.155	31.49
619.347	31.44
619.538	31.23
619.729	30.77
619.921	30.81
620.112	30.44
620.303	30.76
620.494	30.61
620.686	30.94
620.877	31.11
621.068	31.35
621.259	31.38
621.451	31.43
621.642	31.19
621.833	31.45
622.024	31.65
622.215	31.79
622.406	31.96
622.597	31.84
622.788	31.62
622.98	31.35
623.171	31.34
623.362	31.51
623.553	31.33
623.744	31.57
623.935	31.47
624.126	31.08
624.317	31.04
624.508	31.08
624.698	31.38
624.889	31.71
625.08	32.22
625.271	32
625.462	31.56
625.653	31.75
625.844	31.75
626.034	31.89
626.225	32.05
626.416	32.3
626.607	32.58
626.798	32.79
626.988	33.18
627.179	33.06
627.37	33.27
627.56	33.34
627.751	33.2
627.942	33.15
628.132	32.97
628.323	33.02
628.514	32.87
628.704	32.85
628.895	32.64
629.085	32.13
629.276	31.9
629.466	32.18
629.657	32.71
629.847	33.05
630.038	33
630.228	33.2
630.419	33.34
630.609	33.3
630.8	33.07
630.99	33.28
631.181	33.23
631.371	33.36
631.561	33.15
631.752	32.83
631.942	33.11
632.132	33.45
632.323	33.41
632.513	33.06
632.703	33.18
632.893	32.9
633.084	32.79
633.274	33.2
633.464	33.46
633.654	33.47
633.844	33.93
634.034	33.43
634.225	33.46
634.415	33.59
634.605	33.55
634.795	33.7
634.985	33.86
635.175	33.99
635.365	33.93
635.555	33.83
635.745	34.07
635.935	33.58
636.125	33.44
636.315	33.52
636.505	33.31
636.695	33.7
636.885	33.81
637.075	33.78
637.265	33.65
637.455	33.36
637.644	33.68
637.834	33.03
638.024	32.99
638.214	33.17
638.404	32.61
638.593	32.41
638.783	32.79
638.973	32.73
639.163	33.03
639.352	32.94
639.542	32.95
639.732	32.35
639.921	32.53
640.111	32.56
640.301	32.66
640.49	33.02
640.68	33.21
640.87	32.64
641.059	32.37
641.249	32.33
641.438	32.08
641.628	32.28
641.817	32.48
642.007	32.34
642.196	31.97
642.386	32
642.575	31.84
642.764	31.85
642.954	31.88
643.143	32.25
643.333	31.78
643.522	32.37
643.711	32.5
643.901	32.22
644.09	32.83
644.279	32.77
644.469	32.95
644.658	33.11
644.847	33.77
645.036	33.92
645.226	33.54
645.415	33.82
645.604	33.84
645.793	33.65
645.982	34.05
646.171	33.66
646.361	34.38
646.55	34.48
646.739	33.93
646.928	33.48
647.117	33.31
647.306	33.75
647.495	33.6
647.684	33.49
647.873	33.7
648.062	33.19
648.251	33.54
648.44	33.38
648.629	33.49
648.818	33.78
649.007	33.71
649.196	33.8
649.384	33.33
649.573	33.47
649.762	33.26
649.951	33.01
650.14	34.08
650.328	34.11
650.517	33.81
650.706	33.36
650.895	33.73
651.083	33.48
651.272	33.92
651.461	34.08
651.65	33.7
651.838	33.42
652.027	33.63
652.216	33.32
652.404	33.44
652.593	33.99
652.781	34.55
652.97	34.5
653.158	34.74
653.347	34.47
653.535	34.5
653.724	34.97
653.912	35.3
654.101	35.54
654.289	34.72
654.478	34.65
654.666	34.27
654.855	33.54
655.043	33.4
655.231	33.45
655.42	33.13
655.608	33.15
655.796	33.12
655.985	33.11
656.173	33.19
656.361	33.98
656.55	33.72
656.738	33.92
656.926	33.94
657.114	34.06
657.302	33.74
657.491	33.8
657.679	34.06
657.867	34.23
658.055	34.62
658.243	34.37
658.431	34.07
658.619	34.33
658.807	34.33
658.996	34.5
659.184	34.49
659.372	34.73
659.56	35.03
659.748	34.95
659.936	34.9
660.124	34.84
660.311	34.59
660.499	34.83
660.687	34.79
660.875	34.77
661.063	34.71
661.251	34.47
661.439	34.73
661.627	34.68
661.814	34.73
662.002	34.72
662.19	35
662.378	35.33
662.565	35.17
662.753	35.31
662.941	35.25
663.129	35
663.316	35.37
663.504	35.32
663.692	35.18
663.879	35.23
664.067	35.42
664.254	35.35
664.442	35.49
664.63	35.67
664.817	35.37
665.005	34.34
665.192	34.95
665.38	34.59
665.567	34.4
665.755	34.92
665.942	35
666.13	34.95
666.317	34.18
666.504	33.79
666.692	33.83
666.879	34.09
667.067	34.98
667.254	34.95
667.441	35.42
667.629	35.43
667.816	34.67
668.003	34.52
668.19	34.73
668.378	34.87
668.565	35.3
668.752	35.42
668.939	35.54
669.127	35.92
669.314	35.51
669.501	35.72
669.688	36.04
669.875	36.49
670.062	36.51
670.249	36.52
670.436	36.87
670.623	36.88
670.81	36.49
670.997	35.99
671.184	36.2
671.371	36.9
671.558	36.56
671.745	36.18
671.932	36.15
672.119	36.49
672.306	36.4
672.493	36.54
672.68	36.18
672.867	37.02
673.054	37.35
673.24	36.99
673.427	36.46
673.614	36.19
673.801	36.49
673.988	36.43
674.174	36.35
674.361	36.13
674.548	36.09
674.734	35.85
674.921	35.38
675.108	34.96
675.294	35.16
675.481	35.42
675.668	35.49
675.854	35.81
676.041	35.89
676.227	35.44
676.414	35.54
676.601	35.66
676.787	35.99
676.974	35.91
677.16	36.07
677.347	36.24
677.533	36.72
677.719	36.8
677.906	36.14
678.092	36.83
678.279	37.18
678.465	36.95
678.651	36.65
678.838	37.09
679.024	36.43
679.21	36.82
679.397	36.79
679.583	36.22
679.769	35.93
679.955	36.26
680.142	35.68
680.328	35.8
680.514	35.72
680.7	35.79
680.886	35.71
681.073	36.25
681.259	36.05
681.445	36.4
681.631	36.34
681.817	36.74
682.003	37.23
682.189	37.11
682.375	37.14
682.561	37.26
682.747	37.09
682.933	36.45
683.119	36.33
683.305	36.42
683.491	35.71
683.677	35.46
683.863	35.35
684.049	34.62
684.235	34.51
684.42	34.24
684.606	34.55
684.792	35.04
684.978	35.6
685.164	35.61
685.349	35.21
685.535	35.17
685.721	34.96
685.907	34.98
686.092	35.37
686.278	36.08
686.464	36
686.649	36.03
686.835	36.23
687.021	35.51
687.206	35.86
687.392	36.72
687.577	36.4
687.763	37.35
687.948	37.46
688.134	37.54
688.319	37.53
688.505	38.12
688.69	38
688.876	37.55
689.061	38.39
689.247	37.67
689.432	37.11
689.618	37.39
689.803	37.52
689.988	37.41
690.174	37.07
690.359	36.94
690.544	36.18
690.73	36.56
690.915	36.64
691.1	36.07
691.285	36.42
691.471	36.17
691.656	37.05
691.841	36.8
692.026	37.38
692.211	37.22
692.396	36.69
692.582	36.93
692.767	36.01
692.952	36.26
693.137	36.94
693.322	37.16
693.507	37.64
693.692	37.1
693.877	37.11
694.062	36.38
694.247	36.42
694.432	37.12
694.617	37.79
694.802	38.84
694.987	38.27
695.172	37.79
695.357	37.89
695.541	37.51
695.726	37.47
695.911	37.11
696.096	37.44
696.281	37.12
696.466	36.39
696.65	36.42
696.835	35.34
697.02	35.56
697.204	36.34
697.389	35.93
697.574	36.81
697.759	37.5
697.943	37.35
698.128	37.04
698.312	37.67
698.497	37.91
698.682	37.92
698.866	38.4
699.051	38.68
699.235	38.51
699.42	38.64
699.604	38.46
699.789	37.83
699.973	38.64
700.158	39.08
700.342	38.81
700.527	38.95
700.711	38.16
700.895	37.95
701.08	37.8
701.264	37.45
701.448	37.26
701.633	36.15
701.817	36.15
702.001	35.29
702.186	34.37
702.37	34.93
702.554	35.31
702.738	36.23
702.923	36.82
703.107	36.12
703.291	36.11
703.475	37.19
703.659	39.13
703.843	39.2
704.027	39.18
704.212	40.17
704.396	39.38
704.58	38.89
704.764	38.71
704.948	38.24
705.132	38.82
705.316	38.96
705.5	38.67
705.684	37.2
705.868	36.67
706.052	37.12
706.235	37.4
706.419	37.48
706.603	36.79
706.787	35.72
706.971	35.75
707.155	35.58
707.339	35.11
707.522	34.77
707.706	34.98
707.89	35.61
708.074	35.07
708.257	34.62
708.441	34.66
708.625	35.5
708.808	35.17
708.992	35.15
709.176	35.36
709.359	36.6
709.543	36.12
709.727	35.49
709.91	35.65
710.094	35.75
710.277	35.31
710.461	35.59
710.644	35.35
710.828	36.54
711.011	36.94
711.195	36.75
711.378	36.29
711.562	36.79
711.745	36.99
711.928	36.53
712.112	36.62
712.295	37.1
712.478	36.82
712.662	37.48
712.845	37.27
713.028	37.52
713.212	38.36
713.395	38.42
713.578	38.99
713.761	39.04
713.945	39.67
714.128	39.79
714.311	40.25
714.494	40.06
714.677	38.82
714.86	39.12
715.043	38.25
715.227	37.33
715.41	37
715.593	36.13
715.776	37.68
715.959	37.55
716.142	37.25
716.325	36.98
716.508	37.92
716.691	38.34
716.874	38.87
717.057	38.73
717.239	38.73
717.422	38.72
717.605	38.62
717.788	37.02
717.971	37.1
718.154	37.94
718.337	38.06
718.519	37.97
718.702	38.67
718.885	37.44
719.068	36.95
719.25	36.33
719.433	37.07
719.616	37.48
719.798	38.06
719.981	37.78
720.164	37.32
720.346	37.58
720.529	36.78
720.712	37.08
720.894	37.21
721.077	38.66
721.259	39.68
721.442	38.63
721.624	38.93
721.807	39.38
721.989	39.21
722.172	38.29
722.354	38.01
722.537	37.98
722.719	36.64
722.901	36.84
723.084	36.76
723.266	36.7
723.448	37.22
723.631	38.17
723.813	38.52
723.995	38.26
724.178	39.84
724.36	40.08
724.542	39.5
724.724	39.49
724.907	40.03
725.089	40.98
725.271	40.71
725.453	40.82
725.635	39.9
725.817	38.91
725.999	39.85
726.181	39.4
726.364	39.11
726.546	38.94
726.728	39.35
726.91	39
727.092	37.95
727.274	39.33
727.456	38.73
727.638	38.82
727.819	39.41
728.001	39.86
728.183	40.61
728.365	40.54
728.547	41.89
728.729	42.52
728.911	43.78
729.093	43.94
729.274	43.37
729.456	43.01
729.638	43.25
729.82	42.65
730.001	41.11
730.183	39.47
730.365	38.53
730.546	37.64
730.728	37.61
730.91	37.61
731.091	37.64
731.273	36.57
731.455	37.24
731.636	37.15
731.818	36.67
731.999	36.67
732.181	37.48
732.362	37.72
732.544	38.13
732.725	38.37
732.907	36.12
733.088	36.73
733.27	36.56
733.451	36.81
733.633	36.3
733.814	37.41
733.995	37.5
734.177	38.47
734.358	38.2
734.539	39.05
734.721	37.42
734.902	37.57
735.083	37.31
735.264	37.26
735.446	37.03
735.627	36.01
735.808	34.92
735.989	35.64
736.17	35.59
736.351	36.86
736.533	35.57
736.714	36
736.895	36.97
737.076	36.49
737.257	37.85
737.438	37.88
737.619	37.88
737.8	37.86
737.981	37.29
738.162	36.22
738.343	35.87
738.524	35.88
738.705	36.48
738.886	37.32
739.067	38.09
739.247	36.89
739.428	37.3
739.609	38.51
739.79	39.77
739.971	39.63
740.151	38.76
740.332	39.4
740.513	39.97
740.694	39.89
740.874	38.21
741.055	37.16
741.236	38.86
741.417	39.8
741.597	39.06
741.778	39.55
741.958	39
742.139	39.7
742.32	38.07
742.5	37.34
742.681	37.64
742.861	38.35
743.042	38.57
743.222	37.58
743.403	35.17
743.583	36.37
743.764	34.02
743.944	34.15
744.124	32.9
744.305	33.7
744.485	33.86
744.666	31.91
744.846	32.76
745.026	32.97
745.207	33.28
745.387	32.99
745.567	33.6
745.747	35.4
745.928	36.29
746.108	37.78
746.288	37.9
746.468	35.81
746.648	37.2
746.829	36.09
747.009	35.95
747.189	36.13
747.369	37.38
747.549	36.12
747.729	35.69
747.909	36.39
748.089	35.3
748.269	35.04
748.449	37.81
748.629	37.69
748.809	38.39
748.989	36.37
749.169	36.03
749.349	36.02
749.529	35.49
749.709	33.77
749.889	32.76
750.068	34.86
750.248	35.19
750.428	34.72
750.608	35.01
750.788	34.67
750.967	37.03
751.147	37.23
751.327	35.53
751.507	36.33
751.686	37.84
751.866	38.31
752.046	36.54
752.225	37.96
752.405	38.07
752.585	38.65
752.764	38.84
752.944	39.01
753.123	38.94
753.303	41.05
753.482	40.17
753.662	39.54
753.841	37.99
754.021	38
754.2	37.07
754.38	37.5
754.559	37.44
754.739	36.43
754.918	34.6
755.097	33.74
755.277	34.58
755.456	35.8
755.635	35.88
755.815	37.23
755.994	37.92
756.173	36.46
756.352	36.14
756.532	34.88
756.711	35.3
756.89	36.64
757.069	36.67
757.248	34.65
757.427	34.91
757.607	36.61
757.786	37.45
757.965	37.42
758.144	38.62
758.323	38.22
758.502	39.74
758.681	40.27
758.86	39.82
759.039	39.92
759.218	39.38
759.397	41.52
759.576	39.35
759.755	37.77
759.934	37.19
760.113	38.53
760.291	37.62
760.47	37.77
760.649	38.65
760.828	40.26
761.007	40.02
761.186	40.59
761.364	37.16
761.543	37.47
761.722	36.95
761.901	38.31
762.079	36.33
762.258	36.73
762.437	36.8
762.615	36.9
762.794	36.01
762.972	36.4
763.151	37.81
763.33	38.61
763.508	38.97
763.687	39.5
763.865	39.01
764.044	40.78
764.222	40.98
764.401	40.43
764.579	39.78
764.758	39.56
764.936	40.33
765.114	40.03
765.293	41.24
765.471	41.76
765.65	41.6
765.828	40.83
766.006	39.55
766.184	39.48
766.363	38.47
766.541	38.57
766.719	38.93
766.898	37.7
767.076	37.73
767.254	34.81
767.432	35.59
767.61	35.66
767.788	36.95
767.967	36.56
768.145	36.87
768.323	39.25
768.501	39.33
768.679	38.53
768.857	40.73
769.035	40.47
769.213	41.89
769.391	38.55
769.569	38.11
769.747	39.24
769.925	37.28
770.103	38.99
770.281	38.96
770.459	39.4
770.636	39.18
770.814	36.12
770.992	35.79
771.17	34.54
771.348	34.43
771.525	33.29
771.703	31.43
771.881	36.15
772.059	33.47
772.236	32.16
772.414	32.2
772.592	34.29
772.769	33.65
772.947	34.65
773.125	39.09
773.302	41.7
773.48	45.35
773.657	45.86
773.835	44.4
774.013	45.88
774.19	45.42
774.368	46.02
774.545	46.57
774.723	47.18
774.9	45.11
775.077	44.82
775.255	42.72
775.432	43.16
775.61	41.08
775.787	39.4
775.964	38.64
776.142	37.47
776.319	35.39
776.496	33.37
776.674	35.21
776.851	36.86
777.028	34.62
777.205	35.59
777.382	33.04
777.56	33.67
777.737	32.97
777.914	32.21
778.091	32
778.268	34.77
778.445	35.64
778.622	36.53
778.8	35.16
778.977	34.4
779.154	34.7
779.331	34.2
779.508	35.73
779.685	36.28
779.862	38.98
780.038	38.94
780.215	37.57
780.392	37.91
780.569	33
780.746	35.87
780.923	37.97
781.1	37.21
781.277	37.44
781.453	36.72
781.63	37.85
781.807	33.92
781.984	35.35
782.16	37.04
782.337	32.88
782.514	37.18
782.691	34.44
782.867	32.36
783.044	34.44
783.221	35.82
783.397	37.45
783.574	36.33
783.75	39.24
783.927	41.75
784.103	41.76
784.28	44.24
784.456	42.19
784.633	41.96
784.809	42.98
784.986	41.09
785.162	40.97
785.339	42.03
785.515	41.36
785.692	41.52
785.868	40.34
786.044	36.33
786.221	35.68
786.397	34.78
786.573	34.92
786.749	36.02
786.926	37.58
787.102	38.87
787.278	34.51
787.454	33.24
787.631	30.71
787.807	27.7
787.983	30.77
788.159	31.87
788.335	33.65
788.511	33.47
788.687	34.67
788.863	33.52
789.039	33.77
789.216	34.02
789.392	37.17
789.568	39.76
789.744	41.34
789.919	39.97
790.095	40.45
790.271	41.12
790.447	40.38
790.623	36.52
790.799	35.39
790.975	35.57
791.151	36.75
791.327	35.74
791.502	35.59
791.678	33.05
791.854	31.56
792.03	29.61
792.205	30.01
792.381	30.06
792.557	28.17
792.733	31.83
792.908	30.5
793.084	30.65
793.259	30.04
793.435	26.35
793.611	27.4
793.786	29.09
793.962	31.25
794.137	29.84
794.313	29.64
794.488	32.86
794.664	31.31
794.839	30.05
795.015	29.03
795.19	28.12
795.366	29.76
795.541	30.47
795.716	29.26
795.892	26.73
796.067	27.18
796.242	28.12
796.418	29.61
796.593	29.32
796.768	30.56
796.944	31.41
797.119	34.83
797.294	37.38
797.469	40.53
797.644	40.75
797.82	43.36
797.995	42.05
798.17	44.9
798.345	44.58
798.52	45.95
798.695	45.61
798.87	44.53
799.045	42.19
799.22	35.26
799.395	29.11
799.57	31.76
799.745	32.18
799.92	30.97
800.095	29.25
800.27	28.85
800.445	26.66
800.62	24.9
800.795	27.6
800.97	26.45
801.145	30.95
801.319	33.55
801.494	29.83
801.669	27.69
801.844	30.52
802.018	31.62
802.193	34.52
802.368	30.26
802.543	32.56
802.717	31.54
802.892	31.44
803.067	33.14
803.241	31.72
803.416	34.64
803.59	37.64
803.765	33.02
803.94	32.25
804.114	26.57
804.289	31.71
804.463	29.15
804.638	28.29
804.812	29.9
804.986	29.78
805.161	35.15
805.335	33.67
805.51	32.27
805.684	34.77
805.858	33.37
806.033	34.96
806.207	32.82
806.381	31.23
806.556	32.87
806.73	32.18
806.904	35.35
807.078	28.76
807.253	26.15
807.427	26.52
807.601	29.75
807.775	29.55
807.949	27.2
808.123	31.94
808.298	32.78
808.472	30.18
808.646	28.64
808.82	27.99
808.994	32.13
809.168	31.46
809.342	32.44
809.516	28.54
809.69	31.57
809.864	36.42
810.038	34.85
810.212	36.13
810.385	37.13
810.559	39.64
810.733	38.83
810.907	30.75
811.081	31.97
811.255	35.87
811.428	40.83
811.602	36.03
811.776	37.17
811.95	36.23
812.123	36.89
812.297	38.4
812.471	34.84
812.644	30.83
812.818	32.28
812.992	34.42
813.165	31.17
813.339	30.36
813.512	32.96
813.686	26.66
813.86	29.28
814.033	34.31
814.207	32.9
814.38	38.5
814.554	42.09
814.727	49.78
814.9	51.85
815.074	48.62
815.247	46.96
815.421	46.85
815.594	54.35
815.767	55.67
815.941	48.61
816.114	52.1
816.287	52.84
816.46	50.27
816.634	43.84
816.807	42.48
816.98	45.89
817.153	46.59
817.327	43.44
817.5	38.97
817.673	34.22
817.846	37.13
818.019	37.49
818.192	36.56
818.365	31.86
818.538	33.34
818.711	36.21
818.884	32.67
819.057	36.92
819.23	40.66
819.403	38.88
819.576	41.26
819.749	40.54
819.922	36.35
820.095	34.21
820.268	39.17
820.441	40.97
820.614	37.92
820.786	39.75
820.959	38.84
821.132	37.73
821.305	39.06
821.477	39.08
821.65	40.11
821.823	41.96
821.996	39.99
822.168	40.67
822.341	40.26
822.514	40.4
822.686	39.9
822.859	39.03
823.031	40.01
823.204	40.41
823.376	40.56
823.549	39.9
823.722	39.13
823.894	40.19
824.067	40.23
824.239	40.58
824.411	40.01
824.584	40.99
824.756	42.35
824.929	41.55
825.101	40.19
825.273	39.88
825.446	39.41
825.618	40
825.79	39.08
825.963	38.62
826.135	38.88
826.307	39.65
826.479	39.53
826.652	39.69
826.824	39.97
826.996	43.01
827.168	44.85
827.34	46.42
827.512	45.74
827.684	47.16
827.856	46.79
828.029	46.17
828.201	48.65
828.373	49.73
828.545	49.02
828.717	47.6
828.889	44.44
829.061	41.44
829.232	40.95
829.404	42.21
829.576	43.52
829.748	43.02
829.92	43.59
830.092	42.48
830.264	38.85
830.436	39
830.607	38.21
830.779	38.19
830.951	40.27
831.123	40.48
831.294	35.61
831.466	35.31
831.638	34.9
831.809	33.72
831.981	30.35
832.153	34.7
832.324	32.49
832.496	34.93
832.667	34.61
832.839	37.19
833.011	39.45
833.182	43.65
833.354	40.61
833.525	41.35
833.697	42.48
833.868	43.92
834.039	44.73
834.211	42.58
834.382	42.4
834.554	44.67
834.725	43.47
834.896	39.46
835.068	38.42
835.239	39.5
835.41	40.24
835.581	39.94
835.753	40.4
835.924	38.99
836.095	41.73
836.266	42.49
836.438	44.17
836.609	43.75
836.78	49.33
836.951	51.64
837.122	51.65
837.293	53.5
837.464	52.18
837.635	49.48
837.806	45.17
837.977	46.91
838.148	48.7
838.319	45.24
838.49	47.49
838.661	44.06
838.832	44.83
839.003	46.22
839.174	44.97
839.345	46.79
839.516	48.48
839.687	49.2
839.857	50.12
840.028	52.03
840.199	53.41
840.37	47.31
840.54	48.78
840.711	42.85
840.882	41.34
841.053	37.38
841.223	31.85
841.394	29.97
841.564	26.66
841.735	20.7
841.906	15.42
842.076	13.57
842.247	19.71
842.417	11.91
842.588	11.13
842.758	13.65
842.929	11.06
843.099	25.29
843.27	27.84
843.44	31.91
843.611	38.8
843.781	45.35
843.951	43.03
844.122	39.06
844.292	47.2
844.462	49.38
844.633	42.76
844.803	44.57
844.973	37.9
845.144	39.84
845.314	35.6
845.484	34.62
845.654	26.77
845.824	34.62
845.995	37.94
846.165	45.42
846.335	51.93
846.505	51.99
846.675	58.94
846.845	57.97
847.015	44.11
847.185	60.32
847.355	69.1
847.525	88.27
847.695	75.66
847.865	54.9
848.035	40.33
848.205	23.39
848.375	25.87
848.545	16.49
848.715	-13.26
848.884	17.04
849.054	13.52
849.224	1.31
849.394	-27.15
849.564	-29.34
849.733	-10.23
849.903	-6.48
850.073	10.66
850.243	-1.23
850.412	23.29
850.582	41.12
850.752	31.3
850.921	37.91
851.091	42.45
851.26	55.33
851.43	55.94
851.599	36.88
851.769	36.85
851.939	36.48
852.108	39.39
852.278	27.09
852.447	23.51
852.616	26.11
852.786	16.53
852.955	8.63
853.125	10.77
853.294	17.61
853.463	20.4
853.633	11.15
853.802	6.71
853.971	10.87
854.141	15.67
854.31	20.3
854.479	26.62
854.648	27.13
854.818	20.77
854.987	-13.05
855.156	-9.97
855.325	10.88
855.494	21.78
855.663	19.44
855.832	17.5
856.001	23.27
856.171	6.14
856.34	-2.54
856.509	5.17
856.678	12.87
856.847	20.16
857.016	21.89
857.185	26.1
857.353	18.22
857.522	11.43
857.691	8.71
857.86	-5.99
858.029	13.26
858.198	22.18
858.367	11.27
858.535	7.39
858.704	23.06
858.873	25.61
859.042	19.51
859.21	10.31
859.379	23.32
859.548	17.17
859.717	40.01
859.885	43.57
860.054	45.65
860.222	44.46
860.391	57.57
860.56	43.51
860.728	44.48
860.897	51.01
861.065	62.4
861.234	66.28
861.402	72.5
861.571	53.63
861.739	27.78
861.908	-23.57
862.076	-19.15
862.244	-32.78
862.413	-11.83
862.581	-0.47
862.749	-38.31
862.918	-79.35
863.086	-150.63
863.254	-187.92
863.423	-260.71
863.591	-161.87
863.759	-31.41
863.927	-27.95
864.096	-26.19
864.264	-66.31
864.432	-90.34
864.6	-22.05
864.768	1.72
864.936	6.36
865.104	9.6
865.272	9.56
865.44	-0.27
865.608	52.07
865.776	76.41
865.944	101.78
866.112	100.27
866.28	97.31
866.448	76.52
866.616	59.13
866.784	49.83
866.952	39.49
867.12	36.23
867.288	34.83
867.455	21.37
867.623	24.07
867.791	18.79
867.959	5.58
868.127	28.41
868.294	33.53
868.462	30.62
868.63	27.81
868.797	26.05
868.965	20.95
869.133	5.77
869.3	-8.83
869.468	-25.71
869.636	-19.25
869.803	-10.03
869.971	-8.38
870.138	-25.82
870.306	-29.65
870.473	-21.01
870.641	-39.07
870.808	-39.13
870.975	-1.87
871.143	1.4
871.31	20.78
871.478	8.82
871.645	3.37
871.812	-19.54
871.98	0.7
872.147	-23.51
872.314	-6.65
872.482	6.89
872.649	33.65
872.816	19.74
872.983	15.1
873.15	17.61
873.318	3.37
873.485	-5.07
873.652	-11.83
873.819	-5.14
873.986	9.18
874.153	-20.53
874.32	-39.51
874.487	-170.78
874.654	-100.96
874.821	-67.47
874.988	-25.52
875.155	-6.82
875.322	5.66
875.489	15.73
875.656	18.37
875.823	20.47
875.99	42.13
876.157	71.03
876.324	70.1
876.49	57.81
876.657	59.21
876.824	73.31
876.991	93.81
877.157	96.01
877.324	107
877.491	113.44
877.658	91.88
877.824	86.35
877.991	79.25
878.157	91.71
878.324	137.51
878.491	116.48
878.657	50.91
878.824	55.59
878.99	64.07
879.157	71.73
879.323	46.17
879.49	50.55
879.656	44.22
879.823	30.6
879.989	34.87
880.156	37.33
880.322	45.89
880.488	50.26
880.655	43.62
880.821	35.86
880.987	29.06
881.154	25.1
881.32	24.92
881.486	32.19
881.652	33.45
881.819	34.22
881.985	40.33
882.151	43.56
882.317	42.46
882.483	43.06
882.649	41.59
882.816	44.88
882.982	45.02
883.148	48.31
883.314	44.55
883.48	45.42
883.646	46.03
883.812	41.06
883.978	41.49
884.144	43.81
884.31	45.22
884.476	44.7
884.642	44.33
884.807	48.28
884.973	46.96
885.139	50.87
885.305	51.73
885.471	50.52
885.637	51.53
885.802	49.94
885.968	43.07
886.134	35.51
886.3	38.96
886.465	37.8
886.631	39.67
886.797	42.83
886.962	44.55
887.128	43.82
887.293	40.39
887.459	39.58
887.625	45.4
887.79	58.92
887.956	61.86
888.121	58.15
888.287	56.63
888.452	48.11
888.618	36.9
888.783	21.82
