Data from 2937836_Reflection_1.txt Node
Date: Wed Jul 15 16:30:18 EDT 2015
User: robert
Spectrometer: USB4E03001
Autoset integration time: false
Trigger mode: 4
Integration Time (sec): 1.000000E-1
Scans to average: 10
Electric dark correction enabled: true
Nonlinearity correction enabled: false
Boxcar width: 5
Stray light correction enabled: false
XAxis mode: Wavelengths
Stop averaging: false
Number of Pixels in Spectrum: 3648
>>>>>Begin Spectral Data<<<<<
177.566	204.89
177.785	198.22
178.005	-23.83
178.225	87.42
178.445	123.26
178.665	156.85
178.885	62.36
179.105	127.96
179.324	103.21
179.544	139.89
179.764	99.04
179.984	97.51
180.204	25.6
180.423	52.87
180.643	68.09
180.863	125.15
181.083	121.96
181.302	-607.69
181.522	-667.89
181.742	143.28
181.961	159.89
182.181	124.64
182.401	211.62
182.621	317.09
182.84	145.94
183.06	145.93
183.279	77.81
183.499	77.07
183.719	41.53
183.938	46.57
184.158	83.18
184.377	64.46
184.597	54
184.816	21.48
185.036	43.58
185.256	-5.82
185.475	-7.63
185.695	-9.2
185.914	19.71
186.134	34.97
186.353	39.55
186.572	17.39
186.792	30.72
187.011	11.82
187.231	42.62
187.45	37.01
187.67	63.14
187.889	45.82
188.108	69.55
188.328	66.27
188.547	66.35
188.766	53.05
188.986	61.63
189.205	66.57
189.424	82.67
189.644	72.11
189.863	68.21
190.082	74.22
190.302	80.86
190.521	85.27
190.74	67.01
190.959	57.78
191.178	71.07
191.398	-47.09
191.617	-92.39
191.836	-68.31
192.055	-31.22
192.274	3
192.494	-38.67
192.713	-21.35
192.932	-136.77
193.151	43.26
193.37	46.5
193.589	40.86
193.808	30.26
194.027	39.14
194.246	15.66
194.465	13.68
194.685	0.72
194.904	7.64
195.123	-20.82
195.342	-18.89
195.561	12.5
195.78	-18.47
195.999	-61.17
196.218	-10.51
196.436	62.99
196.655	36.79
196.874	-86.92
197.093	4767.69
197.312	243.64
197.531	-96.42
197.75	323.96
197.969	274.87
198.188	80.38
198.407	-37.28
198.625	44.42
198.844	48.05
199.063	71.93
199.282	83.06
199.501	67.65
199.719	63.31
199.938	63.9
200.157	67.09
200.376	53.19
200.594	46.28
200.813	46.51
201.032	48.78
201.251	41.2
201.469	33.27
201.688	13.58
201.907	15.12
202.125	8.45
202.344	8.74
202.563	3.8
202.781	4.74
203	4.18
203.218	-3.7
203.437	-8.69
203.656	-15.86
203.874	-20.38
204.093	2.25
204.311	15.78
204.53	23.58
204.748	38.27
204.967	31.98
205.185	45.06
205.404	50.16
205.622	55.47
205.841	55.79
206.059	66.09
206.278	71.68
206.496	62.15
206.715	27.83
206.933	-76.34
207.151	-253.48
207.37	9309.62
207.588	823.97
207.806	-310.74
208.025	-319.58
208.243	-225.94
208.461	-115.8
208.68	10.94
208.898	-5.49
209.116	165.67
209.335	102.59
209.553	206.09
209.771	217.82
209.989	254
210.208	159.89
210.426	148.79
210.644	185.14
210.862	161.95
211.081	104.86
211.299	81.63
211.517	71.29
211.735	84.59
211.953	76.43
212.171	71.42
212.39	28.82
212.608	27.05
212.826	16.86
213.044	22.53
213.262	4.12
213.48	11.42
213.698	19.57
213.916	34.41
214.134	35.63
214.352	38.87
214.57	43.72
214.788	74.95
215.006	86.58
215.224	93.98
215.442	92.53
215.66	104.23
215.878	112.5
216.096	130.33
216.314	126.52
216.532	139.7
216.75	123.62
216.968	117.39
217.185	93.45
217.403	92
217.621	108.91
217.839	96.05
218.057	68.7
218.275	76.69
218.492	60.38
218.71	57.37
218.928	48.07
219.146	39.51
219.363	36.52
219.581	59.92
219.799	73.23
220.017	88.09
220.234	93.26
220.452	105.99
220.67	81.08
220.887	100.07
221.105	102.73
221.323	98.74
221.54	110.82
221.758	98.78
221.976	105.56
222.193	93.53
222.411	64.54
222.629	66.06
222.846	61.18
223.064	63.37
223.281	40
223.499	46.57
223.716	49.26
223.934	20.73
224.151	23.81
224.369	23.66
224.586	25.77
224.804	38.71
225.021	25.7
225.239	39.55
225.456	38.91
225.674	35.83
225.891	29.69
226.108	25.08
226.326	29.81
226.543	33.87
226.76	38.39
226.978	36.93
227.195	30.56
227.413	27.28
227.63	24.42
227.847	20.91
228.064	23.18
228.282	22.8
228.499	23.66
228.716	23.16
228.934	23.92
229.151	20.62
229.368	18.94
229.585	18.09
229.802	20.45
230.02	16.89
230.237	15.56
230.454	14.66
230.671	16.72
230.888	14.72
231.105	13.31
231.323	13.51
231.54	11.62
231.757	6.68
231.974	5.71
232.191	1.01
232.408	0.32
232.625	-0.18
232.842	-2.96
233.059	-8.43
233.276	3.89
233.493	7.38
233.71	0.36
233.927	8.27
234.144	18.66
234.361	24.55
234.578	29.24
234.795	34
235.012	34.75
235.229	37.04
235.446	38.72
235.663	36.94
235.879	36.33
236.096	40.37
236.313	42.13
236.53	46.61
236.747	43.34
236.964	43.94
237.181	38.6
237.397	41.91
237.614	35.26
237.831	33.31
238.048	30.9
238.264	27.99
238.481	26.37
238.698	23.37
238.915	16.2
239.131	16.14
239.348	12.53
239.565	17.39
239.781	15.46
239.998	22.49
240.215	22.04
240.431	20.6
240.648	22.97
240.865	25.61
241.081	26.3
241.298	26.83
241.514	27.1
241.731	27.59
241.947	26.14
242.164	26.41
242.38	24.89
242.597	25.77
242.814	26.56
243.03	26.36
243.246	25.69
243.463	26.18
243.679	25.22
243.896	23.9
244.112	23.9
244.329	24.14
244.545	24.21
244.762	23.75
244.978	20.36
245.194	19.3
245.411	18.47
245.627	15.81
245.843	15.09
246.06	15.52
246.276	16.65
246.492	15.95
246.709	14.91
246.925	15.32
247.141	15.88
247.357	16.38
247.574	15.85
247.79	15.45
248.006	15.37
248.222	14.89
248.439	14.87
248.655	13.37
248.871	12.89
249.087	13.83
249.303	13.02
249.519	10.68
249.736	11.9
249.952	11.94
250.168	11.43
250.384	10.64
250.6	9.55
250.816	9.57
251.032	9.35
251.248	9.84
251.464	9.6
251.68	10.77
251.896	14.82
252.112	15.2
252.328	16.95
252.544	18.75
252.76	16.35
252.976	16.34
253.192	16.42
253.408	16.13
253.624	16.65
253.84	16.93
254.056	15.49
254.272	13.74
254.487	11.03
254.703	10.84
254.919	8.45
255.135	14.96
255.351	15.96
255.567	15.12
255.782	17.44
255.998	16.44
256.214	13.22
256.43	14.44
256.646	14.46
256.861	13.22
257.077	12.05
257.293	8.68
257.508	6.59
257.724	7.05
257.94	7.61
258.155	6.89
258.371	7.27
258.587	8.64
258.802	8.08
259.018	7.71
259.234	9.02
259.449	8.46
259.665	10.02
259.88	9.81
260.096	9.61
260.312	9.64
260.527	10.64
260.743	11.08
260.958	11.57
261.174	11.63
261.389	12.07
261.605	12.23
261.82	12.62
262.036	12.93
262.251	13.59
262.466	14.53
262.682	15.45
262.897	14.19
263.113	13.44
263.328	13.07
263.543	13.84
263.759	14.59
263.974	13.82
264.189	15.26
264.405	14.85
264.62	13.61
264.835	12.43
265.051	10.69
265.266	13.83
265.481	15.13
265.696	12.4
265.912	14.14
266.127	11.97
266.342	12.15
266.557	11.12
266.773	9.63
266.988	11.28
267.203	11.68
267.418	11.76
267.633	9.67
267.848	10.4
268.064	13.8
268.279	13.22
268.494	13.71
268.709	13.29
268.924	13.84
269.139	14.16
269.354	13.58
269.569	13.3
269.784	14.39
269.999	13.62
270.214	13.26
270.429	12.24
270.644	12.89
270.859	12.42
271.074	12.6
271.289	11.74
271.504	12.97
271.719	13.55
271.934	13.12
272.149	11.32
272.363	12.51
272.578	13.61
272.793	13.76
273.008	11.94
273.223	12.87
273.438	13.55
273.653	14.21
273.867	12.74
274.082	13.05
274.297	14.48
274.512	16.51
274.726	16.53
274.941	13.73
275.156	13.59
275.371	14.12
275.585	13.23
275.8	11.48
276.015	11.91
276.229	14.43
276.444	13.58
276.659	12.43
276.873	12.37
277.088	11.24
277.302	10.97
277.517	10.36
277.732	9.48
277.946	8.91
278.161	9.99
278.375	7.5
278.59	6.9
278.804	7.27
279.019	8.77
279.233	7.45
279.448	7.32
279.662	7.64
279.877	7.8
280.091	9.59
280.306	10.88
280.52	10.49
280.735	11.62
280.949	11.11
281.163	11.42
281.378	10.69
281.592	12.04
281.806	13.1
282.021	13.67
282.235	14.62
282.449	14.98
282.664	14.76
282.878	16.3
283.092	16.99
283.307	18.11
283.521	18.13
283.735	19.01
283.949	18.25
284.164	17.62
284.378	17.15
284.592	16.03
284.806	15.4
285.02	14.25
285.234	12.91
285.449	12.49
285.663	11.35
285.877	10.87
286.091	10.49
286.305	11.62
286.519	10.69
286.733	10.12
286.947	9.53
287.161	9.98
287.375	10.76
287.589	10.4
287.803	10.22
288.017	10.24
288.231	10.65
288.445	9.22
288.659	8.91
288.873	10.79
289.087	13.5
289.301	13.75
289.515	12.26
289.729	13.61
289.943	14.79
290.157	15.06
290.371	14.94
290.584	14.95
290.798	15.93
291.012	15.93
291.226	15.27
291.44	13.66
291.654	13.3
291.867	12.22
292.081	11.47
292.295	9.81
292.509	9.76
292.722	10.9
292.936	9.17
293.15	9.14
293.364	8.42
293.577	9.21
293.791	10.25
294.005	12.54
294.218	14.12
294.432	14.25
294.645	16.62
294.859	16.45
295.073	17.37
295.286	18.14
295.5	18.46
295.713	18.88
295.927	19.15
296.14	18.03
296.354	17.79
296.568	19.03
296.781	18.27
296.994	17.01
297.208	17.69
297.421	15.63
297.635	15.47
297.848	15.15
298.062	15.72
298.275	15.15
298.489	15.63
298.702	14.88
298.915	13.87
299.129	13.57
299.342	14.28
299.555	12.95
299.769	15.42
299.982	16.79
300.195	17.48
300.409	15.52
300.622	15.86
300.835	16.92
301.048	16.47
301.262	16.61
301.475	18.24
301.688	17.89
301.901	18.38
302.115	16.18
302.328	14.88
302.541	15.73
302.754	15.92
302.967	15.88
303.18	14.77
303.393	16.16
303.607	17.22
303.82	17.05
304.033	15.26
304.246	15.43
304.459	16.74
304.672	17.43
304.885	15.96
305.098	15.9
305.311	16.09
305.524	16.74
305.737	16.33
305.95	16.35
306.163	15.34
306.376	18.48
306.589	18.98
306.802	18.3
307.015	18.94
307.228	19.85
307.44	20.18
307.653	21.37
307.866	21.75
308.079	22.07
308.292	19.51
308.505	21.51
308.718	19.04
308.93	19.06
309.143	20.64
309.356	19.68
309.569	19.12
309.781	21.1
309.994	20.37
310.207	19.73
310.42	19.41
310.632	21.39
310.845	20.8
311.058	21.45
311.27	21.11
311.483	19.49
311.696	18.75
311.908	19.07
312.121	17.81
312.333	17.28
312.546	16.28
312.759	14.93
312.971	13.77
313.184	10.81
313.396	11.94
313.609	11.33
313.821	10.59
314.034	11.66
314.246	10.65
314.459	9.61
314.671	11.52
314.884	13.49
315.096	15.81
315.309	16.63
315.521	18.57
315.733	17.33
315.946	16.58
316.158	17.88
316.371	18.15
316.583	17.38
316.795	17.06
317.008	15.94
317.22	14.75
317.432	14.8
317.644	15.78
317.857	16.03
318.069	16.84
318.281	18.26
318.494	18.08
318.706	17.93
318.918	19.08
319.13	20.12
319.342	19.57
319.555	19.98
319.767	18.99
319.979	17.25
320.191	17.17
320.403	16.91
320.615	15.43
320.827	15.69
321.039	17.09
321.252	18.11
321.464	19.04
321.676	18.76
321.888	18.46
322.1	20.95
322.312	23.13
322.524	22.61
322.736	23.29
322.948	23.72
323.16	24.38
323.372	24.23
323.584	22.28
323.796	21.41
324.007	20.28
324.219	21.96
324.431	20.08
324.643	18.31
324.855	17.83
325.067	16.31
325.279	16.86
325.491	16.6
325.702	15.99
325.914	16.47
326.126	16.35
326.338	17.08
326.55	15.4
326.761	16
326.973	15.76
327.185	15.98
327.396	16.55
327.608	16.7
327.82	16.32
328.032	13.09
328.243	13.88
328.455	13.81
328.666	13.45
328.878	15.87
329.09	15.9
329.301	16.24
329.513	18.1
329.725	17.34
329.936	17.42
330.148	16.38
330.359	17.87
330.571	17.88
330.782	18.17
330.994	17.88
331.205	15.4
331.417	14.52
331.628	14.69
331.84	15.86
332.051	15.9
332.262	15.99
332.474	17.36
332.685	19.19
332.897	18.18
333.108	19.78
333.319	20.92
333.531	21.7
333.742	21.47
333.953	21.1
334.165	19.56
334.376	20.71
334.587	21.79
334.799	21.87
335.01	21.56
335.221	22.43
335.432	22.02
335.644	21.66
335.855	21.23
336.066	20
336.277	19.43
336.488	20.07
336.7	19.76
336.911	19.27
337.122	18.3
337.333	18.9
337.544	18.33
337.755	17.55
337.966	16.91
338.177	16.75
338.388	19.11
338.599	18.81
338.811	16.89
339.022	15.57
339.233	14.3
339.444	14.08
339.655	13.98
339.866	13.4
340.076	13.83
340.287	14.71
340.498	15.41
340.709	14.67
340.92	15.58
341.131	17.04
341.342	19.85
341.553	20.25
341.764	21.87
341.975	21.93
342.185	22.62
342.396	22.31
342.607	22.5
342.818	23.89
343.029	23.39
343.239	22.98
343.45	22.66
343.661	21.19
343.872	21.96
344.082	20.44
344.293	19.35
344.504	18.79
344.714	17.9
344.925	19.24
345.136	17.46
345.346	18.03
345.557	17.8
345.768	17.39
345.978	17.23
346.189	16.85
346.399	17.45
346.61	18.28
346.821	18.65
347.031	19.5
347.242	18.75
347.452	18.73
347.663	19.22
347.873	20.02
348.084	21.44
348.294	21.01
348.504	19.4
348.715	19.53
348.925	17.63
349.136	17.05
349.346	16.49
349.557	15.75
349.767	15.87
349.977	15.92
350.188	16.14
350.398	15.72
350.608	17.56
350.819	18.19
351.029	19.11
351.239	20.89
351.449	22.36
351.66	21.21
351.87	21.5
352.08	21.75
352.29	21.2
352.501	20.82
352.711	19.29
352.921	17.98
353.131	18.56
353.341	18.06
353.552	17.14
353.762	16.41
353.972	18.09
354.182	17.54
354.392	18.26
354.602	18.23
354.812	18.01
355.022	19.11
355.232	20.01
355.442	20.06
355.652	19.22
355.862	19.43
356.072	20.65
356.282	20.36
356.492	20.65
356.702	19.28
356.912	18.69
357.122	19.16
357.332	19
357.542	19.12
357.752	18.86
357.962	19.36
358.171	18.72
358.381	17.49
358.591	17.92
358.801	17.61
359.011	18.43
359.221	18.69
359.43	18.85
359.64	19.06
359.85	17.63
360.06	18.21
360.269	17.46
360.479	17.84
360.689	18.79
360.899	18.23
361.108	19.64
361.318	20.3
361.528	20.32
361.737	19.98
361.947	19.15
362.156	19.75
362.366	19.78
362.576	20.4
362.785	20.48
362.995	20.3
363.204	20.61
363.414	19.41
363.623	18.02
363.833	17.85
364.042	18.11
364.252	18.65
364.461	17.56
364.671	17.02
364.88	17.14
365.09	17.94
365.299	17.41
365.509	18.26
365.718	18.37
365.927	18.62
366.137	18.99
366.346	18.76
366.555	18.25
366.765	18.61
366.974	18.45
367.183	17.85
367.393	16.98
367.602	16.53
367.811	15.89
368.021	16.13
368.23	16.46
368.439	15.85
368.648	15.32
368.857	15.92
369.067	15.68
369.276	14.88
369.485	16.05
369.694	15.75
369.903	15.85
370.112	15.34
370.321	15.32
370.531	14.59
370.74	14.56
370.949	14.99
371.158	14.69
371.367	15.46
371.576	16.9
371.785	16.32
371.994	16.5
372.203	16.38
372.412	16.26
372.621	16.16
372.83	17.11
373.039	17.51
373.248	17.24
373.457	16.42
373.666	16.32
373.874	15.27
374.083	15.6
374.292	15.9
374.501	16.02
374.71	16.28
374.919	15.97
375.128	14.88
375.336	14.64
375.545	14.44
375.754	14.45
375.963	14.2
376.171	14.37
376.38	13.4
376.589	13.16
376.798	13.42
377.006	12.95
377.215	12.43
377.424	13.27
377.632	13.4
377.841	13.12
378.05	13.04
378.258	12.63
378.467	12.75
378.675	13.03
378.884	13.12
379.093	12.87
379.301	12.99
379.51	13.57
379.718	12.78
379.927	12.07
380.135	12.1
380.344	12.76
380.552	13.02
380.761	13.13
380.969	13.14
381.177	13.04
381.386	13.43
381.594	13.55
381.803	13.08
382.011	13.86
382.219	14.83
382.428	15.19
382.636	14.9
382.845	14.55
383.053	14
383.261	13.37
383.469	13.02
383.678	12.76
383.886	12.98
384.094	12.79
384.302	12.19
384.511	11.92
384.719	12.04
384.927	12.21
385.135	12.31
385.343	12.49
385.552	13.14
385.76	13.25
385.968	12.61
386.176	12
386.384	12.26
386.592	12.32
386.8	11.67
387.008	11.49
387.216	11.53
387.424	11.68
387.633	11.52
387.841	11.19
388.049	10.81
388.257	11.58
388.465	11.79
388.672	11.36
388.88	11.34
389.088	11.84
389.296	11.47
389.504	10.98
389.712	10.99
389.92	10.6
390.128	10.08
390.336	10.21
390.544	9.69
390.751	9.4
390.959	9.55
391.167	9.25
391.375	9.03
391.583	9.39
391.79	9.72
391.998	9.68
392.206	9.63
392.414	10.09
392.621	10.19
392.829	10.44
393.037	10.74
393.244	10.72
393.452	11.03
393.66	10.57
393.867	10.64
394.075	10.17
394.283	9.58
394.49	10.32
394.698	9.94
394.905	9.82
395.113	9.46
395.32	9.27
395.528	9.09
395.735	9.12
395.943	9.65
396.15	9.03
396.358	9.32
396.565	9.96
396.773	9.34
396.98	9.81
397.188	9.46
397.395	9.43
397.602	9.15
397.81	9.39
398.017	8.93
398.225	8.97
398.432	9.43
398.639	9.38
398.847	8.94
399.054	8.98
399.261	8.71
399.468	9.09
399.676	9.07
399.883	9.19
400.09	9.13
400.297	9.07
400.505	8.88
400.712	9.09
400.919	9.2
401.126	9.28
401.333	9.25
401.54	9.31
401.748	9.05
401.955	8.91
402.162	8.91
402.369	8.94
402.576	8.87
402.783	8.98
402.99	8.82
403.197	8.69
403.404	8.92
403.611	8.92
403.818	8.84
404.025	9.04
404.232	9.07
404.439	8.93
404.646	8.84
404.853	9.28
405.06	9.27
405.267	9.14
405.474	9.02
405.681	8.84
405.887	8.96
406.094	9.1
406.301	9.06
406.508	9.31
406.715	9.43
406.922	9.46
407.128	9.4
407.335	9
407.542	8.68
407.749	8.69
407.955	8.38
408.162	8.3
408.369	8.22
408.575	8.55
408.782	8.13
408.989	8.01
409.195	8.12
409.402	8.13
409.609	8.41
409.815	8.45
410.022	8.39
410.228	8.53
410.435	8.56
410.642	8.36
410.848	7.71
411.055	7.89
411.261	7.8
411.468	7.59
411.674	7.64
411.881	7.67
412.087	7.67
412.294	7.61
412.5	7.73
412.706	7.53
412.913	7.59
413.119	8.05
413.326	7.88
413.532	8.2
413.738	8.01
413.945	7.71
414.151	7.78
414.357	7.77
414.564	7.9
414.77	7.84
414.976	7.9
415.182	7.83
415.389	7.7
415.595	7.75
415.801	7.67
416.007	7.9
416.214	7.86
416.42	7.67
416.626	7.84
416.832	7.78
417.038	8
417.244	7.93
417.45	8.01
417.657	7.95
417.863	8.24
418.069	8.26
418.275	8.12
418.481	8.06
418.687	8.12
418.893	8.04
419.099	8.06
419.305	8.12
419.511	8.14
419.717	8.18
419.923	8.36
420.129	8.32
420.335	8.26
420.541	8.41
420.746	8.46
420.952	8.58
421.158	8.39
421.364	8.5
421.57	8.42
421.776	8.38
421.982	8.4
422.187	8.27
422.393	8.14
422.599	8.17
422.805	8.21
423.01	8.05
423.216	7.93
423.422	8.13
423.628	8.05
423.833	7.99
424.039	8.1
424.245	8.04
424.45	8.05
424.656	8.01
424.862	8.01
425.067	7.88
425.273	8.06
425.478	8.21
425.684	8.18
425.889	8.1
426.095	8.21
426.301	8.06
426.506	8.06
426.712	7.92
426.917	7.91
427.123	7.88
427.328	7.95
427.533	7.89
427.739	7.77
427.944	7.95
428.15	8.25
428.355	7.86
428.561	8.12
428.766	8.08
428.971	8.19
429.177	8.06
429.382	7.93
429.587	7.72
429.793	7.81
429.998	7.68
430.203	7.36
430.408	7.15
430.614	7.28
430.819	7.05
431.024	7.15
431.229	7.35
431.434	7.65
431.64	7.66
431.845	7.77
432.05	7.58
432.255	7.47
432.46	7.67
432.665	7.58
432.87	7.46
433.076	7.5
433.281	7.44
433.486	7.33
433.691	7.25
433.896	7.35
434.101	7.24
434.306	7.48
434.511	7.58
434.716	7.81
434.921	7.76
435.126	8.04
435.331	8.14
435.535	7.85
435.74	7.93
435.945	7.85
436.15	7.77
436.355	7.74
436.56	7.57
436.765	7.52
436.97	7.3
437.174	7.57
437.379	7.5
437.584	7.44
437.789	7.67
437.993	7.48
438.198	7.59
438.403	7.6
438.608	7.8
438.812	7.7
439.017	7.88
439.222	7.6
439.426	7.51
439.631	7.36
439.836	7.31
440.04	7.36
440.245	7.32
440.45	7.27
440.654	7.22
440.859	7.2
441.063	7.27
441.268	7.11
441.472	7.24
441.677	7.22
441.881	7.17
442.086	7.07
442.29	6.92
442.495	6.97
442.699	6.89
442.904	7.08
443.108	6.98
443.312	6.88
443.517	6.9
443.721	6.93
443.925	6.83
444.13	7.07
444.334	7.19
444.538	7.37
444.743	7.35
444.947	7.54
445.151	7.39
445.356	7.43
445.56	7.46
445.764	7.37
445.968	7.38
446.173	7.44
446.377	7.32
446.581	7.5
446.785	7.43
446.989	7.52
447.193	7.34
447.398	7.45
447.602	7.44
447.806	7.48
448.01	7.47
448.214	7.31
448.418	7.13
448.622	7.28
448.826	6.88
449.03	6.91
449.234	6.7
449.438	6.64
449.642	6.5
449.846	6.32
450.05	6.28
450.254	6.58
450.458	6.68
450.662	6.64
450.866	6.79
451.069	6.83
451.273	6.65
451.477	6.84
451.681	6.99
451.885	7.2
452.089	7.4
452.292	7.37
452.496	7.3
452.7	7.29
452.904	7.47
453.107	7.25
453.311	7.42
453.515	7.66
453.719	7.6
453.922	7.57
454.126	7.33
454.33	7.39
454.533	7.43
454.737	7.27
454.94	7.3
455.144	7.3
455.348	7.26
455.551	7.5
455.755	7.23
455.958	7.25
456.162	7.37
456.365	7.37
456.569	7.29
456.772	7.19
456.976	7.12
457.179	6.99
457.383	6.97
457.586	6.96
457.79	6.76
457.993	6.89
458.196	6.91
458.4	6.85
458.603	6.75
458.807	6.72
459.01	6.85
459.213	6.96
459.417	7.06
459.62	7.16
459.823	7.15
460.026	7.12
460.23	7.01
460.433	6.81
460.636	6.83
460.839	7.07
461.042	7.09
461.246	7
461.449	6.91
461.652	6.88
461.855	6.96
462.058	6.87
462.261	6.69
462.464	6.83
462.668	6.99
462.871	6.9
463.074	6.69
463.277	6.8
463.48	6.72
463.683	6.73
463.886	6.69
464.089	6.56
464.292	6.6
464.495	6.91
464.698	6.91
464.901	7.1
465.104	7.28
465.306	7.24
465.509	6.97
465.712	7.15
465.915	7.24
466.118	7.14
466.321	6.88
466.524	6.91
466.726	6.74
466.929	6.79
467.132	6.7
467.335	6.65
467.538	6.61
467.74	6.86
467.943	6.68
468.146	6.68
468.348	6.96
468.551	7.19
468.754	7.13
468.956	7.17
469.159	7.07
469.362	6.93
469.564	6.83
469.767	7.1
469.969	6.82
470.172	6.86
470.375	6.79
470.577	6.64
470.78	6.58
470.982	6.76
471.185	6.93
471.387	6.89
471.59	7.11
471.792	7.07
471.995	6.97
472.197	7.26
472.399	7.43
472.602	7.38
472.804	7.4
473.007	7.54
473.209	7.42
473.411	7.32
473.614	7.03
473.816	7.02
474.018	7.12
474.22	6.88
474.423	6.86
474.625	6.85
474.827	6.77
475.03	6.78
475.232	6.64
475.434	6.88
475.636	6.79
475.838	7.27
476.04	7.11
476.243	7.24
476.445	7.37
476.647	7.19
476.849	7.04
477.051	7.07
477.253	7.06
477.455	7.2
477.657	7.05
477.859	7.04
478.061	6.82
478.263	6.89
478.465	6.65
478.667	6.81
478.869	6.81
479.071	6.82
479.273	6.88
479.475	6.88
479.677	6.67
479.879	6.75
480.081	6.94
480.283	7.13
480.485	7.17
480.686	7.31
480.888	7.27
481.09	7.32
481.292	7.32
481.494	7.41
481.695	7.35
481.897	7.33
482.099	7.18
482.301	7.16
482.502	6.99
482.704	6.97
482.906	7.04
483.107	7.04
483.309	7.06
483.511	7.09
483.712	7.02
483.914	7.05
484.115	7.1
484.317	7.11
484.519	7.09
484.72	7.12
484.922	7.15
485.123	7.08
485.325	7.02
485.526	6.99
485.728	6.96
485.929	6.98
486.131	7.01
486.332	6.97
486.534	6.98
486.735	6.92
486.936	6.96
487.138	6.92
487.339	6.89
487.541	6.89
487.742	6.84
487.943	6.82
488.144	6.89
488.346	6.87
488.547	6.89
488.748	6.86
488.95	6.96
489.151	6.92
489.352	6.86
489.553	6.85
489.755	6.94
489.956	7.01
490.157	7.08
490.358	7.04
490.559	7.07
490.76	7.12
490.961	7.13
491.163	7.07
491.364	7.1
491.565	7.21
491.766	7.2
491.967	7.25
492.168	7.23
492.369	7.14
492.57	7.04
492.771	6.98
492.972	6.95
493.173	7.03
493.374	7.1
493.575	7.14
493.776	7.08
493.976	7.09
494.177	6.91
494.378	7
494.579	7.2
494.78	7.38
494.981	7.36
495.182	7.43
495.382	7.35
495.583	7.37
495.784	7.5
495.985	7.43
496.185	7.42
496.386	7.46
496.587	7.46
496.788	7.4
496.988	7.41
497.189	7.26
497.39	7.03
497.59	6.97
497.791	6.72
497.992	6.65
498.192	6.52
498.393	6.39
498.593	6.33
498.794	6.32
498.994	6.34
499.195	6.28
499.395	6.49
499.596	6.65
499.796	6.74
499.997	6.78
500.197	6.65
500.398	6.91
500.598	7.16
500.799	7.43
500.999	7.3
501.199	7.25
501.4	7.26
501.6	7.15
501.801	7.16
502.001	7.11
502.201	7.31
502.402	7.42
502.602	7.4
502.802	7.44
503.002	7.36
503.203	7.45
503.403	7.5
503.603	7.62
503.803	7.68
504.003	7.6
504.204	7.64
504.404	7.51
504.604	7.54
504.804	7.55
505.004	7.66
505.204	7.74
505.404	7.65
505.604	7.64
505.804	7.53
506.005	7.46
506.205	7.38
506.405	7.31
506.605	7.51
506.805	7.58
507.005	7.75
507.204	7.67
507.404	7.58
507.604	7.78
507.804	7.73
508.004	7.87
508.204	8.18
508.404	8.15
508.604	8.44
508.804	8.26
509.003	8.14
509.203	7.97
509.403	8.06
509.603	8.1
509.803	8.01
510.002	7.98
510.202	7.92
510.402	7.93
510.602	8.22
510.801	8.09
511.001	8.21
511.201	8.27
511.4	8.24
511.6	8.1
511.8	7.98
511.999	8.02
512.199	8.15
512.398	8.1
512.598	7.87
512.797	7.89
512.997	7.91
513.197	7.99
513.396	8.11
513.596	8.2
513.795	8.31
513.994	8.42
514.194	8.48
514.393	8.53
514.593	8.74
514.792	8.78
514.992	8.66
515.191	8.67
515.39	8.65
515.59	8.65
515.789	8.63
515.988	8.69
516.188	8.75
516.387	8.76
516.586	8.8
516.786	8.78
516.985	8.81
517.184	8.95
517.383	8.99
517.582	8.99
517.782	8.99
517.981	8.95
518.18	9
518.379	9
518.578	9.08
518.777	9
518.976	8.92
519.176	9.06
519.375	9.02
519.574	8.96
519.773	9.02
519.972	8.96
520.171	8.99
520.37	8.98
520.569	9.08
520.768	9
520.967	9.17
521.166	9.18
521.365	9.07
521.564	9.01
521.762	9.13
521.961	9.14
522.16	9.22
522.359	9.31
522.558	9.24
522.757	9.15
522.956	9.04
523.154	8.99
523.353	9.11
523.552	9.08
523.751	9.2
523.949	9.35
524.148	9.37
524.347	9.46
524.546	9.46
524.744	9.76
524.943	9.79
525.142	10.04
525.34	10.02
525.539	10.18
525.737	10.31
525.936	10.35
526.135	10.32
526.333	10.39
526.532	10.37
526.73	10.48
526.929	10.35
527.127	10.36
527.326	10.26
527.524	10.38
527.723	10.31
527.921	10.38
528.12	10.36
528.318	10.28
528.516	10.22
528.715	10.31
528.913	10.27
529.112	10.3
529.31	10.34
529.508	10.4
529.707	10.36
529.905	10.34
530.103	10.35
530.301	10.38
530.5	10.4
530.698	10.43
530.896	10.24
531.094	10.31
531.293	10.31
531.491	10.32
531.689	10.37
531.887	10.43
532.085	10.48
532.283	10.51
532.481	10.62
532.68	10.71
532.878	10.86
533.076	10.99
533.274	10.98
533.472	10.93
533.67	10.92
533.868	10.96
534.066	10.94
534.264	10.89
534.462	10.9
534.66	10.89
534.858	10.92
535.056	10.85
535.253	10.93
535.451	10.96
535.649	10.95
535.847	11.05
536.045	11.05
536.243	11.09
536.441	11.2
536.638	11.17
536.836	11.19
537.034	11.18
537.232	11.13
537.43	11.15
537.627	11.18
537.825	11.48
538.023	11.49
538.22	11.62
538.418	11.64
538.616	11.79
538.813	11.86
539.011	12.01
539.209	12.2
539.406	12.21
539.604	12.26
539.801	12.34
539.999	12.28
540.196	12.3
540.394	12.23
540.591	12.33
540.789	12.4
540.986	12.54
541.184	12.56
541.381	12.6
541.579	12.69
541.776	12.71
541.974	12.75
542.171	12.78
542.368	12.82
542.566	12.91
542.763	12.96
542.96	12.92
543.158	12.9
543.355	12.92
543.552	12.85
543.75	12.96
543.947	12.95
544.144	12.98
544.341	13.01
544.539	12.96
544.736	12.93
544.933	12.95
545.13	13.13
545.327	13.17
545.524	13.12
545.722	13.22
545.919	13.16
546.116	13.32
546.313	13.41
546.51	13.51
546.707	13.63
546.904	13.66
547.101	13.71
547.298	13.64
547.495	13.61
547.692	13.63
547.889	13.68
548.086	13.86
548.283	13.91
548.48	13.91
548.677	13.83
548.874	14.11
549.07	14.18
549.267	14.05
549.464	14
549.661	14.1
549.858	14.32
550.055	14.72
550.251	14.73
550.448	14.81
550.645	14.74
550.842	14.96
551.038	14.74
551.235	14.96
551.432	15.08
551.628	15.27
551.825	15.25
552.022	15.32
552.218	15.13
552.415	15.17
552.612	15.22
552.808	15.43
553.005	15.49
553.201	15.56
553.398	15.44
553.594	15.64
553.791	15.79
553.987	15.98
554.184	16
554.38	16.08
554.577	16.04
554.773	16.1
554.97	16.19
555.166	16.28
555.362	16.39
555.559	16.9
555.755	16.81
555.952	16.86
556.148	16.88
556.344	16.92
556.541	16.92
556.737	17.07
556.933	17.2
557.129	17.28
557.326	17.38
557.522	17.41
557.718	17.03
557.914	17.34
558.11	17.51
558.307	17.65
558.503	17.75
558.699	17.87
558.895	18.01
559.091	18.02
559.287	17.88
559.483	18.05
559.679	18.16
559.876	18.53
560.072	18.61
560.268	18.62
560.464	18.46
560.66	18.55
560.856	18.6
561.052	18.67
561.247	18.82
561.443	19.23
561.639	18.98
561.835	19.16
562.031	18.89
562.227	18.74
562.423	18.98
562.619	19.21
562.815	19.32
563.01	19.61
563.206	19.65
563.402	19.42
563.598	19.29
563.793	19.68
563.989	19.67
564.185	19.97
564.381	20.2
564.576	19.96
564.772	20.08
564.968	20.12
565.163	20.06
565.359	20.39
565.555	20.78
565.75	20.77
565.946	20.74
566.141	20.89
566.337	20.78
566.532	20.84
566.728	20.86
566.923	20.86
567.119	21.1
567.314	21.14
567.51	21.11
567.705	21.1
567.901	21.19
568.096	21.12
568.292	21.08
568.487	21.57
568.682	21.58
568.878	21.72
569.073	21.9
569.268	21.84
569.464	21.89
569.659	22.07
569.854	22.11
570.05	22.42
570.245	22.7
570.44	22.75
570.635	22.6
570.831	22.71
571.026	22.74
571.221	22.71
571.416	22.77
571.611	22.77
571.806	22.47
572.002	22.65
572.197	22.71
572.392	22.6
572.587	22.77
572.782	22.85
572.977	22.76
573.172	22.83
573.367	22.9
573.562	22.85
573.757	22.9
573.952	23.04
574.147	23.08
574.342	23
574.537	23.07
574.732	23.04
574.927	23.09
575.121	23.3
575.316	23.44
575.511	23.51
575.706	23.62
575.901	23.67
576.096	23.78
576.29	23.94
576.485	23.92
576.68	24.06
576.875	24.1
577.069	24.1
577.264	24.27
577.459	24.23
577.654	24.06
577.848	23.93
578.043	24.13
578.238	24.28
578.432	24.17
578.627	24.34
578.821	24.35
579.016	24.47
579.21	24.7
579.405	24.72
579.6	24.77
579.794	25.12
579.989	25.28
580.183	25.28
580.378	25.28
580.572	24.97
580.766	25.25
580.961	25.54
581.155	25.63
581.35	25.56
581.544	25.57
581.738	25.75
581.933	25.88
582.127	26.16
582.321	26.28
582.516	26.26
582.71	26.69
582.904	26.32
583.099	26.22
583.293	26.29
583.487	26.13
583.681	25.69
583.875	25.5
584.07	25.64
584.264	25.45
584.458	25.51
584.652	25.47
584.846	25.02
585.04	25.31
585.234	25.09
585.428	24.91
585.623	25.02
585.817	25.67
586.011	25.77
586.205	25.87
586.399	25.83
586.593	25.62
586.787	25.87
586.981	26.38
587.174	26.21
587.368	26.53
587.562	26.6
587.756	26.58
587.95	26.22
588.144	26.33
588.338	26.04
588.532	26.19
588.725	26.41
588.919	26.53
589.113	26.49
589.307	26.19
589.501	26.4
589.694	26.19
589.888	26.23
590.082	26.14
590.275	26.16
590.469	26.27
590.663	26.24
590.856	26.11
591.05	25.88
591.244	26.14
591.437	26.77
591.631	26.6
591.824	26.93
592.018	27.03
592.212	27.33
592.405	27.3
592.599	27.2
592.792	27.37
592.986	27.49
593.179	27.52
593.372	27.44
593.566	27.42
593.759	27.26
593.953	27.45
594.146	27.67
594.339	27.62
594.533	27.79
594.726	27.96
594.92	28.14
595.113	28.1
595.306	28.07
595.499	28.18
595.693	28.33
595.886	28.5
596.079	28.48
596.272	28.17
596.466	28.1
596.659	28.19
596.852	28.22
597.045	28.11
597.238	28.27
597.431	28.24
597.624	28.11
597.818	27.91
598.011	27.69
598.204	27.48
598.397	27.77
598.59	27.78
598.783	27.65
598.976	27.66
599.169	27.64
599.362	27.58
599.555	27.49
599.748	27.34
599.941	27.19
600.134	27.38
600.326	27.59
600.519	27.31
600.712	27.26
600.905	27.4
601.098	27.49
601.291	27.48
601.483	27.74
601.676	27.8
601.869	28.05
602.062	28.43
602.255	28.49
602.447	28.53
602.64	28.65
602.833	29.1
603.025	28.95
603.218	28.94
603.411	29.13
603.603	28.93
603.796	28.99
603.989	29.17
604.181	29.05
604.374	29.17
604.566	29.22
604.759	29.3
604.951	29.31
605.144	29.46
605.336	29.57
605.529	29.43
605.721	29.45
605.914	29.73
606.106	29.48
606.299	29.45
606.491	29.4
606.683	29.37
606.876	29.26
607.068	29.18
607.26	29.27
607.453	29.26
607.645	29.39
607.837	29.38
608.03	29.34
608.222	29.27
608.414	29.19
608.606	29.05
608.799	29.04
608.991	29.25
609.183	29.01
609.375	28.8
609.567	28.58
609.759	28.39
609.952	28.12
610.144	28.08
610.336	28.26
610.528	28.35
610.72	28.45
610.912	28.43
611.104	28.13
611.296	28.23
611.488	28.26
611.68	28.31
611.872	28.57
612.064	29.15
612.256	29.02
612.448	28.76
612.64	28.76
612.832	28.55
613.023	28.51
613.215	28.63
613.407	28.84
613.599	28.74
613.791	28.75
613.983	28.23
614.174	27.93
614.366	28.15
614.558	28.03
614.75	28.1
614.941	28.12
615.133	27.89
615.325	28
615.516	27.84
615.708	27.82
615.9	28
616.091	28.3
616.283	28.47
616.475	28.61
616.666	28.8
616.858	28.71
617.049	28.84
617.241	28.92
617.432	28.96
617.624	28.93
617.815	29.15
618.007	29.13
618.198	29.01
618.39	28.92
618.581	28.75
618.773	28.85
618.964	29.21
619.155	29.06
619.347	29.2
619.538	29.22
619.729	29.25
619.921	29.07
620.112	29.02
620.303	29.13
620.494	29.21
620.686	29.16
620.877	29.21
621.068	29.15
621.259	29.19
621.451	29.49
621.642	29.65
621.833	30.15
622.024	30.13
622.215	30.15
622.406	30.29
622.597	30.53
622.788	30.6
622.98	30.52
623.171	30.4
623.362	30.57
623.553	30.31
623.744	30.32
623.935	29.89
624.126	30.28
624.317	30.31
624.508	30.41
624.698	30.05
624.889	30.13
625.08	30.07
625.271	29.98
625.462	30.13
625.653	30.35
625.844	30.06
626.034	30.4
626.225	30.29
626.416	30.37
626.607	30.66
626.798	30.87
626.988	30.92
627.179	30.87
627.37	30.86
627.56	31.13
627.751	30.84
627.942	31.07
628.132	30.7
628.323	30.6
628.514	30.49
628.704	30.17
628.895	30.21
629.085	30.29
629.276	30.51
629.466	30.62
629.657	30.46
629.847	30.9
630.038	30.77
630.228	31.15
630.419	31.09
630.609	31.12
630.8	31.37
630.99	31.34
631.181	31.21
631.371	31.27
631.561	31.21
631.752	31.08
631.942	31.23
632.132	31.19
632.323	31.19
632.513	31.52
632.703	31.16
632.893	30.91
633.084	30.8
633.274	30.76
633.464	30.66
633.654	30.65
633.844	30.8
634.034	30.64
634.225	31.03
634.415	31.06
634.605	31.07
634.795	31.72
634.985	31.63
635.175	31.47
635.365	31.54
635.555	31.41
635.745	31.68
635.935	31.75
636.125	31.8
636.315	31.67
636.505	31.71
636.695	31.74
636.885	31.69
637.075	31.92
637.265	32.09
637.455	32.17
637.644	32.34
637.834	32.03
638.024	32.08
638.214	31.62
638.404	31.32
638.593	30.99
638.783	31.16
638.973	30.89
639.163	30.82
639.352	30.78
639.542	30.54
639.732	30.61
639.921	30.53
640.111	30.17
640.301	30.49
640.49	30.84
640.68	30.95
640.87	30.45
641.059	30.45
641.249	30.29
641.438	30.89
641.628	30.81
641.817	30.86
642.007	31.16
642.196	31.19
642.386	30.76
642.575	30.56
642.764	30.03
642.954	30.63
643.143	30.8
643.333	30.69
643.522	30.07
643.711	30.31
643.901	30.45
644.09	30.22
644.279	30.09
644.469	30.29
644.658	30.3
644.847	30.99
645.036	30.78
645.226	30.24
645.415	30.37
645.604	30.57
645.793	30.4
645.982	30.35
646.171	30.51
646.361	30.99
646.55	31.19
646.739	31.19
646.928	31.25
647.117	30.6
647.306	30.85
647.495	31.04
647.684	30.86
647.873	31.51
648.062	31.17
648.251	31.17
648.44	30.72
648.629	30.86
648.818	31.15
649.007	30.99
649.196	31.79
649.384	32.07
649.573	32.07
649.762	32.24
649.951	31.82
650.14	32.19
650.328	31.95
650.517	32.5
650.706	32.48
650.895	32.29
651.083	32.05
651.272	31.79
651.461	31.63
651.65	31.67
651.838	31.38
652.027	31.2
652.216	31.06
652.404	31.18
652.593	30.78
652.781	31.07
652.97	31.17
653.158	31.38
653.347	31.22
653.535	31.26
653.724	31.29
653.912	31.27
654.101	31.81
654.289	31.37
654.478	31.17
654.666	31.41
654.855	30.86
655.043	30.83
655.231	30.44
655.42	30.6
655.608	30.67
655.796	30.75
655.985	31.16
656.173	30.76
656.361	31.66
656.55	32.19
656.738	32.01
656.926	32.31
657.114	32.07
657.302	32.69
657.491	32.37
657.679	32.26
657.867	32.23
658.055	31.52
658.243	31.43
658.431	31.49
658.619	31.31
658.807	31.26
658.996	31.4
659.184	31.48
659.372	30.99
659.56	31.7
659.748	31.93
659.936	32.17
660.124	32.63
660.311	32.72
660.499	32.67
660.687	32.84
660.875	32.98
661.063	32.85
661.251	32.71
661.439	32.96
661.627	32.29
661.814	32.07
662.002	31.54
662.19	31.45
662.378	31.83
662.565	31.68
662.753	31.51
662.941	31.28
663.129	31.33
663.316	31.55
663.504	31.34
663.692	31.23
663.879	30.89
664.067	31.03
664.254	31.01
664.442	30.58
664.63	30.32
664.817	30.17
665.005	30
665.192	29.4
665.38	29.41
665.567	29.25
665.755	29.6
665.942	30.13
666.13	30.14
666.317	30.32
666.504	30.49
666.692	30.58
666.879	30.49
667.067	30.66
667.254	30.96
667.441	31.28
667.629	31.78
667.816	31.91
668.003	31.72
668.19	31.67
668.378	31.64
668.565	31.65
668.752	31.12
668.939	31.67
669.127	31.74
669.314	32.02
669.501	32.05
669.688	32.02
669.875	31.72
670.062	31.73
670.249	32.06
670.436	32.38
670.623	32.78
670.81	33.49
670.997	32.98
671.184	33.16
671.371	32.92
671.558	32.51
671.745	32.81
671.932	32.85
672.119	33.1
672.306	32.84
672.493	32.69
672.68	32.47
672.867	31.76
673.054	32.04
673.24	32.05
673.427	32.15
673.614	31.97
673.801	31.82
673.988	31.94
674.174	32.26
674.361	32.09
674.548	32.06
674.734	31.63
674.921	32.02
675.108	31.98
675.294	31.6
675.481	31.75
675.668	32.22
675.854	32.1
676.041	32.06
676.227	31.54
676.414	31.75
676.601	31.68
676.787	31.85
676.974	31.84
677.16	31.53
677.347	32.33
677.533	31.88
677.719	31.93
677.906	32.44
678.092	32.19
678.279	32.35
678.465	32.48
678.651	33.11
678.838	33.22
679.024	33.45
679.21	34.04
679.397	33.75
679.583	34.11
679.769	34.43
679.955	33.86
680.142	33.91
680.328	33.76
680.514	33.96
680.7	32.93
680.886	32.93
681.073	32.75
681.259	32.45
681.445	32.39
681.631	32.56
681.817	31.76
682.003	31.39
682.189	31.66
682.375	32.17
682.561	31.86
682.747	32.43
682.933	32.38
683.119	32.65
683.305	32.8
683.491	32.73
683.677	32.34
683.863	32.93
684.049	33.69
684.235	33.54
684.42	33.31
684.606	33.06
684.792	33
684.978	32.62
685.164	32.59
685.349	32.52
685.535	32.39
685.721	32.81
685.907	33.11
686.092	33.51
686.278	34.12
686.464	33.61
686.649	33.72
686.835	33.81
687.021	34.55
687.206	34.46
687.392	34.75
687.577	34.67
687.763	34.35
687.948	33.7
688.134	33.04
688.319	32.66
688.505	32.42
688.69	32.58
688.876	32.86
689.061	32.39
689.247	31.77
689.432	31.15
689.618	31.4
689.803	31.56
689.988	32.09
690.174	32.1
690.359	32.34
690.544	32.73
690.73	32.79
690.915	32.21
691.1	32.72
691.285	33.37
691.471	33.49
691.656	33.71
691.841	33.62
692.026	33.4
692.211	32.79
692.396	32.11
692.582	32.44
692.767	32.74
692.952	32.62
693.137	32.88
693.322	33.08
693.507	33.06
693.692	32.81
693.877	32.53
694.062	32.52
694.247	33.31
694.432	33.83
694.617	33.8
694.802	33.73
694.987	33.96
695.172	32.85
695.357	32.29
695.541	33.07
695.726	32.81
695.911	33.37
696.096	33.33
696.281	33.31
696.466	33.05
696.65	32.93
696.835	32.44
697.02	32.64
697.204	32.52
697.389	32.59
697.574	32.53
697.759	32.55
697.943	32.23
698.128	32.41
698.312	33
698.497	33.24
698.682	33.53
698.866	33.56
699.051	33.31
699.235	33.81
699.42	34.21
699.604	33.99
699.789	33.98
699.973	34.02
700.158	33.87
700.342	33.3
700.527	33.03
700.711	32.44
700.895	32.29
701.08	32.38
701.264	32.13
701.448	31.82
701.633	31.54
701.817	31.52
702.001	32
702.186	32.19
702.37	32.2
702.554	32.64
702.738	32.75
702.923	32.9
703.107	33
703.291	32.72
703.475	32.7
703.659	33.03
703.843	33.21
704.027	33.27
704.212	33.33
704.396	33.13
704.58	32.72
704.764	32.84
704.948	33.07
705.132	32.82
705.316	32.86
705.5	32.44
705.684	32.03
705.868	31.97
706.052	30.61
706.235	30.05
706.419	31.07
706.603	31.15
706.787	31.58
706.971	31.84
707.155	31.64
707.339	31.69
707.522	30.44
707.706	30.54
707.89	30.57
708.074	31.46
708.257	31.27
708.441	29.77
708.625	29.32
708.808	29.05
708.992	28.81
709.176	29.69
709.359	30.49
709.543	32.49
709.727	32.91
709.91	33.21
710.094	32.45
710.277	33.47
710.461	34.47
710.644	34.6
710.828	34.91
711.011	34.84
711.195	34.96
711.378	34.45
711.562	34.05
711.745	33.66
711.928	33.62
712.112	34.01
712.295	33.53
712.478	33
712.662	33.69
712.845	33.64
713.028	33.54
713.212	32.96
713.395	32.72
713.578	32.67
713.761	33.17
713.945	33.52
714.128	34
714.311	34.06
714.494	34.26
714.677	33.78
714.86	33.69
715.043	33.23
715.227	32.93
715.41	32.83
715.593	33.11
715.776	32.68
715.959	31.63
716.142	31.05
716.325	31.02
716.508	31.46
716.691	31.89
716.874	31.71
717.057	32.83
717.239	33.58
717.422	33.89
717.605	33.64
717.788	33.92
717.971	34.88
718.154	36.11
718.337	35.71
718.519	35.07
718.702	34.89
718.885	34.78
719.068	33.62
719.25	34.78
719.433	35.14
719.616	35.22
719.798	34.46
719.981	34.18
720.164	33.78
720.346	34.87
720.529	35.43
720.712	34.4
720.894	34.43
721.077	35.34
721.259	34.61
721.442	34.23
721.624	35.04
721.807	35.17
721.989	34.82
722.172	34.1
722.354	33.13
722.537	32.86
722.719	33.72
722.901	33.85
723.084	33.56
723.266	32.16
723.448	32.65
723.631	31.82
723.813	32.9
723.995	33.52
724.178	33.77
724.36	34.1
724.542	35.04
724.724	35.22
724.907	35.81
725.089	35.26
725.271	35.94
725.453	36.58
725.635	36.35
725.817	36.46
725.999	35.75
726.181	35.55
726.364	35.62
726.546	35.44
726.728	34.64
726.91	33.72
727.092	35.34
727.274	35.37
727.456	34.5
727.638	34.78
727.819	34.12
728.001	35.21
728.183	36.4
728.365	36.75
728.547	35.79
728.729	36.29
728.911	37.46
729.093	37.35
729.274	37.28
729.456	37.04
729.638	36.73
729.82	36.63
730.001	35.51
730.183	34.12
730.365	33.75
730.546	34.02
730.728	33.73
730.91	33.18
731.091	32.2
731.273	31.92
731.455	31.61
731.636	32
731.818	32.58
731.999	33.47
732.181	33.59
732.362	33.87
732.544	33.7
732.725	34.68
732.907	34.29
733.088	34.66
733.27	35.39
733.451	35.8
733.633	34.82
733.814	34.05
733.995	32.82
734.177	33.67
734.358	32.81
734.539	33
734.721	31.35
734.902	31.65
735.083	31.62
735.264	31.22
735.446	31.14
735.627	32.14
735.808	32.21
735.989	32.83
736.17	32.15
736.351	32.36
736.533	31.83
736.714	32.15
736.895	31.5
737.076	30.48
737.257	30.39
737.438	29.86
737.619	29.92
737.8	30.35
737.981	30.5
738.162	30.56
738.343	31.42
738.524	32.38
738.705	32.57
738.886	33.61
739.067	34.4
739.247	34.59
739.428	35.06
739.609	35.48
739.79	35.88
739.971	36.42
740.151	36.64
740.332	35.59
740.513	36.64
740.694	37.61
740.874	36.76
741.055	35.77
741.236	35.4
741.417	35.91
741.597	35.57
741.778	34.82
741.958	34.68
742.139	35.26
742.32	35.43
742.5	32.87
742.681	33.76
742.861	34.12
743.042	35.74
743.222	36.2
743.403	35.47
743.583	35.62
743.764	35.82
743.944	35.15
744.124	35.03
744.305	36.14
744.485	37.04
744.666	35.39
744.846	34.44
745.026	33.42
745.207	32.48
745.387	32.31
745.567	31.61
745.747	32.2
745.928	32.23
746.108	30.74
746.288	29.25
746.468	29.97
746.648	28.45
746.829	28.28
747.009	29.55
747.189	30.14
747.369	31.54
747.549	32.05
747.729	31.92
747.909	31.36
748.089	31.97
748.269	33.66
748.449	33.05
748.629	34.46
748.809	34.35
748.989	34.74
749.169	34.19
749.349	33.85
749.529	33.67
749.709	33.23
749.889	34.58
750.068	33.96
750.248	33.21
750.428	33.08
750.608	33.62
750.788	34.3
750.967	33.21
751.147	33.02
751.327	32.45
751.507	30.74
751.686	30.82
751.866	30.25
752.046	32.13
752.225	32.59
752.405	32.36
752.585	31.63
752.764	32.38
752.944	32.58
753.123	33.09
753.303	34.01
753.482	34.81
753.662	33.72
753.841	33.98
754.021	32.85
754.2	31.43
754.38	32.24
754.559	32.56
754.739	32.86
754.918	33.28
755.097	34.41
755.277	33.37
755.456	33.73
755.635	34.89
755.815	34.88
755.994	34.29
756.173	36.2
756.352	35.31
756.532	35.8
756.711	36.77
756.89	36.99
757.069	36.57
757.248	36.33
757.427	37.29
757.607	37.14
757.786	37.05
757.965	37.33
758.144	35.67
758.323	36.28
758.502	35.35
758.681	34.83
758.86	34.26
759.039	32.8
759.218	32.79
759.397	30.45
759.576	29.2
759.755	29.68
759.934	30.04
760.113	30.09
760.291	30.5
760.47	31.47
760.649	29.81
760.828	28.74
761.007	29.77
761.186	30.22
761.364	32.16
761.543	33.16
761.722	32.47
761.901	32.5
762.079	34.16
762.258	34.65
762.437	34.94
762.615	35.51
762.794	36.69
762.972	35.99
763.151	35.99
763.33	36.22
763.508	35.83
763.687	35.14
763.865	35.34
764.044	34.23
764.222	34.08
764.401	33.95
764.579	34.25
764.758	33.89
764.936	35.11
765.114	35.95
765.293	35.88
765.471	37.42
765.65	38.44
765.828	37.39
766.006	38.19
766.184	37.75
766.363	37.81
766.541	37.4
766.719	37.99
766.898	37.87
767.076	36.63
767.254	35.85
767.432	35.29
767.61	35.59
767.788	36.51
767.967	36.85
768.145	36.94
768.323	35.9
768.501	36.24
768.679	35.27
768.857	34.11
769.035	32.4
769.213	34.65
769.391	33.54
769.569	32.31
769.747	35.13
769.925	34.69
770.103	34.82
770.281	35.54
770.459	35.2
770.636	36.18
770.814	37.87
770.992	40.29
771.17	38.67
771.348	38.74
771.525	40.1
771.703	38.95
771.881	40.64
772.059	40.29
772.236	39.99
772.414	39.99
772.592	39.55
772.769	38.02
772.947	38.13
773.125	39.25
773.302	39.58
773.48	38.97
773.657	38.33
773.835	35.78
774.013	33.36
774.19	32.16
774.368	32.61
774.545	31.25
774.723	30.51
774.9	29.78
775.077	30.47
775.255	29.98
775.432	29.97
775.61	27.5
775.787	26.44
775.964	27.45
776.142	28.88
776.319	27.08
776.496	27.57
776.674	28.16
776.851	27.28
777.028	25.93
777.205	26.02
777.382	27.37
777.56	29.45
777.737	31.04
777.914	33.85
778.091	33.19
778.268	36.88
778.445	36.58
778.622	37.59
778.8	37.9
778.977	39.42
779.154	40.11
779.331	38.4
779.508	38.07
779.685	37.31
779.862	34.21
780.038	34.31
780.215	32.68
780.392	32.4
780.569	30.89
780.746	31.5
780.923	28.95
781.1	28.5
781.277	28.5
781.453	27.61
781.63	28.69
781.807	30.87
781.984	33.23
782.16	32.76
782.337	35.38
782.514	36.23
782.691	34.16
782.867	34.85
783.044	35.28
783.221	36.25
783.397	36.41
783.574	37.37
783.75	36.16
783.927	33.73
784.103	34.47
784.28	32.41
784.456	31.76
784.633	32.46
784.809	30.3
784.986	31.48
785.162	30.33
785.339	33.57
785.515	33.44
785.692	32.08
785.868	32.56
786.044	35.15
786.221	33.89
786.397	35.03
786.573	36.56
786.749	38.68
786.926	37.64
787.102	38.54
787.278	35.64
787.454	33.9
787.631	35.09
787.807	34.94
787.983	32.35
788.159	32.22
788.335	32.09
788.511	31.13
788.687	30.99
788.863	33.23
789.039	33.2
789.216	34.84
789.392	34.18
789.568	34.79
789.744	34.7
789.919	34.91
790.095	34.32
790.271	33.88
790.447	36.1
790.623	36.88
790.799	35.86
790.975	33.68
791.151	31.9
791.327	33.76
791.502	34.34
791.678	36.6
791.854	35.43
792.03	37.87
792.205	39.51
792.381	36.46
792.557	34.42
792.733	31.22
792.908	30.97
793.084	33.31
793.259	33.38
793.435	32.02
793.611	29.99
793.786	33.37
793.962	31.87
794.137	31.29
794.313	33.6
794.488	33.74
794.664	34.37
794.839	35.4
795.015	36.64
795.19	34.66
795.366	34.38
795.541	36.42
795.716	34.73
795.892	34.26
796.067	34.9
796.242	34.6
796.418	39.13
796.593	39.12
796.768	38.76
796.944	37.35
797.119	37.05
797.294	39.63
797.469	37.04
797.644	37.38
797.82	37.58
797.995	36.02
798.17	35.97
798.345	33.98
798.52	35.63
798.695	36.49
798.87	35.94
799.045	39.05
799.22	35.65
799.395	37.22
799.57	36.3
799.745	37.89
799.92	37.45
800.095	36.26
800.27	34.17
800.445	32.72
800.62	31.29
800.795	28.87
800.97	27.94
801.145	30.27
801.319	28.78
801.494	28.23
801.669	28.21
801.844	30.03
802.018	31.63
802.193	30.2
802.368	30.83
802.543	32.83
802.717	37.69
802.892	36.9
803.067	36.08
803.241	35.78
803.416	36.09
803.59	36.95
803.765	35.92
803.94	34.36
804.114	36.43
804.289	33.14
804.463	31.78
804.638	31.94
804.812	30.09
804.986	27.97
805.161	31.07
805.335	30.43
805.51	28.19
805.684	28.98
805.858	28.21
806.033	26.95
806.207	32.53
806.381	35.39
806.556	34.21
806.73	33.68
806.904	33.51
807.078	29.37
807.253	28.63
807.427	28.76
807.601	25.17
807.775	25.77
807.949	29.55
808.123	30.3
808.298	31.63
808.472	30.75
808.646	34.26
808.82	37.15
808.994	41.3
809.168	43.81
809.342	46.67
809.516	51.99
809.69	56.5
809.864	49.13
810.038	49.44
810.212	48.53
810.385	46.56
810.559	45.76
810.733	41.23
810.907	36.11
811.081	36.96
811.255	33.13
811.428	30.87
811.602	26.77
811.776	32.66
811.95	28.59
812.123	28.92
812.297	28.21
812.471	29.74
812.644	34.43
812.818	36.71
812.992	37
813.165	42.93
813.339	45.85
813.512	46.3
813.686	45.14
813.86	44.73
814.033	41.05
814.207	41.6
814.38	43.42
814.554	41.11
814.727	40.11
814.9	39.46
815.074	37.89
815.247	36.48
815.421	36
815.594	41.21
815.767	40.8
815.941	42
816.114	44.59
816.287	40.02
816.46	42.12
816.634	42.28
816.807	39.27
816.98	44.65
817.153	42
817.327	39
817.5	30.3
817.673	32.88
817.846	33.22
818.019	31.95
818.192	32.76
818.365	36.08
818.538	35.37
818.711	33.77
818.884	27.18
819.057	26.31
819.23	31.57
819.403	33.12
819.576	34.93
819.749	35.02
819.922	34.89
820.095	35.07
820.268	33.57
820.441	36.52
820.614	37.31
820.786	37.92
820.959	38.49
821.132	33.94
821.305	35.45
821.477	35.15
821.65	35.36
821.823	36.05
821.996	35.38
822.168	34.84
822.341	34.51
822.514	35.27
822.686	34.03
822.859	34.53
823.031	35.81
823.204	35.68
823.376	34.68
823.549	35.09
823.722	35.33
823.894	36.33
824.067	36.22
824.239	36.37
824.411	36.42
824.584	38.24
824.756	38.33
824.929	38.16
825.101	38.29
825.273	39.27
825.446	38.7
825.618	38.5
825.79	37.76
825.963	38.63
826.135	38.08
826.307	37.24
826.479	36.01
826.652	35.73
826.824	37.31
826.996	36.87
827.168	37.15
827.34	38.62
827.512	38.48
827.684	38.78
827.856	38.05
828.029	37.66
828.201	38.99
828.373	40.25
828.545	41.03
828.717	41.19
828.889	39.16
829.061	39.17
829.232	37.78
829.404	36.53
829.576	38.42
829.748	38.98
829.92	40.05
830.092	40.44
830.264	39.72
830.436	37.9
830.607	36.47
830.779	40.87
830.951	42.49
831.123	43.06
831.294	42.72
831.466	39.29
831.638	38.56
831.809	39.5
831.981	38.91
832.153	38.18
832.324	39.07
832.496	34.8
832.667	31.78
832.839	31.07
833.011	24.76
833.182	24.95
833.354	22.82
833.525	24.48
833.697	25.75
833.868	22.06
834.039	21.63
834.211	22.53
834.382	24.83
834.554	27.61
834.725	26.84
834.896	30.5
835.068	32.92
835.239	35.7
835.41	36.03
835.581	34.6
835.753	35.55
835.924	37.73
836.095	38.69
836.266	39.02
836.438	37.71
836.609	37.19
836.78	39.76
836.951	39.25
837.122	37.86
837.293	35.32
837.464	37.23
837.635	39.92
837.806	36.74
837.977	35.32
838.148	35.98
838.319	35.34
838.49	36.31
838.661	30.91
838.832	31
839.003	31.96
839.174	31.52
839.345	35
839.516	34.54
839.687	35.49
839.857	36.81
840.028	36.38
840.199	35.35
840.37	33.68
840.54	33.32
840.711	27.42
840.882	29.69
841.053	30.94
841.223	20.67
841.394	22.74
841.564	23.56
841.735	28.17
841.906	27.66
842.076	29.99
842.247	28.9
842.417	31.05
842.588	35.47
842.758	37.55
842.929	37.29
843.099	47.53
843.27	50.06
843.44	48.36
843.611	33.73
843.781	33.72
843.951	37.57
844.122	47.19
844.292	45.07
844.462	51.18
844.633	42.66
844.803	34.02
844.973	28.74
845.144	24.5
845.314	35.92
845.484	40.93
845.654	38.69
845.824	27.1
845.995	16.18
846.165	15.07
846.335	12.64
846.505	25.95
846.675	38.85
846.845	37.13
847.015	35.04
847.185	28.49
847.355	21.85
847.525	16.33
847.695	22.37
847.865	29.9
848.035	35.45
848.205	37.6
848.375	35.86
848.545	42.57
848.715	44.83
848.884	36.71
849.054	29.8
849.224	34.39
849.394	40.43
849.564	41.15
849.733	34.71
849.903	34.72
850.073	41.16
850.243	44.36
850.412	34.8
850.582	24.37
850.752	30.3
850.921	37.33
851.091	37.72
851.26	42.37
851.43	47.1
851.599	55.33
851.769	60.03
851.939	52.42
852.108	40.77
852.278	57.51
852.447	76.85
852.616	79.93
852.786	82.58
852.955	71.37
853.125	87.68
853.294	62.12
853.463	35.42
853.633	32.12
853.802	37.27
853.971	40.28
854.141	20.33
854.31	24.81
854.479	36.2
854.648	32.7
854.818	33.86
854.987	28.79
855.156	35.53
855.325	37.14
855.494	30.82
855.663	22.58
855.832	27.5
856.001	32.18
856.171	28.4
856.34	16.09
856.509	21.7
856.678	25.86
856.847	28.22
857.016	32.03
857.185	36.31
857.353	40.25
857.522	37.64
857.691	29.36
857.86	21.44
858.029	21.96
858.198	35.13
858.367	26.81
858.535	28.87
858.704	29.73
858.873	21.32
859.042	19.58
859.21	22.87
859.379	35.26
859.548	45.13
859.717	41.68
859.885	36.39
860.054	29.01
860.222	32.45
860.391	29.93
860.56	14.78
860.728	23.25
860.897	30.26
861.065	30.19
861.234	7.66
861.402	9.26
861.571	19.03
861.739	6.04
861.908	7.34
862.076	3.69
862.244	19.28
862.413	43.59
862.581	46.78
862.749	32.76
862.918	21.7
863.086	26.14
863.254	32.04
863.423	35.09
863.591	46.08
863.759	46.52
863.927	55.06
864.096	38.34
864.264	26.79
864.432	21.98
864.6	26.24
864.768	31.7
864.936	29.86
865.104	19.35
865.272	3.38
865.44	6.62
865.608	-0.62
865.776	-4.71
865.944	-3.61
866.112	17.47
866.28	20.83
866.448	25.24
866.616	18.84
866.784	45.74
866.952	48.99
867.12	55.65
867.288	54.98
867.455	49.18
867.623	50.57
867.791	62.79
867.959	48.57
868.127	46.14
868.294	48.36
868.462	53.52
868.63	44.45
868.797	45.87
868.965	51.27
869.133	43.9
869.3	42.19
869.468	42.43
869.636	25.69
869.803	7.27
869.971	20.11
870.138	0.48
870.306	-28.95
870.473	-44.76
870.641	-1.19
870.808	3.04
870.975	7.55
871.143	-7.19
871.31	-24.54
871.478	-3.58
871.645	11.46
871.812	-4.24
871.98	7.16
872.147	10.03
872.314	9.49
872.482	-3.28
872.649	-15.8
872.816	-2.65
872.983	19.03
873.15	19.47
873.318	22.94
873.485	46.28
873.652	67.74
873.819	72.37
873.986	86.48
874.153	108.02
874.32	81.77
874.487	73.36
874.654	55.9
874.821	60.64
874.988	64.65
875.155	54.87
875.322	53.82
875.489	47.84
875.656	36.69
875.823	30.99
875.99	27.37
876.157	23.13
876.324	23.61
876.49	29.86
876.657	21.7
876.824	33.14
876.991	30.08
877.157	35.27
877.324	37.67
877.491	50.44
877.658	47.49
877.824	38.74
877.991	45.21
878.157	50.09
878.324	48.95
878.491	46.47
878.657	46.26
878.824	47.57
878.99	42.78
879.157	37.62
879.323	23.63
879.49	29.93
879.656	36.26
879.823	35.17
879.989	35.72
880.156	33.54
880.322	53
880.488	46.59
880.655	62.65
880.821	64.83
880.987	68.61
881.154	62.27
881.32	52.58
881.486	53.16
881.652	51.28
881.819	42.69
881.985	38.8
882.151	34.44
882.317	37.62
882.483	35.05
882.649	35.86
882.816	34.91
882.982	35.21
883.148	34.18
883.314	33.61
883.48	33.71
883.646	37.47
883.812	36.62
883.978	38.49
884.144	37.17
884.31	38.77
884.476	38.3
884.642	37.88
884.807	40.49
884.973	40.4
885.139	43.17
885.305	44.79
885.471	43.05
885.637	46.1
885.802	43.4
885.968	43.36
886.134	41.6
886.3	37.72
886.465	40.12
886.631	38.68
886.797	37.45
886.962	34.26
887.128	23.36
887.293	33.12
887.459	37.65
887.625	36.68
887.79	33.64
887.956	31.33
888.121	34.81
888.287	34.33
888.452	34.09
888.618	48.04
888.783	46.04
