Data from 2937865_Reflection_1.txt Node
Date: Wed Jul 15 15:12:53 EDT 2015
User: robert
Spectrometer: USB4E03001
Autoset integration time: false
Trigger mode: 4
Integration Time (sec): 1.000000E-1
Scans to average: 10
Electric dark correction enabled: true
Nonlinearity correction enabled: false
Boxcar width: 5
Stray light correction enabled: false
XAxis mode: Wavelengths
Stop averaging: false
Number of Pixels in Spectrum: 3648
>>>>>Begin Spectral Data<<<<<
177.566	126.18
177.785	-53.51
178.005	2000.49
178.225	-1135.49
178.445	1054.05
178.665	187.73
178.885	119.29
179.105	88.85
179.324	87.76
179.544	71.48
179.764	62.05
179.984	44.11
180.204	-50.07
180.423	-460.8
180.643	-735.5
180.863	-1129.72
181.083	-218.3
181.302	-50.4
181.522	34.12
181.742	-87.1
181.961	-64.52
182.181	-84.81
182.401	-25.32
182.621	11.64
182.84	-8.3
183.06	21.75
183.279	24.29
183.499	33.13
183.719	19.74
183.938	-9.06
184.158	57.03
184.377	44.47
184.597	65.73
184.816	54.25
185.036	70.28
185.256	92.91
185.475	75.94
185.695	67.88
185.914	74.97
186.134	113.43
186.353	89.85
186.572	63.1
186.792	153.81
187.011	79.29
187.231	-235.96
187.45	39.3
187.67	44.15
187.889	49.36
188.108	12.12
188.328	-31.15
188.547	-12.03
188.766	19.11
188.986	47.85
189.205	25.68
189.424	51.96
189.644	57.99
189.863	58.63
190.082	75.32
190.302	79.6
190.521	137.98
190.74	154.77
190.959	131.27
191.178	154.98
191.398	114.12
191.617	136.92
191.836	151.22
192.055	125.59
192.274	119.43
192.494	834.42
192.713	177.03
192.932	-147.15
193.151	-156.68
193.37	238.26
193.589	343.08
193.808	224
194.027	-61.28
194.246	-95.76
194.465	44.23
194.685	107.93
194.904	34.83
195.123	-9.12
195.342	152.34
195.561	538.28
195.78	77.4
195.999	66.45
196.218	249.01
196.436	587.28
196.655	54.75
196.874	141.84
197.093	111.86
197.312	190.55
197.531	137.45
197.75	118.62
197.969	158.81
198.188	107.07
198.407	123.52
198.625	86.46
198.844	133.19
199.063	213.2
199.282	17160
199.501	216.67
199.719	94.58
199.938	194.51
200.157	134.4
200.376	68.04
200.594	89.32
200.813	99.35
201.032	65.15
201.251	29.12
201.469	60.98
201.688	49.18
201.907	54.27
202.125	56.34
202.344	45.37
202.563	50.52
202.781	79.29
203	74.65
203.218	70.9
203.437	100.1
203.656	82.49
203.874	112.01
204.093	80.38
204.311	91.04
204.53	96.8
204.748	207.55
204.967	177.38
205.185	268.19
205.404	236.01
205.622	271.24
205.841	96.03
206.059	177.93
206.278	259.33
206.496	-109.11
206.715	-112.48
206.933	-4.97
207.151	123.74
207.37	64.86
207.588	140.9
207.806	-184.02
208.025	3215.79
208.243	229.88
208.461	-32.74
208.68	-32.23
208.898	3.46
209.116	45.24
209.335	59.98
209.553	68.4
209.771	81.45
209.989	79.12
210.208	94.27
210.426	88.8
210.644	129.86
210.862	149.69
211.081	102.11
211.299	96.51
211.517	92.53
211.735	107.6
211.953	126.5
212.171	112.57
212.39	131.95
212.608	170.69
212.826	173.56
213.044	135.11
213.262	134.76
213.48	112.76
213.698	382.9
213.916	187.37
214.134	143.99
214.352	154.91
214.57	96.45
214.788	110.65
215.006	94.06
215.224	113.81
215.442	102
215.66	90.68
215.878	160.19
216.096	111.89
216.314	116.53
216.532	98.7
216.75	135.29
216.968	120.58
217.185	102.87
217.403	107.83
217.621	95.65
217.839	92.69
218.057	88.79
218.275	64.62
218.492	67.94
218.71	68.51
218.928	63.69
219.146	37.15
219.363	38.56
219.581	21.6
219.799	14.2
220.017	-18.01
220.234	-41.55
220.452	-14.99
220.67	-45.6
220.887	-10.48
221.105	-8.1
221.323	16.32
221.54	27.53
221.758	9.94
221.976	-26.72
222.193	1.11
222.411	29.97
222.629	28.36
222.846	23.56
223.064	58.78
223.281	71.1
223.499	64.99
223.716	40.17
223.934	44.69
224.151	38.45
224.369	74.34
224.586	76.77
224.804	21.51
225.021	70.87
225.239	70.98
225.456	56.76
225.674	71.19
225.891	76.81
226.108	82.39
226.326	74.37
226.543	80.35
226.76	73.59
226.978	66.2
227.195	60.26
227.413	44.02
227.63	44.85
227.847	44.19
228.064	37.73
228.282	36.15
228.499	30.64
228.716	33.08
228.934	32.25
229.151	30.67
229.368	31.48
229.585	34.94
229.802	38.89
230.02	36.07
230.237	33.66
230.454	33.83
230.671	33.01
230.888	35.15
231.105	34.72
231.323	34.97
231.54	37.3
231.757	41.44
231.974	37.24
232.191	36.59
232.408	37.92
232.625	34.06
232.842	32.92
233.059	37.37
233.276	38.94
233.493	33.2
233.71	27.39
233.927	26.99
234.144	21.19
234.361	24.9
234.578	22.58
234.795	26.43
235.012	34.42
235.229	38.62
235.446	37.82
235.663	31.84
235.879	35.43
236.096	39.92
236.313	31.08
236.53	29.62
236.747	25.9
236.964	27.95
237.181	24.23
237.397	22.56
237.614	13.27
237.831	10.97
238.048	19.64
238.264	16.83
238.481	12.46
238.698	21.87
238.915	18.9
239.131	17.68
239.348	12.91
239.565	21.18
239.781	19.68
239.998	21.5
240.215	22.01
240.431	14.66
240.648	19.48
240.865	20.57
241.081	20.69
241.298	23.78
241.514	24.73
241.731	23.64
241.947	22.01
242.164	20.82
242.38	20
242.597	21.86
242.814	22.34
243.03	21.64
243.246	22.88
243.463	22.23
243.679	22.36
243.896	23.04
244.112	23.83
244.329	22.34
244.545	21.61
244.762	21.63
244.978	18.06
245.194	18.44
245.411	18.8
245.627	17.98
245.843	17.82
246.06	17.72
246.276	15.2
246.492	15.97
246.709	17.09
246.925	17.32
247.141	17.4
247.357	18.07
247.574	18.91
247.79	18.69
248.006	18.96
248.222	18.13
248.439	17.08
248.655	17.88
248.871	18.35
249.087	17.44
249.303	17.42
249.519	17.22
249.736	16.61
249.952	15.23
250.168	14.1
250.384	14.41
250.6	15.07
250.816	17.41
251.032	13.68
251.248	12.38
251.464	11.99
251.68	12.65
251.896	11.82
252.112	10.88
252.328	11.06
252.544	11.54
252.76	7.89
252.976	7.87
253.192	4.53
253.408	5.97
253.624	5.16
253.84	7.42
254.056	7.02
254.272	8.8
254.487	9.65
254.703	9.1
254.919	8.44
255.135	12.22
255.351	14.8
255.567	19.96
255.782	21.93
255.998	21.69
256.214	21.22
256.43	19.63
256.646	18.64
256.861	17.16
257.077	16.21
257.293	15.04
257.508	13.68
257.724	13.04
257.94	9.74
258.155	9.5
258.371	9.67
258.587	9.53
258.802	9.13
259.018	8.75
259.234	8.68
259.449	8.58
259.665	9.2
259.88	9.36
260.096	10.23
260.312	10.52
260.527	10.89
260.743	10.94
260.958	10.85
261.174	11.04
261.389	11.93
261.605	11.69
261.82	12.53
262.036	13.09
262.251	11.7
262.466	10.97
262.682	10.68
262.897	9.46
263.113	8.46
263.328	7.86
263.543	8.39
263.759	7.03
263.974	9.44
264.189	9.15
264.405	9.3
264.62	13.49
264.835	12.5
265.051	14.53
265.266	15.19
265.481	14.1
265.696	11.42
265.912	12.28
266.127	11.9
266.342	12.47
266.557	11.71
266.773	11.31
266.988	11.11
267.203	11.56
267.418	11.21
267.633	12.64
267.848	13.3
268.064	14.62
268.279	14.47
268.494	15.74
268.709	14.99
268.924	15.76
269.139	15.28
269.354	14.47
269.569	12.08
269.784	11.94
269.999	10.32
270.214	11.1
270.429	12.77
270.644	11.97
270.859	11.32
271.074	11.53
271.289	10.35
271.504	10.55
271.719	10.76
271.934	12.85
272.149	12.18
272.363	11.03
272.578	9.58
272.793	8.76
273.008	9.89
273.223	10.09
273.438	9.63
273.653	10.36
273.867	10.31
274.082	9.93
274.297	10.52
274.512	10.48
274.726	11.81
274.941	13.21
275.156	13.27
275.371	12.97
275.585	12.66
275.8	12.03
276.015	11.12
276.229	11.89
276.444	12.88
276.659	11.4
276.873	10.82
277.088	12.23
277.302	13.03
277.517	12.48
277.732	12.05
277.946	11.86
278.161	12.65
278.375	13.23
278.59	11.98
278.804	12.49
279.019	11.18
279.233	12.11
279.448	9.34
279.662	8.43
279.877	9.37
280.091	8.6
280.306	8.83
280.52	10.2
280.735	10.77
280.949	10.41
281.163	9.57
281.378	11.98
281.592	12.08
281.806	13.35
282.021	14.25
282.235	14.14
282.449	14.64
282.664	15.06
282.878	13.97
283.092	13.5
283.307	16.43
283.521	14.92
283.735	14.05
283.949	14.41
284.164	14.26
284.378	13.02
284.592	12.47
284.806	11.53
285.02	11.01
285.234	12.25
285.449	12.06
285.663	10.97
285.877	11.48
286.091	12.44
286.305	12.24
286.519	12.59
286.733	13.47
286.947	13.37
287.161	13.74
287.375	14.19
287.589	13.25
287.803	13.49
288.017	13.7
288.231	13.94
288.445	12.71
288.659	11.88
288.873	12.22
289.087	11.19
289.301	12.02
289.515	13.18
289.729	11.77
289.943	11.87
290.157	11.4
290.371	9.17
290.584	11.16
290.798	9.82
291.012	9.31
291.226	10.72
291.44	10.43
291.654	11.45
291.867	12.93
292.081	15.1
292.295	15.01
292.509	16.27
292.722	18.94
292.936	16.37
293.15	19.58
293.364	20.36
293.577	17.67
293.791	18.9
294.005	17.28
294.218	15.84
294.432	16.47
294.645	16.5
294.859	15.78
295.073	15.15
295.286	15.82
295.5	14.38
295.713	14.4
295.927	14.68
296.14	14.65
296.354	15.04
296.568	15.16
296.781	13.8
296.994	14.4
297.208	14.44
297.421	13.31
297.635	13.79
297.848	14.13
298.062	14.28
298.275	13.68
298.489	14.27
298.702	13.99
298.915	14.27
299.129	13.45
299.342	12.82
299.555	13.12
299.769	14.86
299.982	15.77
300.195	16.45
300.409	18.06
300.622	20.64
300.835	19.47
301.048	19.4
301.262	19.15
301.475	19.55
301.688	20.27
301.901	20.01
302.115	19.66
302.328	19.21
302.541	18.3
302.754	16.47
302.967	15.66
303.18	15.6
303.393	15.62
303.607	15.49
303.82	15.4
304.033	13.5
304.246	14.26
304.459	12.46
304.672	11.55
304.885	11.1
305.098	11.95
305.311	12
305.524	11.37
305.737	10.33
305.95	9.19
306.163	9.96
306.376	11.53
306.589	10.01
306.802	11.43
307.015	11.81
307.228	13.35
307.44	12.18
307.653	10.74
307.866	12.49
308.079	13.47
308.292	14.43
308.505	15.82
308.718	15.77
308.93	16.23
309.143	16.11
309.356	14.86
309.569	13.58
309.781	14.46
309.994	13.75
310.207	13.48
310.42	13.77
310.632	12.99
310.845	12.88
311.058	11.7
311.27	12.39
311.483	13.13
311.696	12.84
311.908	12.35
312.121	11.54
312.333	11.63
312.546	11.52
312.759	12.12
312.971	12.22
313.184	13.08
313.396	13.01
313.609	11.44
313.821	11.34
314.034	12.97
314.246	15.31
314.459	16.92
314.671	18.91
314.884	19.28
315.096	18.97
315.309	20.22
315.521	17.1
315.733	18.4
315.946	18.38
316.158	18.26
316.371	18.48
316.583	16.23
316.795	14.28
317.008	13.61
317.22	14.51
317.432	15.04
317.644	13.31
317.857	12.33
318.069	12.34
318.281	13.26
318.494	12.52
318.706	11.92
318.918	13.03
319.13	14.31
319.342	12.59
319.555	10.18
319.767	8.24
319.979	10.25
320.191	12.89
320.403	12.13
320.615	13.21
320.827	13.1
321.039	13.05
321.252	12.83
321.464	12.06
321.676	13.89
321.888	14.72
322.1	16.46
322.312	15.09
322.524	13.8
322.736	14.12
322.948	13.45
323.16	14.99
323.372	14.54
323.584	14.48
323.796	14
324.007	13.86
324.219	13.31
324.431	13.03
324.643	12.7
324.855	13.92
325.067	12.98
325.279	12.54
325.491	10.82
325.702	11.54
325.914	11.34
326.126	13.03
326.338	11.71
326.55	12.14
326.761	11.45
326.973	12.06
327.185	12.8
327.396	14.42
327.608	15.95
327.82	16.79
328.032	16.16
328.243	17.11
328.455	16.53
328.666	18.73
328.878	18.43
329.09	18.67
329.301	18.7
329.513	17.35
329.725	16.57
329.936	14.32
330.148	13.37
330.359	13.01
330.571	12.77
330.782	11.28
330.994	9.46
331.205	9.96
331.417	9.53
331.628	9.64
331.84	9.02
332.051	10.27
332.262	11.82
332.474	11.64
332.685	12.11
332.897	11.02
333.108	11.9
333.319	11.58
333.531	11.12
333.742	10.57
333.953	10.73
334.165	12.16
334.376	11.35
334.587	12.01
334.799	12.21
335.01	12.06
335.221	12.28
335.432	11.3
335.644	12.33
335.855	12.88
336.066	13.98
336.277	12.29
336.488	12.25
336.7	11.68
336.911	11.14
337.122	12.17
337.333	13.5
337.544	12.85
337.755	13.74
337.966	13.26
338.177	13.66
338.388	13.6
338.599	14.65
338.811	13.45
339.022	13.58
339.233	13.46
339.444	12.18
339.655	11.59
339.866	11.62
340.076	12.75
340.287	12.38
340.498	11.9
340.709	11.55
340.92	11.96
341.131	12.75
341.342	13.19
341.553	11.53
341.764	11.71
341.975	11.38
342.185	12.03
342.396	11.19
342.607	12.45
342.818	12.4
343.029	12.33
343.239	12.78
343.45	12.51
343.661	13.48
343.872	13.95
344.082	14.54
344.293	13.96
344.504	12.98
344.714	12.67
344.925	11.61
345.136	11.34
345.346	11.85
345.557	11.28
345.768	10.86
345.978	10.19
346.189	10.19
346.399	10.01
346.61	8.49
346.821	8.81
347.031	9.45
347.242	9.33
347.452	8.62
347.663	8.89
347.873	8.62
348.084	7.83
348.294	7.73
348.504	8.73
348.715	8.24
348.925	10.9
349.136	11.38
349.346	10.97
349.557	11.35
349.767	12.29
349.977	11.99
350.188	11.49
350.398	12.3
350.608	10.59
350.819	11.13
351.029	11.02
351.239	11
351.449	10.46
351.66	10.77
351.87	11.8
352.08	11.92
352.29	11.3
352.501	12.72
352.711	12.76
352.921	13.03
353.131	12.05
353.341	13.28
353.552	13.49
353.762	14.4
353.972	14.44
354.182	12.88
354.392	12.43
354.602	12.33
354.812	11.86
355.022	11.77
355.232	12.27
355.442	13.03
355.652	12.33
355.862	12.01
356.072	12.51
356.282	13.61
356.492	14.04
356.702	13.15
356.912	13.43
357.122	13.08
357.332	12.46
357.542	13.45
357.752	13.21
357.962	13.19
358.171	12.76
358.381	12.61
358.591	11.69
358.801	11.48
359.011	11.7
359.221	12.15
359.43	13.42
359.64	14.52
359.85	13.78
360.06	13.41
360.269	12.68
360.479	12.84
360.689	12.38
360.899	12.61
361.108	12.55
361.318	12.62
361.528	12.12
361.737	11.25
361.947	10.7
362.156	10.81
362.366	10.36
362.576	10.68
362.785	10.56
362.995	11.05
363.204	10.55
363.414	10.73
363.623	11.92
363.833	12.16
364.042	12.16
364.252	11.86
364.461	11.67
364.671	12.3
364.88	12.25
365.09	12.17
365.299	10.99
365.509	10.72
365.718	10.65
365.927	9.3
366.137	9.49
366.346	9
366.555	9.21
366.765	8.86
366.974	8.7
367.183	9.57
367.393	9.58
367.602	9.08
367.811	8.49
368.021	9.05
368.23	9.4
368.439	9.25
368.648	9.49
368.857	9.65
369.067	9.6
369.276	9.54
369.485	9.27
369.694	8.69
369.903	9.88
370.112	10.65
370.321	9.8
370.531	8.81
370.74	8.17
370.949	7.29
371.158	6.96
371.367	7.1
371.576	7.14
371.785	6.22
371.994	6.52
372.203	5.69
372.412	6
372.621	5.5
372.83	5.54
373.039	6.11
373.248	6.73
373.457	6.48
373.666	6.34
373.874	6.34
374.083	7.15
374.292	7.8
374.501	8.57
374.71	8.37
374.919	8.45
375.128	8.54
375.336	7.8
375.545	8.59
375.754	9.21
375.963	9.97
376.171	9.66
376.38	9.32
376.589	8.66
376.798	8.12
377.006	7.57
377.215	8.16
377.424	9.2
377.632	10.06
377.841	9.97
378.05	10.26
378.258	9.74
378.467	10.21
378.675	10.06
378.884	10.46
379.093	10.47
379.301	10.76
379.51	10.02
379.718	9.3
379.927	9
380.135	8.12
380.344	7.4
380.552	7.64
380.761	6.77
380.969	7.06
381.177	7.21
381.386	7.29
381.594	7.12
381.803	6.98
382.011	7.34
382.219	6.94
382.428	7.68
382.636	7.78
382.845	7.85
383.053	8.27
383.261	8.19
383.469	7.71
383.678	7.85
383.886	7.74
384.094	8.21
384.302	7.99
384.511	7.91
384.719	7.69
384.927	7.8
385.135	7.43
385.343	7.59
385.552	7.89
385.76	8.35
385.968	7.92
386.176	8.45
386.384	7.9
386.592	7.73
386.8	7.73
387.008	7.63
387.216	7.66
387.424	7.97
387.633	7.69
387.841	7.24
388.049	6.5
388.257	6.73
388.465	6.47
388.672	6.73
388.88	6.63
389.088	6.43
389.296	6.37
389.504	6.13
389.712	6.02
389.92	6.05
390.128	5.57
390.336	5.88
390.544	5.71
390.751	5.55
390.959	5.75
391.167	5.73
391.375	5.74
391.583	5.04
391.79	4.99
391.998	4.69
392.206	4.72
392.414	4.89
392.621	5.04
392.829	5.18
393.037	5.16
393.244	4.85
393.452	5.28
393.66	5.56
393.867	6.09
394.075	6.07
394.283	6.14
394.49	5.81
394.698	5.74
394.905	5.44
395.113	5.11
395.32	5.12
395.528	5.27
395.735	4.68
395.943	4.65
396.15	4.52
396.358	4.77
396.565	5.08
396.773	5.35
396.98	5.8
397.188	6.24
397.395	6.75
397.602	6.91
397.81	7.02
398.017	7.35
398.225	7.19
398.432	7.23
398.639	7.21
398.847	7.2
399.054	6.99
399.261	6.33
399.468	5.97
399.676	5.6
399.883	5.4
400.09	5.38
400.297	5.23
400.505	5.35
400.712	5.48
400.919	5.65
401.126	5.2
401.333	5.65
401.54	6
401.748	6.01
401.955	6.2
402.162	5.73
402.369	6.05
402.576	5.91
402.783	5.67
402.99	5.48
403.197	5.14
403.404	5.49
403.611	5.18
403.818	5.42
404.025	5.41
404.232	5.27
404.439	5.72
404.646	5.4
404.853	5.41
405.06	5.51
405.267	5.35
405.474	5.33
405.681	5.31
405.887	5.22
406.094	5.28
406.301	5.36
406.508	5.3
406.715	5.34
406.922	5.29
407.128	5.36
407.335	5.39
407.542	5.77
407.749	5.82
407.955	5.8
408.162	5.79
408.369	5.7
408.575	5.34
408.782	5.55
408.989	5.39
409.195	5.61
409.402	5.27
409.609	5.04
409.815	4.99
410.022	4.71
410.228	4.66
410.435	4.75
410.642	4.85
410.848	5.19
411.055	5.17
411.261	5.12
411.468	4.99
411.674	5.36
411.881	5.58
412.087	5.52
412.294	5.66
412.5	5.62
412.706	5.9
412.913	5.67
413.119	5.6
413.326	5.39
413.532	5.18
413.738	5.24
413.945	5.33
414.151	5.39
414.357	5.36
414.564	5.31
414.77	5
414.976	4.63
415.182	4.44
415.389	4.41
415.595	4.62
415.801	5.01
416.007	4.86
416.214	4.9
416.42	4.85
416.626	4.84
416.832	4.86
417.038	5.08
417.244	5.36
417.45	5.47
417.657	5.43
417.863	5.19
418.069	5.14
418.275	5.16
418.481	4.96
418.687	4.85
418.893	4.81
419.099	4.96
419.305	4.76
419.511	4.67
419.717	4.66
419.923	4.7
420.129	4.68
420.335	4.49
420.541	4.36
420.746	4.42
420.952	4.52
421.158	4.5
421.364	4.56
421.57	4.65
421.776	4.57
421.982	4.56
422.187	4.53
422.393	4.64
422.599	4.66
422.805	4.77
423.01	4.83
423.216	4.83
423.422	4.95
423.628	4.88
423.833	4.95
424.039	4.9
424.245	4.89
424.45	4.86
424.656	4.87
424.862	5.03
425.067	5.4
425.273	5.32
425.478	5.1
425.684	4.97
425.889	4.84
426.095	4.76
426.301	4.89
426.506	4.8
426.712	4.88
426.917	4.85
427.123	4.7
427.328	4.37
427.533	4.43
427.739	4.59
427.944	4.79
428.15	4.74
428.355	4.66
428.561	4.73
428.766	4.73
428.971	4.76
429.177	4.69
429.382	4.66
429.587	4.6
429.793	4.69
429.998	4.57
430.203	4.51
430.408	4.52
430.614	4.6
430.819	4.46
431.024	4.82
431.229	4.72
431.434	5.1
431.64	5.07
431.845	5
432.05	4.68
432.255	4.74
432.46	4.71
432.665	4.81
432.87	4.92
433.076	5.06
433.281	4.82
433.486	4.92
433.691	4.65
433.896	4.69
434.101	4.68
434.306	4.78
434.511	5.07
434.716	4.92
434.921	4.95
435.126	4.99
435.331	4.83
435.535	4.82
435.74	4.6
435.945	4.51
436.15	4.4
436.355	4.44
436.56	4.54
436.765	4.27
436.97	4.21
437.174	4.2
437.379	4.13
437.584	4.14
437.789	4.17
437.993	4.45
438.198	4.51
438.403	4.67
438.608	4.51
438.812	4.33
439.017	4.29
439.222	4.47
439.426	4.29
439.631	4.27
439.836	4.34
440.04	4.32
440.245	4.2
440.45	4.25
440.654	4.13
440.859	4.21
441.063	4.39
441.268	4.36
441.472	4.35
441.677	4.41
441.881	4.31
442.086	4.3
442.29	4.34
442.495	4.2
442.699	4.08
442.904	4.2
443.108	4.34
443.312	4.3
443.517	4.4
443.721	4.3
443.925	4.46
444.13	4.31
444.334	4.05
444.538	4.16
444.743	4.37
444.947	4.49
445.151	4.6
445.356	4.51
445.56	4.34
445.764	4.38
445.968	4.42
446.173	4.38
446.377	4.5
446.581	4.67
446.785	4.65
446.989	4.66
447.193	4.69
447.398	4.46
447.602	4.35
447.806	4.53
448.01	4.41
448.214	4.45
448.418	4.4
448.622	4.5
448.826	4.44
449.03	4.14
449.234	4.18
449.438	3.97
449.642	3.81
449.846	3.78
450.05	3.7
450.254	3.98
450.458	4.14
450.662	4.12
450.866	4.04
451.069	4.02
451.273	4.23
451.477	4.04
451.681	4.31
451.885	4.62
452.089	4.87
452.292	4.57
452.496	4.38
452.7	4.24
452.904	4.32
453.107	4.1
453.311	4.25
453.515	4.22
453.719	4.11
453.922	4.03
454.126	3.86
454.33	3.45
454.533	3.64
454.737	3.47
454.94	3.38
455.144	3.22
455.348	3.5
455.551	3.55
455.755	3.71
455.958	3.86
456.162	3.79
456.365	3.94
456.569	4.37
456.772	4.48
456.976	4.65
457.179	4.75
457.383	4.74
457.586	4.59
457.79	4.4
457.993	4.31
458.196	4.33
458.4	4.42
458.603	4.33
458.807	4.14
459.01	4.22
459.213	4.04
459.417	3.88
459.62	4.02
459.823	4.1
460.026	4.13
460.23	4.14
460.433	4.09
460.636	4.08
460.839	4.25
461.042	4.42
461.246	4.3
461.449	4.53
461.652	4.62
461.855	4.5
462.058	4.55
462.261	4.71
462.464	4.79
462.668	4.89
462.871	4.91
463.074	4.74
463.277	4.65
463.48	4.61
463.683	4.55
463.886	4.54
464.089	4.56
464.292	4.54
464.495	4.41
464.698	4.28
464.901	4.17
465.104	4.18
465.306	4.2
465.509	4.04
465.712	4.22
465.915	4.03
466.118	4.02
466.321	4.26
466.524	4.35
466.726	4.3
466.929	4.38
467.132	4.37
467.335	4.15
467.538	4.14
467.74	4.12
467.943	4.09
468.146	4.21
468.348	4.49
468.551	4.34
468.754	4.23
468.956	4.43
469.159	4.18
469.362	3.94
469.564	3.96
469.767	3.95
469.969	4.15
470.172	4.01
470.375	4.02
470.577	3.83
470.78	3.78
470.982	3.66
471.185	3.44
471.387	3.69
471.59	4.02
471.792	4.15
471.995	4.18
472.197	3.92
472.399	4
472.602	4.15
472.804	4.14
473.007	4
473.209	4.11
473.411	4.25
473.614	4.1
473.816	4.15
474.018	3.89
474.22	4
474.423	4.15
474.625	4.01
474.827	3.92
475.03	4.04
475.232	4.12
475.434	3.98
475.636	3.96
475.838	4.25
476.04	4.12
476.243	4.45
476.445	4.48
476.647	4.43
476.849	4.49
477.051	4.49
477.253	4.4
477.455	4.51
477.657	4.54
477.859	4.36
478.061	4.28
478.263	4.15
478.465	4.13
478.667	3.76
478.869	3.92
479.071	4.03
479.273	4.04
479.475	4.02
479.677	4.02
479.879	4.2
480.081	4.25
480.283	4.07
480.485	4.15
480.686	3.93
480.888	4.2
481.09	4.2
481.292	4.18
481.494	4.16
481.695	4.19
481.897	4.18
482.099	4.05
482.301	4.18
482.502	4.23
482.704	4.29
482.906	4.39
483.107	4.4
483.309	4.38
483.511	4.35
483.712	4.39
483.914	4.32
484.115	4.25
484.317	4.2
484.519	4.18
484.72	4.19
484.922	4.15
485.123	4.16
485.325	4.11
485.526	4.01
485.728	3.98
485.929	3.92
486.131	3.91
486.332	3.99
486.534	4.12
486.735	4.05
486.936	4.06
487.138	4.17
487.339	4.2
487.541	4.18
487.742	4.18
487.943	4.22
488.144	4.15
488.346	4.25
488.547	4.18
488.748	4.16
488.95	4.25
489.151	4.2
489.352	4.1
489.553	4.06
489.755	3.97
489.956	4.13
490.157	4.15
490.358	4.22
490.559	4.1
490.76	4.19
490.961	4.23
491.163	4.03
491.364	3.99
491.565	4.05
491.766	4.01
491.967	4.11
492.168	4.04
492.369	3.97
492.57	3.95
492.771	3.94
492.972	3.87
493.173	3.75
493.374	3.87
493.575	3.91
493.776	3.9
493.976	3.82
494.177	3.77
494.378	3.76
494.579	3.81
494.78	4.05
494.981	4.09
495.182	3.99
495.382	4.03
495.583	4.01
495.784	4.02
495.985	3.95
496.185	3.91
496.386	4.11
496.587	4.15
496.788	4.12
496.988	4.05
497.189	4.01
497.39	4.07
497.59	4.16
497.791	4.32
497.992	4.3
498.192	4.34
498.393	4.52
498.593	4.43
498.794	4.48
498.994	4.45
499.195	4.41
499.395	4.55
499.596	4.68
499.796	4.62
499.997	4.48
500.197	4.47
500.398	4.46
500.598	4.51
500.799	4.59
500.999	4.55
501.199	4.69
501.4	4.71
501.6	4.98
501.801	5
502.001	5.04
502.201	5.23
502.402	5.28
502.602	5.37
502.802	5.35
503.002	5.24
503.203	5.17
503.403	5.09
503.603	4.97
503.803	4.66
504.003	4.57
504.204	4.5
504.404	4.37
504.604	4.41
504.804	4.33
505.004	4.44
505.204	4.36
505.404	4.48
505.604	4.71
505.804	4.86
506.005	5.02
506.205	5.03
506.405	5.11
506.605	5.24
506.805	5.17
507.005	5.08
507.204	5.02
507.404	5.16
507.604	5.09
507.804	4.88
508.004	4.59
508.204	4.4
508.404	4.42
508.604	4.39
508.804	4.3
509.003	4.45
509.203	4.57
509.403	4.5
509.603	4.45
509.803	4.57
510.002	4.55
510.202	4.88
510.402	5.18
510.602	5.23
510.801	5.29
511.001	5.25
511.201	5.26
511.4	5.26
511.6	5.27
511.8	5.24
511.999	5.25
512.199	5.28
512.398	5.17
512.598	4.99
512.797	4.96
512.997	4.96
513.197	5.14
513.396	5.22
513.596	5.28
513.795	5.36
513.994	5.32
514.194	5.19
514.393	5.16
514.593	5.29
514.792	5.32
514.992	5.32
515.191	5.25
515.39	5.12
515.59	5.14
515.789	5.06
515.988	5
516.188	4.99
516.387	4.98
516.586	5.16
516.786	5.09
516.985	4.99
517.184	5.06
517.383	5.1
517.582	5.14
517.782	5.11
517.981	5.11
518.18	5.21
518.379	5.38
518.578	5.55
518.777	5.58
518.976	5.61
519.176	5.71
519.375	5.67
519.574	5.85
519.773	5.85
519.972	5.78
520.171	5.88
520.37	5.9
520.569	5.91
520.768	5.69
520.967	5.57
521.166	5.36
521.365	5.42
521.564	5.5
521.762	5.36
521.961	5.48
522.16	5.57
522.359	5.4
522.558	5.44
522.757	5.54
522.956	5.89
523.154	5.97
523.353	6.12
523.552	6.01
523.751	6
523.949	6.06
524.148	6.11
524.347	6.14
524.546	6.2
524.744	6.11
524.943	6.04
525.142	5.93
525.34	5.94
525.539	5.94
525.737	6.03
525.936	6.19
526.135	6.23
526.333	6.2
526.532	6.22
526.73	6.24
526.929	6.21
527.127	6.2
527.326	6.24
527.524	6.26
527.723	6.32
527.921	6.3
528.12	6.23
528.318	6.18
528.516	6.19
528.715	6.17
528.913	6.25
529.112	6.34
529.31	6.4
529.508	6.37
529.707	6.37
529.905	6.38
530.103	6.39
530.301	6.43
530.5	6.5
530.698	6.52
530.896	6.63
531.094	6.65
531.293	6.61
531.491	6.6
531.689	6.73
531.887	6.82
532.085	6.91
532.283	6.95
532.481	6.98
532.68	6.99
532.878	6.96
533.076	6.88
533.274	6.89
533.472	6.91
533.67	6.92
533.868	6.89
534.066	6.85
534.264	6.81
534.462	6.84
534.66	6.79
534.858	6.81
535.056	6.81
535.253	6.89
535.451	6.86
535.649	6.84
535.847	6.91
536.045	6.91
536.243	6.94
536.441	7.07
536.638	7.04
536.836	7.11
537.034	7.06
537.232	7.15
537.43	7.17
537.627	7.2
537.825	7.27
538.023	7.18
538.22	7.36
538.418	7.49
538.616	7.43
538.813	7.56
539.011	7.54
539.209	7.84
539.406	7.96
539.604	8.12
539.801	8.2
539.999	8.21
540.196	8.22
540.394	8.14
540.591	8.09
540.789	8.18
540.986	8.15
541.184	8.15
541.381	8.05
541.579	7.93
541.776	7.89
541.974	7.91
542.171	7.91
542.368	7.96
542.566	8.01
542.763	8.15
542.96	8.15
543.158	8.21
543.355	8.34
543.552	8.35
543.75	8.6
543.947	8.7
544.144	8.78
544.341	8.92
544.539	9.05
544.736	9.13
544.933	9.01
545.13	9.13
545.327	9.06
545.524	9.1
545.722	9.2
545.919	9.06
546.116	9.01
546.313	9.08
546.51	9.1
546.707	9.09
546.904	9.03
547.101	9.08
547.298	9.1
547.495	9.33
547.692	9.43
547.889	9.64
548.086	9.85
548.283	9.86
548.48	9.8
548.677	9.83
548.874	9.92
549.07	9.96
549.267	10.08
549.464	10.13
549.661	10.1
549.858	10.11
550.055	10.06
550.251	10.13
550.448	10.41
550.645	10.43
550.842	10.68
551.038	10.82
551.235	11.17
551.432	11.19
551.628	11.11
551.825	11.36
552.022	11.34
552.218	11.22
552.415	11.12
552.612	11.19
552.808	11.26
553.005	11.32
553.201	11.51
553.398	11.53
553.594	11.68
553.791	11.76
553.987	11.7
554.184	11.79
554.38	11.86
554.577	12.08
554.773	12.23
554.97	12.39
555.166	12.5
555.362	12.56
555.559	12.53
555.755	12.63
555.952	12.8
556.148	12.95
556.344	13
556.541	13.28
556.737	13.38
556.933	13.53
557.129	13.44
557.326	13.36
557.522	13.31
557.718	13.44
557.914	13.46
558.11	13.63
558.307	13.64
558.503	13.74
558.699	13.76
558.895	13.66
559.091	13.38
559.287	13.62
559.483	13.77
559.679	13.72
559.876	13.51
560.072	13.67
560.268	13.53
560.464	13.76
560.66	13.84
560.856	14.06
561.052	14.18
561.247	14.46
561.443	14.65
561.639	14.62
561.835	14.89
562.031	15.22
562.227	15.35
562.423	15.7
562.619	15.94
562.815	16.31
563.01	16.25
563.206	16.41
563.402	16.42
563.598	16.37
563.793	16.73
563.989	16.56
564.185	16.7
564.381	16.66
564.576	16.54
564.772	16.31
564.968	16.27
565.163	16.38
565.359	16.52
565.555	16.7
565.75	16.97
565.946	16.99
566.141	17.11
566.337	17.16
566.532	17.29
566.728	17.4
566.923	17.6
567.119	17.62
567.314	17.78
567.51	17.71
567.705	17.64
567.901	17.77
568.096	17.82
568.292	18
568.487	18.36
568.682	18.57
568.878	18.68
569.073	18.63
569.268	18.77
569.464	18.83
569.659	19.03
569.854	19.19
570.05	19.13
570.245	19.33
570.44	19.43
570.635	19.18
570.831	18.93
571.026	19.12
571.221	19.44
571.416	19.59
571.611	19.56
571.806	19.62
572.002	19.77
572.197	19.87
572.392	19.73
572.587	20.04
572.782	20.3
572.977	20.51
573.172	20.43
573.367	20.58
573.562	20.49
573.757	20.66
573.952	20.69
574.147	20.8
574.342	20.83
574.537	21.01
574.732	20.73
574.927	20.72
575.121	20.94
575.316	21.28
575.511	21.33
575.706	21.55
575.901	21.7
576.096	21.61
576.29	21.52
576.485	21.52
576.68	21.59
576.875	21.82
577.069	22.01
577.264	21.83
577.459	21.78
577.654	21.6
577.848	21.41
578.043	21.34
578.238	21.54
578.432	21.96
578.627	22.05
578.821	22.21
579.016	21.82
579.21	21.74
579.405	21.98
579.6	21.87
579.794	22.04
579.989	22.28
580.183	22.25
580.378	22.57
580.572	22.32
580.766	22.36
580.961	22.36
581.155	22.84
581.35	22.74
581.544	22.82
581.738	23.2
581.933	23.19
582.127	23.12
582.321	23.15
582.516	22.76
582.71	23.08
582.904	23.31
583.099	23.4
583.293	23.74
583.487	23.7
583.681	23.81
583.875	23.49
584.07	23.33
584.264	23.74
584.458	23.79
584.652	24.18
584.846	23.93
585.04	24.14
585.234	24.18
585.428	23.83
585.623	24.09
585.817	23.96
586.011	24.04
586.205	24.37
586.399	24.24
586.593	24.44
586.787	24.43
586.981	24.45
587.174	24.04
587.368	23.89
587.562	24.22
587.756	24.32
587.95	24.52
588.144	24.56
588.338	24.25
588.532	24.36
588.725	24.23
588.919	24.11
589.113	24.28
589.307	24.63
589.501	24.81
589.694	24.65
589.888	24.74
590.082	24.74
590.275	24.86
590.469	25.07
590.663	24.98
590.856	25.11
591.05	25.1
591.244	24.8
591.437	24.59
591.631	24.66
591.824	25.09
592.018	24.9
592.212	24.73
592.405	24.93
592.599	25.07
592.792	25.17
592.986	25.46
593.179	25.7
593.372	26.01
593.566	26.46
593.759	26.61
593.953	26.17
594.146	26.21
594.339	26.47
594.533	26.19
594.726	26.41
594.92	26.22
595.113	26.17
595.306	26.19
595.499	26.25
595.693	25.92
595.886	25.7
596.079	25.96
596.272	26.36
596.466	26.61
596.659	26.73
596.852	26.55
597.045	26.66
597.238	26.68
597.431	26.72
597.624	26.8
597.818	26.91
598.011	26.86
598.204	26.86
598.397	26.49
598.59	26.19
598.783	26.18
598.976	26.09
599.169	26.08
599.362	26.03
599.555	26.27
599.748	26.3
599.941	26.5
600.134	26.95
600.326	27.14
600.519	27.29
600.712	27.22
600.905	27.38
601.098	27.78
601.291	27.89
601.483	27.76
601.676	27.78
601.869	27.66
602.062	27.51
602.255	27.3
602.447	27.12
602.64	27.13
602.833	27.27
603.025	26.99
603.218	26.79
603.411	26.64
603.603	26.7
603.796	26.66
603.989	26.85
604.181	26.88
604.374	26.82
604.566	26.77
604.759	26.91
604.951	27.09
605.144	27.37
605.336	27.61
605.529	27.92
605.721	27.93
605.914	27.94
606.106	27.77
606.299	27.92
606.491	28.17
606.683	28.42
606.876	28.35
607.068	28.11
607.26	28.21
607.453	27.92
607.645	27.74
607.837	28
608.03	27.6
608.222	28.01
608.414	28.06
608.606	28.09
608.799	28
608.991	27.96
609.183	28.13
609.375	28.04
609.567	28.08
609.759	28.27
609.952	28.25
610.144	28.46
610.336	28.07
610.528	27.96
610.72	27.93
610.912	27.99
611.104	28.01
611.296	27.77
611.488	27.58
611.68	27.44
611.872	27.22
612.064	26.94
612.256	26.88
612.448	27.18
612.64	27.2
612.832	27.03
613.023	26.89
613.215	26.89
613.407	27.07
613.599	27.21
613.791	27.31
613.983	27.68
614.174	28.16
614.366	28.21
614.558	28.18
614.75	28.1
614.941	28.39
615.133	28.55
615.325	28.44
615.516	28.66
615.708	28.75
615.9	29.09
616.091	28.7
616.283	28.63
616.475	28.92
616.666	28.97
616.858	29.17
617.049	29
617.241	29
617.432	29.19
617.624	29.12
617.815	29.11
618.007	28.98
618.198	28.86
618.39	28.96
618.581	28.82
618.773	28.87
618.964	28.99
619.155	28.87
619.347	28.72
619.538	28.73
619.729	28.77
619.921	28.9
620.112	29.13
620.303	29.45
620.494	29.1
620.686	29.11
620.877	29.05
621.068	28.89
621.259	28.8
621.451	28.93
621.642	28.84
621.833	28.87
622.024	28.51
622.215	28.31
622.406	28.25
622.597	28.33
622.788	28.79
622.98	28.66
623.171	28.61
623.362	29.05
623.553	28.72
623.744	28.94
623.935	28.73
624.126	29.29
624.317	29.6
624.508	29.42
624.698	29.43
624.889	29.11
625.08	29.23
625.271	28.98
625.462	28.73
625.653	28.74
625.844	28.64
626.034	28.64
626.225	28.67
626.416	28.61
626.607	28.67
626.798	29.05
626.988	28.98
627.179	29.13
627.37	29.41
627.56	29.42
627.751	29.67
627.942	29.67
628.132	30.05
628.323	29.82
628.514	29.79
628.704	29.92
628.895	29.77
629.085	29.92
629.276	29.9
629.466	29.65
629.657	30.06
629.847	30.04
630.038	30.19
630.228	29.93
630.419	29.76
630.609	29.65
630.8	29.63
630.99	29.4
631.181	29.36
631.371	29.56
631.561	29.96
631.752	29.64
631.942	29.85
632.132	30
632.323	30.19
632.513	30.24
632.703	30.23
632.893	30.19
633.084	30.41
633.274	30.35
633.464	30.16
633.654	30.09
633.844	30.17
634.034	30.03
634.225	29.77
634.415	29.41
634.605	29.27
634.795	29.5
634.985	29.47
635.175	29.62
635.365	29.64
635.555	29.53
635.745	29.58
635.935	29.54
636.125	29.53
636.315	29.48
636.505	29.72
636.695	30.08
636.885	30.03
637.075	30.42
637.265	30.41
637.455	30.46
637.644	30.31
637.834	30.16
638.024	30.17
638.214	30.3
638.404	30.18
638.593	30.54
638.783	30.7
638.973	30.55
639.163	30.25
639.352	30.06
639.542	30.32
639.732	30.97
639.921	31.27
640.111	31.5
640.301	31.53
640.49	31.65
640.68	31.42
640.87	31.81
641.059	31.63
641.249	31.71
641.438	31.72
641.628	31.58
641.817	30.86
642.007	30.69
642.196	30.78
642.386	30.59
642.575	30.75
642.764	30.71
642.954	30.3
643.143	30.56
643.333	30.72
643.522	30.88
643.711	30.58
643.901	30.48
644.09	30.58
644.279	30.11
644.469	30.2
644.658	30.72
644.847	30.72
645.036	30.91
645.226	31.17
645.415	31.36
645.604	31.07
645.793	31.68
645.982	32.21
646.171	32.32
646.361	32.6
646.55	32.27
646.739	31.99
646.928	32.03
647.117	31.63
647.306	31.26
647.495	31.13
647.684	31.03
647.873	30.82
648.062	31
648.251	30.81
648.44	30.98
648.629	31.14
648.818	31.29
649.007	31.32
649.196	31.2
649.384	31.31
649.573	31.27
649.762	31.54
649.951	31.52
650.14	31.24
650.328	31.33
650.517	30.67
650.706	31.01
650.895	30.74
651.083	30.91
651.272	31.07
651.461	30.98
651.65	30.99
651.838	30.76
652.027	30.87
652.216	30.71
652.404	30.91
652.593	30.92
652.781	30.74
652.97	30.77
653.158	30.53
653.347	30.72
653.535	30.9
653.724	31.2
653.912	31.2
654.101	31.12
654.289	31.29
654.478	31.12
654.666	31.56
654.855	31.56
655.043	31.39
655.231	31.14
655.42	30.63
655.608	30.86
655.796	30.57
655.985	30.99
656.173	31.27
656.361	31.17
656.55	30.96
656.738	31.32
656.926	31.52
657.114	31.68
657.302	31.95
657.491	32.35
657.679	31.97
657.867	32.07
658.055	31.76
658.243	31.48
658.431	31.85
658.619	32.15
658.807	32.03
658.996	31.96
659.184	32.11
659.372	31.96
659.56	31.82
659.748	31.99
659.936	31.8
660.124	32.17
660.311	32.11
660.499	31.72
660.687	31.18
660.875	31.17
661.063	30.99
661.251	31.13
661.439	31.26
661.627	31.71
661.814	31.57
662.002	31.68
662.19	31.5
662.378	31.42
662.565	31.68
662.753	32.28
662.941	32.23
663.129	32.37
663.316	32.54
663.504	32.96
663.692	32.26
663.879	32.32
664.067	31.93
664.254	31.8
664.442	32.03
664.63	31.96
664.817	31.8
665.005	31.77
665.192	31.86
665.38	31.8
665.567	31.63
665.755	32.1
665.942	32.26
666.13	32.71
666.317	32.6
666.504	32.59
666.692	32.26
666.879	32.22
667.067	31.98
667.254	31.73
667.441	30.89
667.629	30.71
667.816	30.65
668.003	30.93
668.19	31.14
668.378	31.28
668.565	31.75
668.752	32.39
668.939	32.56
669.127	32.82
669.314	32.76
669.501	33.74
669.688	33.47
669.875	33.52
670.062	33.11
670.249	32.85
670.436	32.99
670.623	32.44
670.81	32.27
670.997	31.86
671.184	31.58
671.371	32.28
671.558	32.3
671.745	32.67
671.932	32.5
672.119	32.88
672.306	33.03
672.493	32.63
672.68	32.63
672.867	32.97
673.054	33.16
673.24	33.41
673.427	33.03
673.614	32.23
673.801	31.84
673.988	32.38
674.174	32.2
674.361	32.13
674.548	32.78
674.734	33.35
674.921	33.08
675.108	33.22
675.294	33.14
675.481	33.15
675.668	33.57
675.854	34.32
676.041	33.82
676.227	33.42
676.414	33.47
676.601	32.76
676.787	31.78
676.974	31.71
677.16	31.69
677.347	32.03
677.533	31.84
677.719	31.52
677.906	31.16
678.092	31.54
678.279	32.01
678.465	32.11
678.651	32.21
678.838	32.64
679.024	32.82
679.21	32.52
679.397	32.25
679.583	32.42
679.769	32.48
679.955	32.53
680.142	32.39
680.328	32.25
680.514	32.23
680.7	31.99
680.886	32.32
681.073	32.11
681.259	32.71
681.445	32.92
681.631	32.95
681.817	32.93
682.003	32.54
682.189	32.48
682.375	32.53
682.561	32.49
682.747	32.74
682.933	32.29
683.119	32.19
683.305	32.12
683.491	31.63
683.677	32.06
683.863	32.02
684.049	32.24
684.235	32.58
684.42	32.39
684.606	32.64
684.792	33.32
684.978	33.18
685.164	33.43
685.349	32.94
685.535	33.45
685.721	32.95
685.907	32.55
686.092	33.04
686.278	32.16
686.464	32.76
686.649	32.24
686.835	32.17
687.021	32.2
687.206	32.11
687.392	32.63
687.577	32.82
687.763	33.14
687.948	33.69
688.134	33.58
688.319	34.22
688.505	34.4
688.69	34.94
688.876	34.55
689.061	35.17
689.247	35.33
689.432	35.62
689.618	35.4
689.803	35.41
689.988	35.5
690.174	35.55
690.359	35.74
690.544	35.28
690.73	35.45
690.915	35.89
691.1	35.59
691.285	34.97
691.471	33.91
691.656	33.88
691.841	33.47
692.026	33.22
692.211	32.86
692.396	33.48
692.582	33.3
692.767	33.16
692.952	32.93
693.137	32.74
693.322	33.47
693.507	33.99
693.692	34.23
693.877	34.36
694.062	34.71
694.247	34.76
694.432	34.14
694.617	33.84
694.802	33.17
694.987	33.46
695.172	33.66
695.357	33.24
695.541	32.34
695.726	32.25
695.911	32.56
696.096	32.76
696.281	32.66
696.466	32.97
696.65	32.98
696.835	33.43
697.02	33.39
697.204	33.69
697.389	34.03
697.574	34.87
697.759	34.63
697.943	34.8
698.128	34.72
698.312	34.7
698.497	34.22
698.682	34.17
698.866	34.18
699.051	34.09
699.235	33.12
699.42	33.06
699.604	32.75
699.789	33.45
699.973	33.05
700.158	33.05
700.342	33.8
700.527	33.9
700.711	34.02
700.895	33.67
701.08	33.82
701.264	34.98
701.448	35.21
701.633	36.05
701.817	35.26
702.001	35.39
702.186	34.98
702.37	34.33
702.554	34.27
702.738	34.84
702.923	35.51
703.107	35.37
703.291	35.69
703.475	35.53
703.659	35.13
703.843	35.07
704.027	35.14
704.212	34.98
704.396	35.13
704.58	35.18
704.764	35.03
704.948	34.25
705.132	34.06
705.316	33.12
705.5	33.4
705.684	32.74
705.868	32.68
706.052	32.03
706.235	32.54
706.419	32.42
706.603	31.98
706.787	31.91
706.971	32.09
707.155	31.67
707.339	32.42
707.522	32.2
707.706	32.87
707.89	32.91
708.074	33.63
708.257	33.63
708.441	33.83
708.625	34.32
708.808	34.3
708.992	35.02
709.176	35.27
709.359	35.07
709.543	34.98
709.727	35.11
709.91	35.3
710.094	34.9
710.277	34.79
710.461	34.5
710.644	35.15
710.828	35.21
711.011	34.66
711.195	35.22
711.378	35.61
711.562	35.56
711.745	35.15
711.928	35.33
712.112	35.34
712.295	34.7
712.478	34.37
712.662	33.84
712.845	34.03
713.028	34.21
713.212	33.94
713.395	33.6
713.578	34.27
713.761	34.7
713.945	34.17
714.128	34.31
714.311	34.61
714.494	34.97
714.677	34.86
714.86	34.47
715.043	34.08
715.227	34.24
715.41	34.61
715.593	33.92
715.776	33.79
715.959	33.71
716.142	33.9
716.325	34.64
716.508	35.03
716.691	35.47
716.874	36.08
717.057	36.32
717.239	35.5
717.422	34.95
717.605	34.84
717.788	34.28
717.971	34.91
718.154	34.49
718.337	33.73
718.519	33.08
718.702	33.03
718.885	31.97
719.068	32.25
719.25	32.79
719.433	32.85
719.616	32.82
719.798	32.62
719.981	31.96
720.164	31.9
720.346	31.58
720.529	32.55
720.712	32.27
720.894	33.9
721.077	33.13
721.259	33.29
721.442	32.61
721.624	33.06
721.807	33.25
721.989	32.76
722.172	33.24
722.354	34.52
722.537	33.81
722.719	33.74
722.901	33.84
723.084	34.08
723.266	33.48
723.448	33.73
723.631	32.71
723.813	33.94
723.995	35.11
724.178	35.5
724.36	34.61
724.542	34.59
724.724	34.2
724.907	32.98
725.089	33.46
725.271	34.33
725.453	34.27
725.635	34.67
725.817	33.02
725.999	32.82
726.181	32.5
726.364	33.08
726.546	33.52
726.728	34.58
726.91	34.81
727.092	34.03
727.274	34.12
727.456	34.82
727.638	34.17
727.819	35.48
728.001	35.54
728.183	35.38
728.365	34.48
728.547	33.62
728.729	33.13
728.911	33.2
729.093	34.34
729.274	34.36
729.456	35.29
729.638	35.29
729.82	35.56
730.001	35.79
730.183	35.73
730.365	36.56
730.546	36.86
730.728	36.13
730.91	35.86
731.091	35.57
731.273	35.18
731.455	33.62
731.636	34.93
731.818	33.97
731.999	34.09
732.181	34.66
732.362	34.09
732.544	33.47
732.725	33.55
732.907	33.43
733.088	32.54
733.27	32.69
733.451	33.07
733.633	32.83
733.814	33.1
733.995	33.64
734.177	33.41
734.358	33.5
734.539	33.85
734.721	35.28
734.902	36.35
735.083	36.35
735.264	36.18
735.446	37.09
735.627	36.75
735.808	36.92
735.989	35.53
736.17	35.31
736.351	35.4
736.533	35.48
736.714	34.07
736.895	32.81
737.076	33.69
737.257	34.15
737.438	32.19
737.619	32.95
737.8	32.26
737.981	32.6
738.162	33
738.343	32.77
738.524	33.41
738.705	34.1
738.886	34.09
739.067	35.08
739.247	34.69
739.428	35.51
739.609	34.68
739.79	35.25
739.971	35.59
740.151	35.58
740.332	35.25
740.513	34.61
740.694	34.6
740.874	35.33
741.055	34.44
741.236	35.63
741.417	36.04
741.597	36.56
741.778	35.09
741.958	34.83
742.139	34.68
742.32	36.04
742.5	35.85
742.681	36.56
742.861	36.01
743.042	35.76
743.222	34.14
743.403	33.32
743.583	32.13
743.764	32.56
743.944	32.31
744.124	34
744.305	33.82
744.485	34.63
744.666	33.45
744.846	34.49
745.026	33.13
745.207	31.76
745.387	32.9
745.567	33.15
745.747	33.36
745.928	33
746.108	30.72
746.288	29.61
746.468	28.45
746.648	29.74
746.829	28.5
747.009	28.97
747.189	29.51
747.369	28.5
747.549	28.3
747.729	29.71
747.909	28.82
748.089	30.28
748.269	30
748.449	31.88
748.629	30.84
748.809	31.85
748.989	32.02
749.169	33.66
749.349	32.94
749.529	33.25
749.709	32.26
749.889	33.18
750.068	33.28
750.248	34.39
750.428	32.89
750.608	33.69
750.788	33.07
750.967	34.58
751.147	34.74
751.327	36.21
751.507	36.39
751.686	36.28
751.866	36.57
752.046	36.19
752.225	36.51
752.405	36.77
752.585	36.92
752.764	35.03
752.944	34.08
753.123	33.95
753.303	33.74
753.482	33.38
753.662	34.07
753.841	33.83
754.021	33.48
754.2	34.6
754.38	34.41
754.559	33.56
754.739	34.27
754.918	35.16
755.097	35.5
755.277	35.42
755.456	36.18
755.635	35.23
755.815	36.16
755.994	35.26
756.173	33.81
756.352	34.3
756.532	34.5
756.711	36.03
756.89	35.67
757.069	35.89
757.248	36.8
757.427	36.84
757.607	38.16
757.786	37.4
757.965	37.63
758.144	38.42
758.323	37.85
758.502	37.94
758.681	38.6
758.86	38.77
759.039	37.43
759.218	36.01
759.397	35.38
759.576	35.67
759.755	36.11
759.934	37
760.113	35.61
760.291	36.57
760.47	37.21
760.649	37.51
760.828	37.29
761.007	38.14
761.186	38.26
761.364	38.96
761.543	37.57
761.722	37.42
761.901	36.78
762.079	37.61
762.258	36.81
762.437	36.24
762.615	35.14
762.794	35.15
762.972	35.32
763.151	36.27
763.33	36.38
763.508	36.27
763.687	36.88
763.865	36.67
764.044	36.68
764.222	36.98
764.401	36.35
764.579	37.08
764.758	37.02
764.936	35.5
765.114	35.08
765.293	35.35
765.471	36.44
765.65	35.76
765.828	35.89
766.006	34.89
766.184	34.25
766.363	35.07
766.541	34.33
766.719	33.32
766.898	34.91
767.076	34.28
767.254	33.25
767.432	33.79
767.61	33.74
767.788	34.16
767.967	34.62
768.145	34.55
768.323	34.97
768.501	34.85
768.679	35.28
768.857	34.54
769.035	35.6
769.213	35.64
769.391	34.99
769.569	33.41
769.747	33.6
769.925	32.51
770.103	33.14
770.281	33.16
770.459	31.74
770.636	33.29
770.814	34.6
770.992	33.86
771.17	34.23
771.348	33.99
771.525	35.46
771.703	34.3
771.881	34.91
772.059	34.96
772.236	34.61
772.414	35.6
772.592	35.19
772.769	33.11
772.947	35.88
773.125	37.17
773.302	36.61
773.48	35.79
773.657	38.32
773.835	38.74
774.013	40.17
774.19	40.81
774.368	42.68
774.545	42
774.723	42.35
774.9	38.04
775.077	35.95
775.255	37.24
775.432	38.82
775.61	36.39
775.787	36.64
775.964	35.89
776.142	37.1
776.319	36.79
776.496	37.01
776.674	38.13
776.851	38.16
777.028	38.55
777.205	39.41
777.382	39.45
777.56	39.29
777.737	39.62
777.914	41.6
778.091	39.27
778.268	35.29
778.445	36.1
778.622	36.73
778.8	40.22
778.977	40.53
779.154	35.91
779.331	35.19
779.508	36.85
779.685	35.55
779.862	31.66
780.038	31.38
780.215	34.11
780.392	32.82
780.569	31.16
780.746	29.96
780.923	30.57
781.1	30.56
781.277	31.5
781.453	31.51
781.63	32.94
781.807	33.79
781.984	33.36
782.16	33.47
782.337	31.51
782.514	30.35
782.691	30.57
782.867	29.89
783.044	33.51
783.221	33.45
783.397	34.04
783.574	34.86
783.75	35.39
783.927	35.39
784.103	36.11
784.28	36.38
784.456	37.95
784.633	36.78
784.809	36.99
784.986	35.17
785.162	35.88
785.339	34.25
785.515	32.79
785.692	33.57
785.868	30.3
786.044	30.57
786.221	33.95
786.397	34.13
786.573	36.04
786.749	35.34
786.926	35.87
787.102	32.83
787.278	31.86
787.454	30.09
787.631	30.46
787.807	33.19
787.983	31.16
788.159	30.79
788.335	30.98
788.511	31.42
788.687	31.66
788.863	31.4
789.039	33.53
789.216	34.15
789.392	38.26
789.568	36.61
789.744	36.89
789.919	39.09
790.095	38.49
790.271	39.56
790.447	38.73
790.623	38.3
790.799	38.2
790.975	37.2
791.151	37.17
791.327	36.61
791.502	35.51
791.678	35.5
791.854	32.45
792.03	31.75
792.205	31.44
792.381	32.03
792.557	30.39
792.733	31.73
792.908	33.69
793.084	35.04
793.259	33.28
793.435	37.31
793.611	36.36
793.786	37.38
793.962	37.07
794.137	38.57
794.313	36.42
794.488	38.91
794.664	40.09
794.839	41.46
795.015	39.06
795.19	40.03
795.366	38.38
795.541	35.61
795.716	34.98
795.892	34.1
796.067	32.82
796.242	32.94
796.418	32.51
796.593	31.6
796.768	31.89
796.944	32.95
797.119	32.83
797.294	32.79
797.469	36.03
797.644	37.79
797.82	43.06
797.995	43.32
798.17	42.03
798.345	44.72
798.52	45.29
798.695	43.67
798.87	43.73
799.045	44.51
799.22	44.91
799.395	45.67
799.57	45.65
799.745	43.22
799.92	43.19
800.095	44.86
800.27	43.49
800.445	42.64
800.62	43.18
800.795	43.46
800.97	42.93
801.145	43.6
801.319	41.82
801.494	43.45
801.669	43.46
801.844	40.23
802.018	41.91
802.193	45.97
802.368	46.82
802.543	43.45
802.717	43.64
802.892	45.59
803.067	43.36
803.241	44.4
803.416	41.42
803.59	42.8
803.765	46.33
803.94	44.46
804.114	39.6
804.289	41.05
804.463	40.78
804.638	44.52
804.812	39.49
804.986	40.51
805.161	41.81
805.335	42.37
805.51	41.22
805.684	40.7
805.858	41.73
806.033	40.56
806.207	40.48
806.381	43.28
806.556	42.71
806.73	42.15
806.904	42.08
807.078	38.02
807.253	37.79
807.427	36.56
807.601	34.3
807.775	32.86
807.949	34.76
808.123	29.33
808.298	27.11
808.472	24.29
808.646	26.53
808.82	25.9
808.994	28.17
809.168	26.85
809.342	28.24
809.516	29.99
809.69	26.48
809.864	26.42
810.038	26.73
810.212	27.85
810.385	26.34
810.559	24.94
810.733	24.01
810.907	24.51
811.081	23.79
811.255	27.69
811.428	29.32
811.602	32.83
811.776	33.6
811.95	37.21
812.123	39.21
812.297	39.55
812.471	38.99
812.644	42.03
812.818	46.65
812.992	50.62
813.165	45.39
813.339	44.79
813.512	46.43
813.686	43.17
813.86	45.98
814.033	44.4
814.207	46.38
814.38	49.7
814.554	43.72
814.727	37.28
814.9	30.58
815.074	31.12
815.247	33.25
815.421	34.07
815.594	40.78
815.767	37.59
815.941	38.2
816.114	36.7
816.287	35.46
816.46	40.5
816.634	40.32
816.807	44.91
816.98	46.41
817.153	43.34
817.327	44.19
817.5	35.22
817.673	34.64
817.846	37.96
818.019	42.81
818.192	42.43
818.365	42.82
818.538	42.62
818.711	42.38
818.884	42.07
819.057	44.54
819.23	42.47
819.403	44.19
819.576	45.05
819.749	43.05
819.922	41.51
820.095	42.05
820.268	41.08
820.441	40.77
820.614	37.68
820.786	37.4
820.959	36.72
821.132	35.77
821.305	37.24
821.477	37.32
821.65	37.08
821.823	36.07
821.996	35.9
822.168	35.65
822.341	36.31
822.514	37.91
822.686	37.62
822.859	36.8
823.031	37.05
823.204	37.47
823.376	37.44
823.549	37.47
823.722	38.05
823.894	37.51
824.067	37.09
824.239	36.76
824.411	36.05
824.584	35.59
824.756	36.07
824.929	36.12
825.101	35.59
825.273	34.98
825.446	35.92
825.618	35.26
825.79	35.84
825.963	36.33
826.135	36.06
826.307	36.48
826.479	37.43
826.652	37.78
826.824	37.55
826.996	36.49
827.168	38.03
827.34	36.14
827.512	36.16
827.684	36.11
827.856	37.3
828.029	38.13
828.201	37.79
828.373	38.67
828.545	38.76
828.717	39.09
828.889	41.03
829.061	38.08
829.232	40.14
829.404	40.64
829.576	42.9
829.748	41.36
829.92	42.41
830.092	42.94
830.264	42.16
830.436	40.6
830.607	40.33
830.779	36.33
830.951	40.05
831.123	39.73
831.294	38.19
831.466	35.24
831.638	38.12
831.809	36.44
831.981	32.16
832.153	33.51
832.324	34.2
832.496	35.67
832.667	38.56
832.839	33.33
833.011	32.26
833.182	33.76
833.354	36.73
833.525	37.52
833.697	38.25
833.868	40.72
834.039	40.04
834.211	42
834.382	40.48
834.554	41.32
834.725	46.08
834.896	46.25
835.068	48.26
835.239	46.37
835.41	44.47
835.581	43.89
835.753	44.61
835.924	46.5
836.095	43.81
836.266	45.81
836.438	44.06
836.609	39
836.78	37.83
836.951	37.21
837.122	37.79
837.293	37.75
837.464	34.78
837.635	32.26
837.806	27.93
837.977	28.61
838.148	22.08
838.319	24
838.49	25.31
838.661	24.2
838.832	22.07
839.003	23.01
839.174	24.14
839.345	30.19
839.516	28.04
839.687	34.31
839.857	37.54
840.028	46.42
840.199	46.65
840.37	45.47
840.54	45.26
840.711	43.94
840.882	41.05
841.053	40.14
841.223	31.3
841.394	36.21
841.564	29.08
841.735	26.32
841.906	20.23
842.076	17.21
842.247	21.16
842.417	23.59
842.588	24.47
842.758	28.51
842.929	18.72
843.099	33.29
843.27	29.34
843.44	36.66
843.611	37.98
843.781	42.53
843.951	48.49
844.122	30.95
844.292	27.26
844.462	22.98
844.633	25.52
844.803	35.69
844.973	24.61
845.144	38.83
845.314	29.31
845.484	40.25
845.654	36.82
845.824	32.42
845.995	48.03
846.165	44.72
846.335	53.23
846.505	50.5
846.675	45.89
846.845	52.27
847.015	42.03
847.185	39.61
847.355	31.53
847.525	39.94
847.695	37.88
847.865	36.36
848.035	40.93
848.205	35.86
848.375	36.62
848.545	40.22
848.715	36.14
848.884	43.91
849.054	52.58
849.224	57.61
849.394	47.75
849.564	55.81
849.733	51.97
849.903	64.84
850.073	66.83
850.243	71.42
850.412	70.62
850.582	73.16
850.752	66.42
850.921	53.14
851.091	56.55
851.26	65.14
851.43	51.21
851.599	60.86
851.769	50.76
851.939	38.52
852.108	27.99
852.278	31.41
852.447	38.14
852.616	43.85
852.786	46.47
852.955	50.39
853.125	45.75
853.294	39.9
853.463	38.81
853.633	37.43
853.802	53.5
853.971	68.48
854.141	65.38
854.31	67.41
854.479	63.31
854.648	68.31
854.818	54.57
854.987	57.31
855.156	73.56
855.325	72.49
855.494	62
855.663	52.7
855.832	58.09
856.001	59.23
856.171	56.75
856.34	57.86
856.509	59.92
856.678	66.95
856.847	62.1
857.016	63.08
857.185	46.63
857.353	52.86
857.522	54.58
857.691	37.69
857.86	32.15
858.029	27.14
858.198	26.96
858.367	36.98
858.535	38.95
858.704	43.38
858.873	54.96
859.042	80.09
859.21	63.76
859.379	64.37
859.548	71.43
859.717	87.2
859.885	79.36
860.054	78.99
860.222	54.06
860.391	44.64
860.56	24.79
860.728	18.76
860.897	8.06
861.065	18.57
861.234	14.82
861.402	6.42
861.571	5.09
861.739	17.99
861.908	25.08
862.076	30.38
862.244	40.2
862.413	47.76
862.581	36.79
862.749	33.85
862.918	34.9
863.086	35.78
863.254	39.22
863.423	24.22
863.591	0.49
863.759	-36.11
863.927	-18.41
864.096	-33.31
864.264	-44.19
864.432	-37.45
864.6	-24.44
864.768	-9.84
864.936	-13.24
865.104	0.41
865.272	-2.42
865.44	-12.39
865.608	-1.93
865.776	-11.63
865.944	-0.6
866.112	13.77
866.28	37.96
866.448	28.06
866.616	11.95
866.784	35.3
866.952	26.51
867.12	23.08
867.288	33.64
867.455	11.33
867.623	17.18
867.791	26.96
867.959	18.4
868.127	29.84
868.294	47.74
868.462	75.73
868.63	58.64
868.797	65.86
868.965	80.1
869.133	69.65
869.3	80.21
869.468	79.59
869.636	74.1
869.803	75.82
869.971	56.81
870.138	57.85
870.306	50.58
870.473	64.54
870.641	75.3
870.808	73.11
870.975	66.16
871.143	66.07
871.31	55.73
871.478	54.17
871.645	50.57
871.812	70.09
871.98	77.36
872.147	66.58
872.314	48.11
872.482	45.82
872.649	44
872.816	56.93
872.983	49.92
873.15	51.11
873.318	51.61
873.485	50.36
873.652	42.26
873.819	47.95
873.986	41.32
874.153	49.97
874.32	38.75
874.487	37.16
874.654	47.42
874.821	40.28
874.988	57.98
875.155	52.82
875.322	51.44
875.489	63.47
875.656	48.68
875.823	49.77
875.99	52.75
876.157	58.66
876.324	62.2
876.49	47.7
876.657	56.16
876.824	51.11
876.991	55.21
877.157	44.67
877.324	30.84
877.491	25.29
877.658	27.65
877.824	31.84
877.991	24.34
878.157	11.82
878.324	13.29
878.491	15.11
878.657	13.51
878.824	6.66
878.99	15.68
879.157	18.87
879.323	34.59
879.49	24.62
879.656	6.46
879.823	3.74
879.989	19.55
880.156	20.13
880.322	27.8
880.488	34
880.655	34.23
880.821	28.6
880.987	33.98
881.154	33.41
881.32	57.51
881.486	55.39
881.652	57.56
881.819	57.75
881.985	55.29
882.151	50.76
882.317	44.37
882.483	47.18
882.649	48.78
882.816	46.45
882.982	44.11
883.148	42.49
883.314	42.39
883.48	37.7
883.646	38.02
883.812	37.44
883.978	38.06
884.144	41.62
884.31	40.26
884.476	38.23
884.642	40.17
884.807	39.32
884.973	36.18
885.139	36.74
885.305	38.15
885.471	33.97
885.637	31.53
885.802	31.04
885.968	27.28
886.134	25.73
886.3	29.28
886.465	25.43
886.631	27.82
886.797	25.95
886.962	25.49
887.128	31.32
887.293	37.3
887.459	40.1
887.625	37.75
887.79	49.49
887.956	50.14
888.121	48.71
888.287	52.43
888.452	48.48
888.618	57.17
888.783	57.74
