Data from 2937824_Reflection_2.txt Node
Date: Wed Jul 15 17:08:31 EDT 2015
User: robert
Spectrometer: USB4E03001
Autoset integration time: false
Trigger mode: 4
Integration Time (sec): 1.000000E-1
Scans to average: 10
Electric dark correction enabled: true
Nonlinearity correction enabled: false
Boxcar width: 5
Stray light correction enabled: false
XAxis mode: Wavelengths
Stop averaging: false
Number of Pixels in Spectrum: 3648
>>>>>Begin Spectral Data<<<<<
177.566	27.84
177.785	29.06
178.005	35.01
178.225	40.52
178.445	40.61
178.665	57.02
178.885	221.56
179.105	15.86
179.324	7
179.544	33.4
179.764	34.08
179.984	14.64
180.204	2.84
180.423	8.37
180.643	24.1
180.863	22.34
181.083	32.06
181.302	27.36
181.522	-1.5
181.742	18.73
181.961	1.33
182.181	-2.17
182.401	29.2
182.621	42.75
182.84	69.2
183.06	37.73
183.279	30.68
183.499	52.42
183.719	59.6
183.938	106.39
184.158	128.2
184.377	190.21
184.597	198.68
184.816	255.87
185.036	298.3
185.256	896.43
185.475	612.78
185.695	423.94
185.914	678.87
186.134	500.46
186.353	308.42
186.572	214.75
186.792	186.74
187.011	132.68
187.231	99.08
187.45	75.8
187.67	50.45
187.889	49.27
188.108	40.95
188.328	33.09
188.547	56.88
188.766	23.51
188.986	38.12
189.205	37.58
189.424	51.83
189.644	47.18
189.863	68.32
190.082	128.32
190.302	86.39
190.521	62.63
190.74	109.93
190.959	70.51
191.178	87.36
191.398	47.46
191.617	60.35
191.836	84.81
192.055	105.34
192.274	85.1
192.494	62.12
192.713	57.42
192.932	40.17
193.151	35.35
193.37	58.02
193.589	91.23
193.808	116.81
194.027	88.77
194.246	45.27
194.465	72.09
194.685	59.08
194.904	78.92
195.123	210
195.342	216.31
195.561	276.09
195.78	638.84
195.999	235.96
196.218	413.81
196.436	1109.11
196.655	-1025.89
196.874	-3982.72
197.093	-942.04
197.312	-555.71
197.531	573.87
197.75	453.06
197.969	260.69
198.188	273.56
198.407	186.75
198.625	150.4
198.844	110.2
199.063	99.11
199.282	89.4
199.501	69.95
199.719	53
199.938	63.02
200.157	60.61
200.376	37.66
200.594	26.56
200.813	45.64
201.032	41.24
201.251	57.05
201.469	53.22
201.688	77.93
201.907	90.17
202.125	139.68
202.344	143.72
202.563	122.5
202.781	183.62
203	120.16
203.218	121.27
203.437	105.4
203.656	114.24
203.874	125.77
204.093	115.37
204.311	93.96
204.53	74.06
204.748	62.29
204.967	80.36
205.185	81.27
205.404	76
205.622	-765.69
205.841	10041.86
206.059	-239.55
206.278	167.99
206.496	80.99
206.715	75.25
206.933	98.14
207.151	-16.91
207.37	-46.32
207.588	97.65
207.806	118.53
208.025	64.94
208.243	17.85
208.461	49.13
208.68	65.34
208.898	100.65
209.116	108.07
209.335	96.29
209.553	92.55
209.771	85.05
209.989	92.56
210.208	70.49
210.426	85.7
210.644	78.07
210.862	67.82
211.081	64.07
211.299	40
211.517	26.3
211.735	25.81
211.953	13.53
212.171	19.8
212.39	42.37
212.608	68.92
212.826	57.63
213.044	64.89
213.262	147.51
213.48	180.32
213.698	967.26
213.916	-278.66
214.134	-249.91
214.352	-302.54
214.57	461.03
214.788	-37.11
215.006	103.3
215.224	-74.87
215.442	-49.46
215.66	-81.84
215.878	-101.52
216.096	25.83
216.314	6.03
216.532	35.54
216.75	49.05
216.968	29.41
217.185	73.59
217.403	90.98
217.621	123.9
217.839	159.58
218.057	167.75
218.275	127.52
218.492	116.87
218.71	110.1
218.928	109.2
219.146	118.39
219.363	162.19
219.581	130.57
219.799	145.28
220.017	194.53
220.234	224.71
220.452	377.56
220.67	-851.85
220.887	-148.82
221.105	-106.04
221.323	-149.54
221.54	-35.22
221.758	-71.19
221.976	-228.05
222.193	-490.11
222.411	317.65
222.629	276.92
222.846	1020.73
223.064	428.5
223.281	364.75
223.499	408.55
223.716	-283.06
223.934	1391.14
224.151	-247.39
224.369	-94.11
224.586	-98.35
224.804	-115.96
225.021	-155.9
225.239	-114.19
225.456	-276.32
225.674	-270.05
225.891	-227.79
226.108	3434.91
226.326	-6305.04
226.543	10386.59
226.76	-812.22
226.978	-1494.23
227.195	-333.65
227.413	-239.71
227.63	-159.07
227.847	-55.84
228.064	-27.61
228.282	-6.07
228.499	4.7
228.716	12.43
228.934	4.5
229.151	5.19
229.368	7.99
229.585	7.31
229.802	13.79
230.02	11.9
230.237	8.97
230.454	8.7
230.671	2.85
230.888	3.76
231.105	0.17
231.323	2.02
231.54	2.04
231.757	4.62
231.974	5.56
232.191	-6.73
232.408	-5.51
232.625	-5.99
232.842	-13.17
233.059	-8.89
233.276	-17.49
233.493	-12.95
233.71	-14.83
233.927	-17.73
234.144	-10.79
234.361	-10.14
234.578	-1.06
234.795	0.34
235.012	-2.42
235.229	-2.75
235.446	-9.69
235.663	-3.71
235.879	-4.37
236.096	-7.67
236.313	-2.07
236.53	-16.53
236.747	-9.45
236.964	-13.67
237.181	-13.93
237.397	-14.94
237.614	-3.22
237.831	-1.78
238.048	-5.21
238.264	-8.19
238.481	0.23
238.698	-3.02
238.915	3.98
239.131	-7.09
239.348	-4.9
239.565	-9.63
239.781	-2.27
239.998	-5.47
240.215	-2.25
240.431	0.24
240.648	2.67
240.865	1.38
241.081	5.39
241.298	10.5
241.514	13.05
241.731	12.42
241.947	11.31
242.164	12.13
242.38	12.53
242.597	13.75
242.814	13.14
243.03	12.55
243.246	14.91
243.463	12.87
243.679	9.63
243.896	9.07
244.112	6.61
244.329	7.6
244.545	4.3
244.762	2.48
244.978	0.76
245.194	1.13
245.411	2.13
245.627	1.79
245.843	2.23
246.06	3.57
246.276	4.38
246.492	7.7
246.709	8.59
246.925	9.43
247.141	9.66
247.357	9
247.574	9.17
247.79	7.99
248.006	8.01
248.222	8.19
248.439	6.67
248.655	6.23
248.871	5.39
249.087	4.54
249.303	2.88
249.519	2.07
249.736	3
249.952	0.26
250.168	2.17
250.384	0.09
250.6	-0.2
250.816	1.92
251.032	1.78
251.248	0.23
251.464	0.64
251.68	4.16
251.896	2.43
252.112	1.76
252.328	4.28
252.544	1.2
252.76	1.12
252.976	2.37
253.192	4.75
253.408	6.15
253.624	3.47
253.84	3.13
254.056	0.48
254.272	2.5
254.487	-0.59
254.703	-3.64
254.919	0.02
255.135	2.66
255.351	3.01
255.567	-3.16
255.782	-1.55
255.998	-1.75
256.214	2.92
256.43	5.65
256.646	11.67
256.861	13.31
257.077	13.03
257.293	11.39
257.508	10.44
257.724	9.46
257.94	8.85
258.155	7.25
258.371	8
258.587	7.46
258.802	7.06
259.018	6.19
259.234	7.01
259.449	8.34
259.665	8.76
259.88	8.34
260.096	8.2
260.312	8.72
260.527	8.52
260.743	8.49
260.958	7.86
261.174	7.51
261.389	6.8
261.605	6.32
261.82	4.56
262.036	3.07
262.251	3.47
262.466	3.87
262.682	3.42
262.897	3.06
263.113	2.72
263.328	2.14
263.543	0.49
263.759	1.08
263.974	0.06
264.189	0.94
264.405	0.88
264.62	2.97
264.835	-0.43
265.051	2.27
265.266	3.68
265.481	6.45
265.696	5.44
265.912	6.72
266.127	8.78
266.342	7.45
266.557	7.53
266.773	7.74
266.988	3.33
267.203	3.36
267.418	2.16
267.633	1.74
267.848	1.51
268.064	1.62
268.279	3.55
268.494	-0.14
268.709	1.19
268.924	1.7
269.139	2.91
269.354	4.84
269.569	4.1
269.784	2.17
269.999	3.2
270.214	1.73
270.429	-0.03
270.644	-1.69
270.859	-1.21
271.074	-0.12
271.289	0.75
271.504	0.51
271.719	0.47
271.934	3.13
272.149	3.84
272.363	2.87
272.578	3.74
272.793	5.13
273.008	5.03
273.223	6.23
273.438	5.77
273.653	3.75
273.867	4.84
274.082	2.33
274.297	1.77
274.512	0.69
274.726	-0.46
274.941	-0.26
275.156	0.05
275.371	-0.46
275.585	0.67
275.8	0.24
276.015	1.13
276.229	-1.11
276.444	0.82
276.659	1
276.873	3.05
277.088	3.65
277.302	4.25
277.517	4.54
277.732	4.87
277.946	2.7
278.161	1.79
278.375	0.01
278.59	1.34
278.804	0.37
279.019	0.7
279.233	0.45
279.448	1.58
279.662	0.42
279.877	-0.62
280.091	-0.98
280.306	-0.57
280.52	-1.26
280.735	2.41
280.949	3.47
281.163	6.16
281.378	4.57
281.592	3.34
281.806	4.25
282.021	3.74
282.235	5.35
282.449	6.47
282.664	6.28
282.878	7.76
283.092	8.14
283.307	5.03
283.521	4.85
283.735	5.29
283.949	5.34
284.164	5.58
284.378	5.45
284.592	4.51
284.806	2.62
285.02	2.72
285.234	2.53
285.449	0.82
285.663	2.58
285.877	4.2
286.091	3.11
286.305	4.77
286.519	4.26
286.733	4.43
286.947	5.23
287.161	7.4
287.375	6.77
287.589	7.25
287.803	6.38
288.017	7.47
288.231	4.73
288.445	5.36
288.659	4.68
288.873	3.47
289.087	4.82
289.301	4.49
289.515	4.44
289.729	2.79
289.943	3.41
290.157	5.49
290.371	4.31
290.584	6.13
290.798	6.74
291.012	6.31
291.226	6.56
291.44	4.67
291.654	5.45
291.867	5.72
292.081	6.46
292.295	7
292.509	5.49
292.722	5.77
292.936	5.55
293.15	5.94
293.364	4.07
293.577	5.03
293.791	7.18
294.005	7.11
294.218	7.13
294.432	9.6
294.645	7.36
294.859	6.01
295.073	6.24
295.286	4.5
295.5	3.4
295.713	6.73
295.927	5.08
296.14	5.59
296.354	5.49
296.568	4.5
296.781	5.16
296.994	7.3
297.208	9.88
297.421	9.76
297.635	10.11
297.848	11.53
298.062	10.87
298.275	11.43
298.489	10.11
298.702	10.84
298.915	11.92
299.129	11.96
299.342	10.89
299.555	9.49
299.769	11.04
299.982	11.97
300.195	11.11
300.409	10.8
300.622	11.53
300.835	12.34
301.048	11.97
301.262	9.84
301.475	8.95
301.688	9.89
301.901	10.68
302.115	9.98
302.328	8.89
302.541	11.71
302.754	8.85
302.967	7.17
303.18	8.39
303.393	7.89
303.607	8.19
303.82	8.74
304.033	8.75
304.246	8.15
304.459	7.95
304.672	8.94
304.885	7.49
305.098	9.66
305.311	10.41
305.524	10.95
305.737	10.38
305.95	11.3
306.163	11.22
306.376	12.3
306.589	13.07
306.802	13.04
307.015	12.83
307.228	11.15
307.44	10.05
307.653	12.1
307.866	9.11
308.079	9.7
308.292	10.77
308.505	9.83
308.718	7.33
308.93	8.17
309.143	7.21
309.356	8.09
309.569	7.75
309.781	9.95
309.994	10.14
310.207	10.55
310.42	10.85
310.632	10.3
310.845	9.97
311.058	11.09
311.27	10.22
311.483	10.33
311.696	10.05
311.908	11.12
312.121	8.79
312.333	8.36
312.546	8.67
312.759	6.64
312.971	5.97
313.184	7.32
313.396	6.82
313.609	9.09
313.821	7.78
314.034	5.21
314.246	5.51
314.459	7.77
314.671	7.62
314.884	7.43
315.096	9.48
315.309	10.04
315.521	8.07
315.733	7.45
315.946	5.75
316.158	7.94
316.371	12.63
316.583	12.18
316.795	10.93
317.008	9.85
317.22	10.11
317.432	10.08
317.644	9.36
317.857	10.44
318.069	10.61
318.281	10.06
318.494	9.61
318.706	7.72
318.918	8.87
319.13	9.86
319.342	10.72
319.555	10.47
319.767	10.31
319.979	8.06
320.191	7.66
320.403	7.34
320.615	6.02
320.827	5.21
321.039	2.59
321.252	0.59
321.464	0.21
321.676	-2.44
321.888	-3.1
322.1	-5.9
322.312	-2.21
322.524	-2.05
322.736	-2.67
322.948	-2.87
323.16	-0.98
323.372	1.51
323.584	0.81
323.796	3.29
324.007	4.38
324.219	3.29
324.431	5.28
324.643	4.68
324.855	4.25
325.067	5.54
325.279	7.13
325.491	6.02
325.702	5.99
325.914	5.98
326.126	4.65
326.338	2.8
326.55	4.81
326.761	3.21
326.973	2.28
327.185	2.77
327.396	2.87
327.608	1.43
327.82	3.25
328.032	1.6
328.243	2.34
328.455	4.07
328.666	8.71
328.878	8.21
329.09	7.74
329.301	9
329.513	9.7
329.725	8.59
329.936	9.72
330.148	9.75
330.359	10.43
330.571	10.51
330.782	6.81
330.994	2.56
331.205	2.48
331.417	3.93
331.628	2.8
331.84	1.89
332.051	3.78
332.262	2.5
332.474	0.77
332.685	0.16
332.897	1.46
333.108	2.21
333.319	3.23
333.531	3.65
333.742	5.41
333.953	6.73
334.165	7.03
334.376	6.24
334.587	7.84
334.799	7.16
335.01	7.67
335.221	5.01
335.432	7.69
335.644	9.58
335.855	10.04
336.066	9.88
336.277	10.06
336.488	10.72
336.7	9.68
336.911	9.06
337.122	10.8
337.333	11.05
337.544	11.97
337.755	10.7
337.966	8.9
338.177	8.36
338.388	7.77
338.599	7.57
338.811	6.43
339.022	5.57
339.233	5.49
339.444	3.95
339.655	3.22
339.866	3.59
340.076	3.68
340.287	3.8
340.498	4.58
340.709	6.31
340.92	5.68
341.131	6.85
341.342	8.02
341.553	7.07
341.764	6.17
341.975	7.05
342.185	8.1
342.396	8.4
342.607	8.37
342.818	7.73
343.029	5.29
343.239	6.45
343.45	5.57
343.661	6.18
343.872	5.95
344.082	9.48
344.293	8.27
344.504	8.93
344.714	8.22
344.925	8.36
345.136	8.25
345.346	8.19
345.557	7.23
345.768	8.4
345.978	8.01
346.189	9.36
346.399	6.47
346.61	9.24
346.821	8.13
347.031	6.86
347.242	7.16
347.452	6.45
347.663	6.64
347.873	6.71
348.084	6.27
348.294	7.6
348.504	7.41
348.715	9.14
348.925	9
349.136	9.33
349.346	10.33
349.557	10.47
349.767	10.98
349.977	10.22
350.188	10.72
350.398	11.67
350.608	11.64
350.819	12.2
351.029	11.51
351.239	10.55
351.449	10.01
351.66	10.99
351.87	10.43
352.08	11.34
352.29	13.29
352.501	12.43
352.711	12.68
352.921	13.03
353.131	12.07
353.341	12.03
353.552	12.35
353.762	11.69
353.972	10.92
354.182	10.81
354.392	10.57
354.602	11.09
354.812	11.96
355.022	9.95
355.232	8.69
355.442	9.13
355.652	9.71
355.862	9.57
356.072	10.66
356.282	9.87
356.492	11.59
356.702	11.77
356.912	10.98
357.122	11.43
357.332	12.69
357.542	11.2
357.752	11.65
357.962	10.41
358.171	9.68
358.381	9.3
358.591	9.69
358.801	9.03
359.011	8.67
359.221	8.95
359.43	7.86
359.64	6.85
359.85	8.3
360.06	8.06
360.269	9.36
360.479	9.3
360.689	9.12
360.899	9.47
361.108	9.59
361.318	10.67
361.528	9.98
361.737	10
361.947	9.96
362.156	10.23
362.366	10.2
362.576	9.46
362.785	10.6
362.995	11.15
363.204	11.07
363.414	9.57
363.623	8.68
363.833	8.39
364.042	8.68
364.252	8.73
364.461	8.92
364.671	8.82
364.88	9.72
365.09	7.76
365.299	6.65
365.509	6.4
365.718	7.48
365.927	7.74
366.137	7.34
366.346	6.83
366.555	6.69
366.765	6.63
366.974	5.62
367.183	5.3
367.393	6
367.602	6.27
367.811	5.65
368.021	4.85
368.23	4.54
368.439	6.36
368.648	6.17
368.857	4.83
369.067	3.79
369.276	3.15
369.485	3.13
369.694	4.08
369.903	4.71
370.112	5.92
370.321	6.11
370.531	6.73
370.74	5.91
370.949	6.18
371.158	7.28
371.367	6.43
371.576	7.9
371.785	8.36
371.994	7.13
372.203	6.96
372.412	7
372.621	7.43
372.83	7.69
373.039	7.95
373.248	7.57
373.457	8.36
373.666	9.82
373.874	9.76
374.083	8.74
374.292	9.08
374.501	9.23
374.71	8.3
374.919	8.96
375.128	8.02
375.336	8.38
375.545	8.73
375.754	8.09
375.963	7.38
376.171	7.09
376.38	7.29
376.589	6.5
376.798	5.82
377.006	6.37
377.215	6.51
377.424	7.1
377.632	6.12
377.841	6.41
378.05	6.5
378.258	7.49
378.467	6.94
378.675	6.49
378.884	6.93
379.093	7.53
379.301	8.25
379.51	7.71
379.718	7.02
379.927	7.5
380.135	7.69
380.344	8.16
380.552	9.17
380.761	9.58
380.969	9.98
381.177	10.34
381.386	10.17
381.594	9.26
381.803	9.12
382.011	9.08
382.219	9.12
382.428	8.8
382.636	8.07
382.845	6.1
383.053	5.78
383.261	5.88
383.469	6.26
383.678	6.13
383.886	5.87
384.094	5.97
384.302	5.61
384.511	5.61
384.719	5.44
384.927	6.14
385.135	5.93
385.343	6.1
385.552	5.7
385.76	4.96
385.968	4.56
386.176	4.77
386.384	4.99
386.592	5.34
386.8	4.95
387.008	4.65
387.216	4.08
387.424	4.56
387.633	4.77
387.841	5.17
388.049	5.45
388.257	5.45
388.465	5.5
388.672	5.48
388.88	5.63
389.088	5.45
389.296	6.01
389.504	5.73
389.712	5.55
389.92	5.42
390.128	5.27
390.336	5.25
390.544	5.53
390.751	5.75
390.959	5.54
391.167	5.07
391.375	5.43
391.583	5.19
391.79	5.19
391.998	5.49
392.206	5.53
392.414	5.55
392.621	5.68
392.829	5.73
393.037	5.39
393.244	4.95
393.452	5.29
393.66	5.16
393.867	5.1
394.075	5.14
394.283	5.08
394.49	4.76
394.698	4.42
394.905	3.99
395.113	4
395.32	3.59
395.528	3.7
395.735	3.79
395.943	3.83
396.15	4.02
396.358	4.84
396.565	4.67
396.773	5.07
396.98	5.3
397.188	5.49
397.395	5.23
397.602	5.86
397.81	6.01
398.017	5.93
398.225	5.75
398.432	5.45
398.639	4.7
398.847	4.82
399.054	4.7
399.261	4.6
399.468	4.88
399.676	5.33
399.883	5.2
400.09	5
400.297	5.09
400.505	5.04
400.712	5.41
400.919	5.46
401.126	5.4
401.333	5.63
401.54	5.49
401.748	5.53
401.955	5.14
402.162	5.28
402.369	5.35
402.576	5.25
402.783	5.27
402.99	5.2
403.197	5.4
403.404	5.22
403.611	4.8
403.818	5.1
404.025	4.6
404.232	4.5
404.439	4.28
404.646	4.71
404.853	4.82
405.06	5.07
405.267	5.2
405.474	5.21
405.681	5.2
405.887	5.5
406.094	5.51
406.301	5.63
406.508	6.01
406.715	6.06
406.922	5.61
407.128	5.54
407.335	5.34
407.542	5.2
407.749	5.14
407.955	5.35
408.162	5.25
408.369	5.12
408.575	5.19
408.782	4.92
408.989	5.12
409.195	5.13
409.402	4.94
409.609	4.81
409.815	4.9
410.022	4.63
410.228	4.5
410.435	4.57
410.642	4.72
410.848	4.8
411.055	4.79
411.261	4.58
411.468	4.59
411.674	4.6
411.881	4.5
412.087	4.14
412.294	4.48
412.5	4.4
412.706	4.45
412.913	4.51
413.119	4.41
413.326	4.71
413.532	4.67
413.738	4.8
413.945	5
414.151	5.46
414.357	5.82
414.564	5.85
414.77	6.11
414.976	5.89
415.182	5.84
415.389	5.96
415.595	5.87
415.801	6.17
416.007	6.36
416.214	6.02
416.42	5.78
416.626	5.48
416.832	5.34
417.038	5.33
417.244	5.5
417.45	5.42
417.657	5.34
417.863	5.47
418.069	5.31
418.275	5.04
418.481	5.19
418.687	5.2
418.893	5.29
419.099	5.42
419.305	5.33
419.511	5.21
419.717	5.29
419.923	5.2
420.129	4.88
420.335	5.05
420.541	5.01
420.746	4.94
420.952	4.97
421.158	4.91
421.364	4.76
421.57	4.7
421.776	4.71
421.982	4.59
422.187	4.56
422.393	4.65
422.599	4.47
422.805	4.67
423.01	4.7
423.216	4.79
423.422	4.92
423.628	4.86
423.833	4.95
424.039	5.06
424.245	5.2
424.45	5.27
424.656	5.3
424.862	5.34
425.067	5.34
425.273	5.32
425.478	5.2
425.684	5.14
425.889	5.2
426.095	5.18
426.301	5.02
426.506	5.08
426.712	5.03
426.917	4.98
427.123	4.99
427.328	5.04
427.533	5.24
427.739	5.39
427.944	5.54
428.15	5.68
428.355	5.53
428.561	5.57
428.766	5.27
428.971	5.41
429.177	5.49
429.382	5.4
429.587	5.25
429.793	5.29
429.998	5.22
430.203	4.98
430.408	4.94
430.614	5.09
430.819	5.18
431.024	5.32
431.229	5.27
431.434	5.21
431.64	5.17
431.845	4.99
432.05	4.68
432.255	4.69
432.46	4.57
432.665	4.52
432.87	4.42
433.076	4.41
433.281	4.21
433.486	4.32
433.691	4.24
433.896	4.31
434.101	4.21
434.306	4.28
434.511	4.25
434.716	4.35
434.921	4.27
435.126	4.36
435.331	4.29
435.535	4.35
435.74	4.09
435.945	4.2
436.15	4.23
436.355	4.46
436.56	4.44
436.765	4.59
436.97	4.69
437.174	4.77
437.379	4.73
437.584	4.73
437.789	4.96
437.993	5.18
438.198	5.15
438.403	5.13
438.608	5.07
438.812	5.2
439.017	5.04
439.222	4.99
439.426	4.81
439.631	4.8
439.836	5.01
440.04	4.92
440.245	4.9
440.45	5.01
440.654	4.96
440.859	5.07
441.063	4.96
441.268	4.93
441.472	4.91
441.677	4.91
441.881	4.96
442.086	4.77
442.29	4.78
442.495	4.84
442.699	4.64
442.904	4.65
443.108	4.71
443.312	4.73
443.517	4.82
443.721	4.93
443.925	5.06
444.13	4.9
444.334	4.79
444.538	4.59
444.743	4.65
444.947	4.83
445.151	4.86
445.356	4.74
445.56	4.8
445.764	4.71
445.968	4.57
446.173	4.59
446.377	4.77
446.581	4.87
446.785	5.04
446.989	4.93
447.193	4.87
447.398	4.77
447.602	4.79
447.806	4.67
448.01	4.72
448.214	4.85
448.418	4.82
448.622	4.84
448.826	4.87
449.03	4.85
449.234	4.85
449.438	4.99
449.642	4.95
449.846	4.78
450.05	4.84
450.254	5.06
450.458	4.95
450.662	4.85
450.866	4.75
451.069	4.61
451.273	4.59
451.477	4.46
451.681	4.25
451.885	4.48
452.089	4.65
452.292	4.66
452.496	4.22
452.7	4.17
452.904	4.29
453.107	4.16
453.311	4.18
453.515	4.1
453.719	4.3
453.922	4.4
454.126	4.41
454.33	4.57
454.533	4.59
454.737	4.75
454.94	4.71
455.144	4.76
455.348	4.83
455.551	4.94
455.755	4.95
455.958	4.72
456.162	4.62
456.365	4.45
456.569	4.44
456.772	4.44
456.976	4.51
457.179	4.88
457.383	4.75
457.586	4.84
457.79	4.66
457.993	4.57
458.196	4.63
458.4	4.59
458.603	4.61
458.807	4.41
459.01	4.32
459.213	4.27
459.417	4.06
459.62	4.15
459.823	4.19
460.026	4.2
460.23	4.25
460.433	4.31
460.636	4.36
460.839	4.33
461.042	4.38
461.246	4.43
461.449	4.53
461.652	4.62
461.855	4.75
462.058	4.75
462.261	4.75
462.464	5.08
462.668	5.2
462.871	5.26
463.074	5.32
463.277	5.32
463.48	5.51
463.683	5.55
463.886	5.54
464.089	5.5
464.292	5.58
464.495	5.91
464.698	5.56
464.901	5.31
465.104	5.15
465.306	4.99
465.509	4.97
465.712	4.79
465.915	4.71
466.118	4.76
466.321	4.57
466.524	4.31
466.726	4.06
466.929	4.06
467.132	3.93
467.335	3.95
467.538	4.16
467.74	4.23
467.943	4.36
468.146	4.3
468.348	4.05
468.551	4.11
468.754	4.34
468.956	4.39
469.159	4.49
469.362	4.65
469.564	4.82
469.767	4.85
469.969	4.8
470.172	4.73
470.375	4.79
470.577	5.03
470.78	4.98
470.982	4.79
471.185	4.68
471.387	4.72
471.59	4.56
471.792	4.49
471.995	4.46
472.197	4.38
472.399	4.1
472.602	4.2
472.804	4.21
473.007	4.36
473.209	4.47
473.411	4.35
473.614	4.01
473.816	4.12
474.018	4.2
474.22	4.29
474.423	4.31
474.625	4.62
474.827	4.47
475.03	4.36
475.232	4.32
475.434	4.16
475.636	4.48
475.838	4.71
476.04	4.85
476.243	4.84
476.445	4.53
476.647	4.59
476.849	4.44
477.051	4.57
477.253	4.78
477.455	4.77
477.657	4.86
477.859	4.74
478.061	4.82
478.263	4.66
478.465	4.53
478.667	4.94
478.869	4.85
479.071	4.78
479.273	4.63
479.475	4.54
479.677	4.53
479.879	4.48
480.081	4.55
480.283	4.52
480.485	4.6
480.686	4.56
480.888	4.39
481.09	4.28
481.292	4.27
481.494	4.33
481.695	4.31
481.897	4.25
482.099	4.38
482.301	4.36
482.502	4.34
482.704	4.32
482.906	4.38
483.107	4.37
483.309	4.45
483.511	4.48
483.712	4.45
483.914	4.48
484.115	4.46
484.317	4.44
484.519	4.46
484.72	4.4
484.922	4.42
485.123	4.38
485.325	4.41
485.526	4.39
485.728	4.32
485.929	4.3
486.131	4.22
486.332	4.27
486.534	4.26
486.735	4.17
486.936	4.25
487.138	4.22
487.339	4.3
487.541	4.31
487.742	4.37
487.943	4.47
488.144	4.57
488.346	4.64
488.547	4.63
488.748	4.62
488.95	4.67
489.151	4.73
489.352	4.7
489.553	4.64
489.755	4.58
489.956	4.56
490.157	4.57
490.358	4.59
490.559	4.5
490.76	4.42
490.961	4.31
491.163	4.34
491.364	4.25
491.565	4.39
491.766	4.43
491.967	4.48
492.168	4.53
492.369	4.52
492.57	4.45
492.771	4.51
492.972	4.5
493.173	4.61
493.374	4.61
493.575	4.6
493.776	4.54
493.976	4.63
494.177	4.54
494.378	4.48
494.579	4.57
494.78	4.53
494.981	4.38
495.182	4.63
495.382	4.8
495.583	4.71
495.784	4.71
495.985	4.8
496.185	4.75
496.386	4.83
496.587	4.87
496.788	4.83
496.988	4.77
497.189	4.94
497.39	4.91
497.59	4.8
497.791	4.99
497.992	4.95
498.192	4.95
498.393	4.93
498.593	4.98
498.794	4.84
498.994	4.7
499.195	4.78
499.395	4.61
499.596	4.58
499.796	4.66
499.997	4.48
500.197	4.75
500.398	4.8
500.598	4.71
500.799	4.43
500.999	4.63
501.199	4.77
501.4	4.88
501.6	4.9
501.801	5.01
502.001	5
502.201	5.04
502.402	5.01
502.602	4.82
502.802	4.79
503.002	5.01
503.203	5.07
503.403	4.98
503.603	5.05
503.803	5.21
504.003	5.23
504.204	5.19
504.404	5.43
504.604	5.4
504.804	5.37
505.004	5.59
505.204	5.66
505.404	5.69
505.604	5.86
505.804	5.69
506.005	5.63
506.205	5.5
506.405	5.46
506.605	5.5
506.805	5.49
507.005	5.58
507.204	5.47
507.404	5.31
507.604	5.25
507.804	5.34
508.004	5.3
508.204	5.44
508.404	5.63
508.604	5.7
508.804	5.55
509.003	5.68
509.203	5.83
509.403	5.84
509.603	6.01
509.803	5.94
510.002	5.82
510.202	6.02
510.402	5.81
510.602	5.68
510.801	5.77
511.001	5.71
511.201	5.72
511.4	5.66
511.6	5.77
511.8	5.69
511.999	5.72
512.199	5.76
512.398	5.64
512.598	5.74
512.797	5.71
512.997	5.79
513.197	5.78
513.396	5.72
513.596	5.64
513.795	5.47
513.994	5.49
514.194	5.55
514.393	5.69
514.593	5.77
514.792	5.79
514.992	6.01
515.191	5.76
515.39	6
515.59	6.02
515.789	6.35
515.988	6.46
516.188	6.47
516.387	6.31
516.586	6.22
516.786	6.12
516.985	6.07
517.184	5.98
517.383	6.01
517.582	5.88
517.782	5.92
517.981	5.62
518.18	5.82
518.379	5.9
518.578	6.08
518.777	6.11
518.976	6.18
519.176	6.23
519.375	6.36
519.574	6.52
519.773	6.61
519.972	6.72
520.171	6.92
520.37	6.77
520.569	6.8
520.768	6.71
520.967	6.75
521.166	6.74
521.365	6.75
521.564	6.65
521.762	6.49
521.961	6.56
522.16	6.43
522.359	6.28
522.558	6.31
522.757	6.24
522.956	6.2
523.154	6.12
523.353	6.31
523.552	6.32
523.751	6.42
523.949	6.55
524.148	6.34
524.347	6.39
524.546	6.51
524.744	6.65
524.943	6.73
525.142	6.88
525.34	6.92
525.539	6.85
525.737	6.95
525.936	6.84
526.135	6.83
526.333	6.96
526.532	6.92
526.73	6.96
526.929	6.97
527.127	7.04
527.326	7.09
527.524	7.18
527.723	7.23
527.921	7.26
528.12	7.42
528.318	7.47
528.516	7.54
528.715	7.63
528.913	7.65
529.112	7.64
529.31	7.6
529.508	7.65
529.707	7.6
529.905	7.67
530.103	7.74
530.301	7.75
530.5	7.75
530.698	7.77
530.896	7.8
531.094	7.81
531.293	7.86
531.491	7.86
531.689	7.84
531.887	7.95
532.085	7.9
532.283	7.81
532.481	7.76
532.68	7.85
532.878	7.87
533.076	7.93
533.274	7.93
533.472	7.89
533.67	7.97
533.868	7.89
534.066	7.88
534.264	7.9
534.462	7.93
534.66	7.97
534.858	8.02
535.056	8.02
535.253	8.05
535.451	8.15
535.649	8.3
535.847	8.41
536.045	8.64
536.243	8.72
536.441	8.83
536.638	8.86
536.836	8.94
537.034	8.9
537.232	8.93
537.43	8.9
537.627	8.94
537.825	8.75
538.023	8.69
538.22	8.68
538.418	8.61
538.616	8.61
538.813	8.67
539.011	8.57
539.209	8.68
539.406	8.65
539.604	8.79
539.801	8.76
539.999	9.09
540.196	9.14
540.394	9.2
540.591	9.44
540.789	9.4
540.986	9.47
541.184	9.63
541.381	9.67
541.579	9.74
541.776	9.69
541.974	9.74
542.171	9.72
542.368	9.75
542.566	9.82
542.763	9.75
542.96	9.86
543.158	9.8
543.355	9.72
543.552	9.63
543.75	9.68
543.947	9.8
544.144	9.8
544.341	9.75
544.539	9.89
544.736	9.89
544.933	10.02
545.13	10.06
545.327	10.36
545.524	10.46
545.722	10.58
545.919	10.59
546.116	10.48
546.313	10.66
546.51	10.84
546.707	10.81
546.904	10.71
547.101	10.74
547.298	10.77
547.495	10.61
547.692	10.67
547.889	10.83
548.086	10.86
548.283	11.12
548.48	11.2
548.677	11.11
548.874	11.21
549.07	11.32
549.267	11.39
549.464	11.47
549.661	11.54
549.858	11.69
550.055	11.61
550.251	11.9
550.448	11.87
550.645	11.65
550.842	12.03
551.038	12.08
551.235	12.44
551.432	12.48
551.628	12.62
551.825	12.8
552.022	12.6
552.218	12.54
552.415	12.33
552.612	12.4
552.808	12.56
553.005	12.47
553.201	12.52
553.398	12.4
553.594	12.42
553.791	12.33
553.987	12.4
554.184	12.69
554.38	12.88
554.577	13.2
554.773	13.44
554.97	13.54
555.166	13.6
555.362	13.55
555.559	13.62
555.755	13.57
555.952	13.78
556.148	13.95
556.344	14.07
556.541	14.2
556.737	14.28
556.933	14.14
557.129	14.45
557.326	14.65
557.522	14.67
557.718	14.52
557.914	14.81
558.11	14.73
558.307	14.75
558.503	14.75
558.699	14.73
558.895	14.6
559.091	14.58
559.287	14.5
559.483	14.38
559.679	14.71
559.876	15.07
560.072	15.3
560.268	15.51
560.464	15.68
560.66	15.67
560.856	15.9
561.052	15.96
561.247	15.91
561.443	15.87
561.639	16.01
561.835	16.38
562.031	16.25
562.227	16.18
562.423	16.28
562.619	16.09
562.815	16.29
563.01	16.21
563.206	16.25
563.402	16.44
563.598	16.54
563.793	16.86
563.989	16.43
564.185	16.81
564.381	16.87
564.576	16.97
564.772	17
564.968	17.13
565.163	17.29
565.359	17.48
565.555	17.7
565.75	17.81
565.946	17.84
566.141	18.1
566.337	17.96
566.532	17.93
566.728	17.99
566.923	18.12
567.119	18.13
567.314	18.11
567.51	18.09
567.705	17.98
567.901	17.84
568.096	17.8
568.292	17.78
568.487	17.95
568.682	17.9
568.878	17.86
569.073	17.86
569.268	17.91
569.464	18.09
569.659	18.31
569.854	18.29
570.05	18.67
570.245	18.66
570.44	18.73
570.635	18.78
570.831	18.99
571.026	19.01
571.221	19.04
571.416	19.05
571.611	19.03
571.806	18.97
572.002	19.08
572.197	19.03
572.392	19.12
572.587	19.22
572.782	19.13
572.977	19.08
573.172	19.11
573.367	19.38
573.562	19.39
573.757	19.53
573.952	19.6
574.147	19.77
574.342	19.92
574.537	20.04
574.732	20.1
574.927	20.24
575.121	20.33
575.316	20.42
575.511	20.51
575.706	20.56
575.901	20.39
576.096	20.3
576.29	20.3
576.485	20.2
576.68	20.12
576.875	20.24
577.069	20.42
577.264	20.58
577.459	20.43
577.654	20.01
577.848	20.08
578.043	20.46
578.238	20.73
578.432	20.75
578.627	20.63
578.821	20.8
579.016	20.76
579.21	20.7
579.405	20.46
579.6	20.84
579.794	21.1
579.989	20.91
580.183	20.74
580.378	20.49
580.572	20.58
580.766	20.82
580.961	20.69
581.155	20.47
581.35	20.48
581.544	20.62
581.738	20.56
581.933	20.61
582.127	20.53
582.321	20.26
582.516	20.46
582.71	20.62
582.904	20.75
583.099	20.65
583.293	20.85
583.487	20.6
583.681	20.36
583.875	20.42
584.07	20.4
584.264	20.67
584.458	20.9
584.652	20.85
584.846	20.64
585.04	20.4
585.234	20.48
585.428	20.45
585.623	20.62
585.817	21.18
586.011	21.12
586.205	21.19
586.399	21.36
586.593	21.48
586.787	21.45
586.981	21.61
587.174	21.7
587.368	21.61
587.562	21.71
587.756	21.74
587.95	21.65
588.144	21.67
588.338	21.93
588.532	22.19
588.725	22.08
588.919	22.4
589.113	22.55
589.307	22.66
589.501	22.75
589.694	22.76
589.888	22.84
590.082	22.75
590.275	22.77
590.469	22.88
590.663	22.29
590.856	22.42
591.05	22.33
591.244	22.25
591.437	22.21
591.631	22.44
591.824	22.55
592.018	22.73
592.212	22.84
592.405	22.74
592.599	22.48
592.792	22.75
592.986	22.92
593.179	22.97
593.372	22.92
593.566	22.85
593.759	22.98
593.953	22.94
594.146	22.83
594.339	22.63
594.533	22.77
594.726	22.81
594.92	22.81
595.113	22.69
595.306	22.8
595.499	22.57
595.693	22.76
595.886	22.62
596.079	22.72
596.272	22.64
596.466	22.66
596.659	22.7
596.852	22.9
597.045	23.11
597.238	23.2
597.431	23.08
597.624	23.32
597.818	23.25
598.011	23.12
598.204	22.65
598.397	22.66
598.59	22.93
598.783	22.84
598.976	22.83
599.169	22.44
599.362	22.5
599.555	22.6
599.748	22.6
599.941	22.34
600.134	22.87
600.326	23.32
600.519	23.26
600.712	23.02
600.905	23.05
601.098	22.89
601.291	23
601.483	23.05
601.676	22.85
601.869	22.84
602.062	23.13
602.255	22.9
602.447	22.96
602.64	23.37
602.833	23.44
603.025	23.57
603.218	23.57
603.411	23.95
603.603	23.82
603.796	23.78
603.989	23.81
604.181	23.83
604.374	23.8
604.566	23.77
604.759	23.78
604.951	23.96
605.144	24.02
605.336	23.97
605.529	23.7
605.721	23.74
605.914	23.75
606.106	23.86
606.299	23.98
606.491	23.87
606.683	24.01
606.876	24.01
607.068	23.92
607.26	23.8
607.453	23.85
607.645	24.06
607.837	24.01
608.03	24.08
608.222	24.14
608.414	24.22
608.606	24.31
608.799	24.42
608.991	24.57
609.183	24.36
609.375	24.34
609.567	24.36
609.759	24.29
609.952	24.22
610.144	24.27
610.336	24.16
610.528	23.98
610.72	24.02
610.912	24
611.104	23.73
611.296	23.84
611.488	24.13
611.68	24
611.872	24
612.064	24.17
612.256	24.12
612.448	24.32
612.64	24.41
612.832	24.06
613.023	24.24
613.215	24.4
613.407	24.49
613.599	24.33
613.791	24.57
613.983	24.62
614.174	24.45
614.366	24.97
614.558	24.85
614.75	24.83
614.941	25.23
615.133	24.9
615.325	24.69
615.516	24.69
615.708	24.77
615.9	24.75
616.091	24.66
616.283	24.9
616.475	24.11
616.666	23.94
616.858	24.11
617.049	24.35
617.241	24.4
617.432	24.34
617.624	24.08
617.815	23.99
618.007	23.75
618.198	23.79
618.39	23.88
618.581	24.08
618.773	24.3
618.964	24.11
619.155	23.91
619.347	23.76
619.538	23.82
619.729	24.21
619.921	24.13
620.112	24.58
620.303	24.56
620.494	24.4
620.686	24.73
620.877	24.62
621.068	24.84
621.259	24.77
621.451	25.07
621.642	25.22
621.833	25.14
622.024	25.25
622.215	25.15
622.406	25.13
622.597	25.15
622.788	25.03
622.98	25.06
623.171	25.13
623.362	25.05
623.553	25.05
623.744	24.92
623.935	24.78
624.126	24.7
624.317	24.57
624.508	24.66
624.698	24.61
624.889	24.73
625.08	24.91
625.271	24.54
625.462	24.82
625.653	24.36
625.844	24.48
626.034	24.48
626.225	24.53
626.416	24.64
626.607	24.64
626.798	24.56
626.988	24.45
627.179	24.44
627.37	24.57
627.56	24.47
627.751	24.69
627.942	24.79
628.132	24.63
628.323	24.91
628.514	24.83
628.704	24.99
628.895	25.11
629.085	25.31
629.276	25.42
629.466	25.55
629.657	25.55
629.847	25.78
630.038	25.44
630.228	25.56
630.419	25.25
630.609	25.31
630.8	24.99
630.99	24.84
631.181	24.79
631.371	24.48
631.561	24.43
631.752	24.4
631.942	24.29
632.132	24.75
632.323	25.17
632.513	25
632.703	24.96
632.893	25.11
633.084	25.55
633.274	25.59
633.464	25.42
633.654	25.21
633.844	25.35
634.034	25.5
634.225	25.41
634.415	25.12
634.605	25.34
634.795	25.57
634.985	25.6
635.175	25.31
635.365	25.37
635.555	25.42
635.745	25.58
635.935	25.29
636.125	24.95
636.315	24.7
636.505	24.83
636.695	24.84
636.885	24.54
637.075	24.44
637.265	24.08
637.455	24.08
637.644	24.1
637.834	24.16
638.024	24.35
638.214	24.52
638.404	24.67
638.593	24.67
638.783	24.71
638.973	24.88
639.163	25.07
639.352	25.6
639.542	25.52
639.732	25.67
639.921	25.29
640.111	25.67
640.301	25.2
640.49	24.76
640.68	25.23
640.87	25.19
641.059	25.03
641.249	25.02
641.438	24.72
641.628	24.76
641.817	24.29
642.007	24.96
642.196	24.73
642.386	25.25
642.575	25.43
642.764	25.1
642.954	24.95
643.143	25.17
643.333	25.36
643.522	25.38
643.711	25.1
643.901	25.77
644.09	25.86
644.279	25.62
644.469	25.53
644.658	25.41
644.847	24.82
645.036	24.96
645.226	24.93
645.415	24.88
645.604	25.05
645.793	25.2
645.982	24.8
646.171	24.47
646.361	24.62
646.55	24.76
646.739	24.93
646.928	25.38
647.117	25.71
647.306	25.53
647.495	25.18
647.684	24.94
647.873	24.75
648.062	25.08
648.251	25.07
648.44	25.07
648.629	25.05
648.818	25.45
649.007	25.76
649.196	25.53
649.384	25.72
649.573	26.17
649.762	26.47
649.951	26.86
650.14	26.86
650.328	27.21
650.517	27.48
650.706	27.21
650.895	26.88
651.083	26.65
651.272	26.28
651.461	26.33
651.65	25.81
651.838	25.62
652.027	25.38
652.216	25.06
652.404	24.57
652.593	24.44
652.781	24.81
652.97	24.71
653.158	24.53
653.347	24.79
653.535	24.94
653.724	25.27
653.912	25.29
654.101	25.23
654.289	24.98
654.478	25.2
654.666	25.04
654.855	24.78
655.043	25.21
655.231	25.15
655.42	25.24
655.608	24.67
655.796	24.62
655.985	24.8
656.173	25.05
656.361	25.78
656.55	25.43
656.738	25.59
656.926	25.66
657.114	25.41
657.302	25.46
657.491	25.02
657.679	25.66
657.867	25.49
658.055	25.38
658.243	25.3
658.431	25.27
658.619	25.65
658.807	25.55
658.996	25.41
659.184	25.27
659.372	25.43
659.56	25.51
659.748	25.31
659.936	25.4
660.124	25.25
660.311	24.95
660.499	24.64
660.687	24.68
660.875	24.52
661.063	24.81
661.251	25.14
661.439	25.19
661.627	25.48
661.814	25.38
662.002	25.29
662.19	25.94
662.378	26.16
662.565	26.05
662.753	25.79
662.941	25.73
663.129	25.81
663.316	25.91
663.504	25.59
663.692	25.58
663.879	25.9
664.067	26.22
664.254	26.14
664.442	26.13
664.63	26.25
664.817	26.07
665.005	26.17
665.192	26.15
665.38	25.72
665.567	26.08
665.755	25.92
665.942	25.2
666.13	25.18
666.317	24.64
666.504	24.71
666.692	24.92
666.879	25.15
667.067	25.19
667.254	24.99
667.441	25.6
667.629	25.61
667.816	25.73
668.003	26.19
668.19	26.14
668.378	26.19
668.565	26.03
668.752	26.37
668.939	26.91
669.127	27.04
669.314	26.96
669.501	27.01
669.688	26.82
669.875	26.91
670.062	27.15
670.249	27.42
670.436	27.88
670.623	28.08
670.81	28.62
670.997	27.99
671.184	27.72
671.371	28.19
671.558	27.75
671.745	27.68
671.932	27.37
672.119	27.36
672.306	26.99
672.493	26.73
672.68	26.65
672.867	25.47
673.054	25.74
673.24	25.98
673.427	25.45
673.614	25.87
673.801	26.23
673.988	26.06
674.174	25.75
674.361	26.36
674.548	26.1
674.734	26.52
674.921	26.62
675.108	26.15
675.294	26.02
675.481	26.04
675.668	25.44
675.854	25.55
676.041	25.56
676.227	25.47
676.414	25.14
676.601	25.91
676.787	25.47
676.974	25.75
677.16	25.92
677.347	26.28
677.533	26.33
677.719	26.9
677.906	26.44
678.092	27.53
678.279	27.89
678.465	27.86
678.651	26.94
678.838	27.14
679.024	26.97
679.21	27.04
679.397	27.41
679.583	27.42
679.769	27.24
679.955	27.46
680.142	27.4
680.328	27.41
680.514	27.27
680.7	27.36
680.886	27.24
681.073	27.6
681.259	27.47
681.445	27.08
681.631	27.33
681.817	27.09
682.003	26.98
682.189	26.36
682.375	25.99
682.561	26.18
682.747	26
682.933	25.99
683.119	25.81
683.305	25.97
683.491	26.04
683.677	25.6
683.863	25.69
684.049	25.95
684.235	26.16
684.42	25.97
684.606	25.32
684.792	25.79
684.978	26.09
685.164	25.72
685.349	25.74
685.535	25.23
685.721	25.31
685.907	25.57
686.092	25.38
686.278	24.93
686.464	25.28
686.649	26.11
686.835	26.38
687.021	26.29
687.206	26.45
687.392	26.71
687.577	27.01
687.763	27.46
687.948	27.61
688.134	27.36
688.319	27.6
688.505	27.71
688.69	27.39
688.876	26.93
689.061	26.54
689.247	26.55
689.432	26.48
689.618	26.62
689.803	26.26
689.988	26.39
690.174	26.25
690.359	26.01
690.544	26.18
690.73	25.95
690.915	26.22
691.1	26.13
691.285	26.25
691.471	25.79
691.656	25.37
691.841	26.05
692.026	25.37
692.211	25.8
692.396	25.72
692.582	25.36
692.767	25.92
692.952	26.3
693.137	26.79
693.322	26.31
693.507	26.82
693.692	26.6
693.877	25.92
694.062	25.81
694.247	24.9
694.432	25.35
694.617	25.56
694.802	25.56
694.987	24.89
695.172	24.98
695.357	25.58
695.541	25.11
695.726	25.83
695.911	25.93
696.096	26.24
696.281	27.27
696.466	27.35
696.65	27.14
696.835	26.92
697.02	27.08
697.204	26.84
697.389	26.84
697.574	27.1
697.759	26.89
697.943	26.51
698.128	26.34
698.312	25.74
698.497	25.81
698.682	25.98
698.866	25.93
699.051	26.52
699.235	26.35
699.42	26.43
699.604	26.16
699.789	26.11
699.973	26.2
700.158	26.13
700.342	26.92
700.527	26.68
700.711	26.53
700.895	26.61
701.08	26.03
701.264	25.89
701.448	25.67
701.633	26.04
701.817	25.91
702.001	25.97
702.186	26.31
702.37	26.03
702.554	25.88
702.738	25.88
702.923	25.99
703.107	25.3
703.291	25.75
703.475	26.23
703.659	26.26
703.843	26.93
704.027	27.61
704.212	27.35
704.396	26.57
704.58	27.31
704.764	27.32
704.948	27.52
705.132	27.49
705.316	28.44
705.5	27.99
705.684	28.34
705.868	28.01
706.052	27.33
706.235	27.43
706.419	28.34
706.603	28.44
706.787	28.54
706.971	28.43
707.155	28.75
707.339	28.47
707.522	28.26
707.706	27.81
707.89	27.89
708.074	28.49
708.257	28.52
708.441	28.12
708.625	28.01
708.808	27.91
708.992	27.75
709.176	28.11
709.359	27.55
709.543	27.99
709.727	28.63
709.91	28.63
710.094	28.35
710.277	28.26
710.461	28.07
710.644	27.57
710.828	28.2
711.011	28.04
711.195	28.06
711.378	28.05
711.562	27.61
711.745	27.11
711.928	26.62
712.112	26.48
712.295	26.03
712.478	25.83
712.662	26.67
712.845	26.41
713.028	26.48
713.212	25.97
713.395	25.7
713.578	25.45
713.761	24.94
713.945	24.87
714.128	24.96
714.311	25.38
714.494	25.12
714.677	24.56
714.86	24.33
715.043	24.15
715.227	24.26
715.41	24.51
715.593	24.98
715.776	25.39
715.959	25.46
716.142	25.79
716.325	26.19
716.508	26.9
716.691	26.91
716.874	26.42
717.057	25.99
717.239	26.43
717.422	25.92
717.605	25.52
717.788	24.71
717.971	24.81
718.154	24.2
718.337	23.98
718.519	22.97
718.702	23.11
718.885	24.07
719.068	24.39
719.25	24.13
719.433	24.6
719.616	24.87
719.798	26.95
719.981	27.07
720.164	26.65
720.346	26.76
720.529	28.24
720.712	26.89
720.894	26.11
721.077	26.47
721.259	26.82
721.442	27.33
721.624	27.43
721.807	26.62
721.989	26.92
722.172	27.2
722.354	27.11
722.537	26.12
722.719	27.62
722.901	27.71
723.084	28.14
723.266	27.18
723.448	26.82
723.631	26.45
723.813	24.62
723.995	24.63
724.178	24.15
724.36	24.18
724.542	23.96
724.724	23.09
724.907	22.94
725.089	23.2
725.271	23.88
725.453	23.88
725.635	23.35
725.817	24.94
725.999	23
726.181	24.8
726.364	25.19
726.546	24.86
726.728	24.47
726.91	24.37
727.092	23.76
727.274	24.16
727.456	24.06
727.638	25.6
727.819	25.39
728.001	26.96
728.183	26.21
728.365	25.86
728.547	27.11
728.729	27.36
728.911	27.79
729.093	27.69
729.274	27.43
729.456	27.19
729.638	27.03
729.82	26.19
730.001	25.56
730.183	25.35
730.365	25.06
730.546	23.76
730.728	24.45
730.91	23.48
731.091	22.8
731.273	22.6
731.455	24.08
731.636	23.77
731.818	24.13
731.999	24.81
732.181	24.34
732.362	24.75
732.544	26.32
732.725	26.74
732.907	28.39
733.088	28.85
733.27	28.12
733.451	27.29
733.633	27.82
733.814	29.05
733.995	28.41
734.177	29.03
734.358	28.55
734.539	28.63
734.721	27.5
734.902	26.34
735.083	26.15
735.264	27.5
735.446	26.79
735.627	26.42
735.808	25.79
735.989	26.56
736.17	26.34
736.351	26.02
736.533	24.37
736.714	24.63
736.895	25.85
737.076	26.55
737.257	26.19
737.438	27.55
737.619	26.25
737.8	26.84
737.981	26.88
738.162	26.86
738.343	27.6
738.524	27.79
738.705	28.28
738.886	26.79
739.067	27.68
739.247	27.56
739.428	26.53
739.609	27.85
739.79	28.07
739.971	28.81
740.151	28.4
740.332	28.51
740.513	29.31
740.694	28.8
740.874	28.88
741.055	28.28
741.236	29.14
741.417	29.89
741.597	29.63
741.778	28.59
741.958	28.46
742.139	30.31
742.32	31.11
742.5	31.51
742.681	31.14
742.861	31.49
743.042	31.38
743.222	30.86
743.403	31.2
743.583	31.19
743.764	31.37
743.944	31.07
744.124	29.82
744.305	28.53
744.485	29.27
744.666	29.83
744.846	30.58
745.026	29.5
745.207	29.11
745.387	28.23
745.567	26.95
745.747	27.16
745.928	25.26
746.108	26.09
746.288	26.6
746.468	24.85
746.648	25.02
746.829	24.58
747.009	25.17
747.189	25.46
747.369	24.48
747.549	25.48
747.729	25.12
747.909	26.67
748.089	25.35
748.269	25.09
748.449	25.15
748.629	24.71
748.809	23.67
748.989	26.08
749.169	26.56
749.349	27.95
749.529	28.76
749.709	29.04
749.889	29.7
750.068	30.64
750.248	30.11
750.428	30.25
750.608	29.77
750.788	32.35
750.967	30.84
751.147	30.78
751.327	30.26
751.507	30.3
751.686	30.93
751.866	30.32
752.046	28.85
752.225	30.46
752.405	31.22
752.585	31.21
752.764	30.57
752.944	29.79
753.123	28.99
753.303	29.27
753.482	28.93
753.662	29.48
753.841	29.05
754.021	29.32
754.2	28.73
754.38	27.99
754.559	27.75
754.739	26.3
754.918	27.17
755.097	27.05
755.277	26.39
755.456	25.6
755.635	23.25
755.815	24.06
755.994	25.96
756.173	25.44
756.352	25.84
756.532	27.3
756.711	28.58
756.89	29.77
757.069	29.85
757.248	29.98
757.427	30.07
757.607	30.49
757.786	30
757.965	29.22
758.144	28.95
758.323	27.73
758.502	27.71
758.681	26.72
758.86	24.31
759.039	24.56
759.218	25
759.397	25.55
759.576	25.27
759.755	24.66
759.934	24.37
760.113	22.86
760.291	23.33
760.47	23.6
760.649	22.86
760.828	24.52
761.007	23.86
761.186	23.59
761.364	23.05
761.543	23.51
761.722	23.85
761.901	24.53
762.079	25.57
762.258	25.36
762.437	24.63
762.615	25.91
762.794	24.56
762.972	24.8
763.151	24.45
763.33	24.62
763.508	24.64
763.687	24.94
763.865	24.31
764.044	23.94
764.222	24.04
764.401	23.78
764.579	23.95
764.758	24.03
764.936	25.05
765.114	25.13
765.293	24.69
765.471	24.79
765.65	23.13
765.828	24.05
766.006	24.22
766.184	24.86
766.363	25.55
766.541	25.21
766.719	25.2
766.898	24.13
767.076	23.81
767.254	24.35
767.432	22.83
767.61	22.78
767.788	21.68
767.967	23.4
768.145	23.22
768.323	23.44
768.501	24.36
768.679	24.92
768.857	24.07
769.035	24.48
769.213	23.86
769.391	24.81
769.569	28.5
769.747	28.65
769.925	26.99
770.103	26.31
770.281	25.7
770.459	23.24
770.636	23.51
770.814	23.61
770.992	25.76
771.17	26.33
771.348	27.81
771.525	24.82
771.703	22.41
771.881	23.16
772.059	22.37
772.236	21.41
772.414	20.06
772.592	21.26
772.769	21.41
772.947	20.35
773.125	24.12
773.302	23.33
773.48	24.06
773.657	27.67
773.835	28.37
774.013	28.39
774.19	30.1
774.368	31.45
774.545	30.28
774.723	32.56
774.9	33.23
775.077	28.93
775.255	29.26
775.432	31.38
775.61	31.33
775.787	27.99
775.964	29.43
776.142	27.63
776.319	26.11
776.496	26.69
776.674	25.66
776.851	25.52
777.028	27.08
777.205	27.02
777.382	27.16
777.56	26.97
777.737	30.39
777.914	29.85
778.091	32.54
778.268	35.84
778.445	34.99
778.622	32.45
778.8	30.17
778.977	29.75
779.154	29.2
779.331	28.12
779.508	28.88
779.685	26.66
779.862	28.64
780.038	28.01
780.215	25.67
780.392	25.24
780.569	26.31
780.746	27.26
780.923	23.82
781.1	23.07
781.277	22.15
781.453	17.09
781.63	19.68
781.807	19.64
781.984	17.55
782.16	17.99
782.337	16.14
782.514	15.53
782.691	17.9
782.867	20.71
783.044	22.5
783.221	23.98
783.397	26.48
783.574	22.1
783.75	20.31
783.927	21.78
784.103	20.84
784.28	23.64
784.456	24.69
784.633	24.38
784.809	22.25
784.986	22.23
785.162	17.44
785.339	16.33
785.515	19.66
785.692	20.27
785.868	20.22
786.044	20.71
786.221	20.22
786.397	21.98
786.573	21.72
786.749	24.79
786.926	23.73
787.102	28.83
787.278	30.71
787.454	30.71
787.631	26.8
787.807	25.2
787.983	22.37
788.159	20.52
788.335	20.17
788.511	19.09
788.687	20.02
788.863	19.64
789.039	17.09
789.216	14.28
789.392	12.74
789.568	16.85
789.744	18.69
789.919	19.93
790.095	22.09
790.271	21.01
790.447	19.42
790.623	18.86
790.799	18.14
790.975	18.84
791.151	19.5
791.327	19.57
791.502	17.97
791.678	13.29
791.854	15.44
792.03	13.7
792.205	16.52
792.381	15.99
792.557	8.63
792.733	8.98
792.908	9.98
793.084	10.24
793.259	9.76
793.435	9.68
793.611	13.03
793.786	13.17
793.962	16.65
794.137	13.21
794.313	15.75
794.488	22.62
794.664	24.3
794.839	23.52
795.015	23.64
795.19	27.79
795.366	29.07
795.541	28.27
795.716	27.59
795.892	23.3
796.067	24.73
796.242	24.75
796.418	23.62
796.593	21.77
796.768	22.12
796.944	20.23
797.119	20.28
797.294	18.54
797.469	18.59
797.644	19.24
797.82	25.99
797.995	25.69
798.17	26.55
798.345	26.89
798.52	28.19
798.695	25.55
798.87	29.11
799.045	25.05
799.22	26.4
799.395	25.99
799.57	23.51
799.745	21.64
799.92	22.21
800.095	18.47
800.27	18.49
800.445	16.44
800.62	15.51
800.795	12.86
800.97	10.72
801.145	11.87
801.319	12.22
801.494	12.64
801.669	12.67
801.844	11.62
802.018	15.92
802.193	12.71
802.368	17.63
802.543	19.29
802.717	18.12
802.892	23.69
803.067	21.52
803.241	22.26
803.416	22.56
803.59	20.1
803.765	24.64
803.94	24.02
804.114	23.42
804.289	24
804.463	24.4
804.638	25.92
804.812	24.07
804.986	24.9
805.161	21.23
805.335	19.47
805.51	23.35
805.684	19.13
805.858	15.02
806.033	16.93
806.207	10.01
806.381	11.21
806.556	9.01
806.73	13.11
806.904	17.34
807.078	23.8
807.253	23.95
807.427	19.65
807.601	20.44
807.775	21.88
807.949	19.57
808.123	22.54
808.298	25.75
808.472	24.89
808.646	19.65
808.82	14.5
808.994	7.62
809.168	10.16
809.342	11.58
809.516	15.81
809.69	16.37
809.864	18.84
810.038	20.54
810.212	16.27
810.385	21.03
810.559	23.62
810.733	26.95
810.907	32.36
811.081	35.17
811.255	36.36
811.428	27.81
811.602	24.13
811.776	18.03
811.95	12.43
812.123	14.1
812.297	13.29
812.471	11.6
812.644	10.41
812.818	8.26
812.992	-1.63
813.165	-10.88
813.339	-7.49
813.512	-2.39
813.686	2.99
813.86	4.45
814.033	0.7
814.207	2.6
814.38	3.11
814.554	-9.81
814.727	-11.44
814.9	-2.67
815.074	4.35
815.247	5.94
815.421	11.74
815.594	10.4
815.767	11.41
815.941	14.45
816.114	10.25
816.287	8.71
816.46	14.84
816.634	16.58
816.807	9.55
816.98	7.29
817.153	16.46
817.327	9.34
817.5	2.36
817.673	2.81
817.846	3.64
818.019	0.69
818.192	1.7
818.365	-4.72
818.538	-11.6
818.711	-0.91
818.884	1.45
819.057	-7.75
819.23	-2.48
819.403	5.34
819.576	4.76
819.749	10.31
819.922	13.19
820.095	10.56
820.268	17.12
820.441	21.33
820.614	23.11
820.786	24.72
820.959	26.32
821.132	25.92
821.305	24.82
821.477	26.12
821.65	23.22
821.823	24.27
821.996	26.42
822.168	26.66
822.341	26.93
822.514	25.66
822.686	25.09
822.859	25.45
823.031	25.59
823.204	25.79
823.376	25.7
823.549	26.62
823.722	26.01
823.894	25.58
824.067	24.69
824.239	24.11
824.411	25.02
824.584	25.62
824.756	25.19
824.929	24.62
825.101	24.43
825.273	23.38
825.446	22.35
825.618	23.3
825.79	23.14
825.963	23.29
826.135	23.74
826.307	22.37
826.479	20.93
826.652	20.02
826.824	20.99
826.996	21.74
827.168	23.04
827.34	23.17
827.512	22.32
827.684	21.36
827.856	21.85
828.029	20.3
828.201	20.47
828.373	21.4
828.545	22.22
828.717	21.94
828.889	21.58
829.061	19.06
829.232	19.65
829.404	18.94
829.576	19.94
829.748	17.18
829.92	18.44
830.092	19.26
830.264	19.7
830.436	19.14
830.607	15.71
830.779	13.93
830.951	15.62
831.123	16.7
831.294	13.63
831.466	12.67
831.638	19.69
831.809	19.93
831.981	17.58
832.153	15.15
832.324	14.15
832.496	18.84
832.667	14.98
832.839	15.1
833.011	8.68
833.182	15.58
833.354	14.35
833.525	17.06
833.697	13.97
833.868	15.08
834.039	18.72
834.211	15.87
834.382	15.52
834.554	19.47
834.725	19.15
834.896	22.15
835.068	20.22
835.239	20.33
835.41	15.47
835.581	16.46
835.753	17.67
835.924	14.18
836.095	15.64
836.266	16.55
836.438	14.84
836.609	20.4
836.78	17.06
836.951	12.19
837.122	12.04
837.293	11.22
837.464	16.18
837.635	15.27
837.806	15.87
837.977	16.25
838.148	12.57
838.319	7.02
838.49	-4.86
838.661	0.75
838.832	9.8
839.003	11.02
839.174	12.69
839.345	10.14
839.516	14.1
839.687	12.65
839.857	11.93
840.028	9.57
840.199	22.73
840.37	29.51
840.54	26.85
840.711	27.68
840.882	24.6
841.053	19.42
841.223	20.71
841.394	17.03
841.564	17.22
841.735	12.74
841.906	20.42
842.076	8.12
842.247	4.62
842.417	0.91
842.588	-7.16
842.758	-18.14
842.929	-6.77
843.099	-14.27
843.27	-28.67
843.44	-28.03
843.611	-15.34
843.781	-47.99
843.951	-45.84
844.122	-69.17
844.292	-50.59
844.462	-60.46
844.633	-43.18
844.803	-55.33
844.973	-66.79
845.144	-92.87
845.314	-96.54
845.484	-130.42
845.654	-48.47
845.824	-25.78
845.995	5.04
846.165	-0.45
846.335	10.35
846.505	9.91
846.675	10.48
846.845	9.56
847.015	35.61
847.185	41.54
847.355	56.28
847.525	36.42
847.695	22.13
847.865	7.4
848.035	-15.35
848.205	-40.56
848.375	-24.75
848.545	-62.88
848.715	-132.9
848.884	-251.44
849.054	-60.81
849.224	-120.33
849.394	-74.83
849.564	-72.73
849.733	-126.4
849.903	-63.25
850.073	-62.84
850.243	-140.76
850.412	8.3
850.582	20.93
850.752	-3.65
850.921	-30.12
851.091	-48.33
851.26	-20.61
851.43	-54.51
851.599	-27.92
851.769	-3.77
851.939	5.09
852.108	-9.34
852.278	-4.7
852.447	-18.52
852.616	30.21
852.786	12.07
852.955	60.19
853.125	16.89
853.294	18.62
853.463	29.81
853.633	9.98
853.802	114.73
853.971	121.25
854.141	1263.18
854.31	-155.23
854.479	-32.04
854.648	-23.74
854.818	-104.31
854.987	-132.22
855.156	-56.92
855.325	-30.75
855.494	-16.15
855.663	15.3
855.832	34.3
856.001	36.77
856.171	50.7
856.34	17.58
856.509	56.92
856.678	58.18
856.847	58.39
857.016	77.46
857.185	45.67
857.353	11.21
857.522	51.96
857.691	21.78
857.86	-36.93
858.029	-60.34
858.198	-19.81
858.367	-147.01
858.535	-79.5
858.704	-121.04
858.873	-52.19
859.042	-35.32
859.21	-86.88
859.379	-187.61
859.548	-549.85
859.717	-402.85
859.885	-716.39
860.054	561.02
860.222	534.43
860.391	-452.21
860.56	-128.76
860.728	-305.17
860.897	-204.86
861.065	-175.9
861.234	-162.66
861.402	-112.99
861.571	-103.04
861.739	-204.03
861.908	-282.96
862.076	-182.22
862.244	-105.87
862.413	-247.07
862.581	-228.2
862.749	33676.67
862.918	770.82
863.086	660.97
863.254	-713.1
863.423	2704.17
863.591	-424.12
863.759	-250.65
863.927	-265.01
864.096	-549.04
864.264	-226.11
864.432	-486.78
864.6	-163.19
864.768	-168.11
864.936	-242.13
865.104	-368.66
865.272	-437.39
865.44	1060.93
865.608	185.24
865.776	-1322.22
865.944	78.96
866.112	42.37
866.28	268.77
866.448	236.4
866.616	175.65
866.784	323.65
866.952	-283.36
867.12	-28.19
867.288	-5.08
867.455	17.82
867.623	-39.36
867.791	-51.75
867.959	-49.08
868.127	-8
868.294	-9.03
868.462	-60.88
868.63	-272.43
868.797	-1994.66
868.965	-605.53
869.133	-968.92
869.3	4252.99
869.468	954.27
869.636	781.84
869.803	388.08
869.971	185.58
870.138	180.47
870.306	140.73
870.473	49.7
870.641	82.3
870.808	101.56
870.975	117.41
871.143	125.29
871.31	102.19
871.478	83.45
871.645	106.59
871.812	92.29
871.98	140.76
872.147	165.54
872.314	457.05
872.482	159.17
872.649	107.26
872.816	108.89
872.983	85.7
873.15	61.03
873.318	68.66
873.485	40.67
873.652	82.09
873.819	47.06
873.986	55.23
874.153	-17.53
874.32	-15.31
874.487	17.56
874.654	-171.99
874.821	110.12
874.988	-240.29
875.155	-45.26
875.322	-74.26
875.489	35.36
875.656	-125.29
875.823	-577.41
875.99	916.03
876.157	-616.72
876.324	-662.01
876.49	-335.2
876.657	22890.7
876.824	369.86
876.991	389.51
877.157	768.32
877.324	599.49
877.491	285.07
877.658	321.14
877.824	361.47
877.991	212.04
878.157	81.55
878.324	96.55
878.491	-12.97
878.657	49.43
878.824	29.51
878.99	1073.15
879.157	147.83
879.323	-422.73
879.49	56.12
879.656	-60.33
879.823	-52.73
879.989	-321.9
880.156	1945.26
880.322	-2012.35
880.488	-947.89
880.655	-1095.91
880.821	-198.61
880.987	-139.04
881.154	-125.01
881.32	-158.65
881.486	-68.01
881.652	-70.7
881.819	-10.33
881.985	-13.89
882.151	6.45
882.317	7.74
882.483	7.7
882.649	11.81
882.816	9.73
882.982	16.39
883.148	15.49
883.314	21.2
883.48	18.76
883.646	17.16
883.812	19.3
883.978	16.72
884.144	18.41
884.31	20.59
884.476	20.04
884.642	21.73
884.807	19.67
884.973	19.04
885.139	13.95
885.305	17.72
885.471	17
885.637	11.55
885.802	8.39
885.968	11.89
886.134	9.86
886.3	6.66
886.465	2.08
886.631	3.43
886.797	2.8
886.962	8.18
887.128	-9.03
887.293	-21.2
887.459	-4.2
887.625	-0.02
887.79	-20.98
887.956	-30.07
888.121	-19.24
888.287	-17.84
888.452	-34.05
888.618	-22.56
888.783	-50.02
