Data from 2937863_Reflection_3.txt Node
Date: Wed Jul 15 15:19:04 EDT 2015
User: robert
Spectrometer: USB4E03001
Autoset integration time: false
Trigger mode: 4
Integration Time (sec): 1.000000E-1
Scans to average: 10
Electric dark correction enabled: true
Nonlinearity correction enabled: false
Boxcar width: 5
Stray light correction enabled: false
XAxis mode: Wavelengths
Stop averaging: false
Number of Pixels in Spectrum: 3648
>>>>>Begin Spectral Data<<<<<
177.566	3.01
177.785	-42.38
178.005	1309.22
178.225	-777.47
178.445	849.88
178.665	177.76
178.885	159.54
179.105	181.65
179.324	133.91
179.544	113.89
179.764	64.51
179.984	-11.15
180.204	-12.4
180.423	-104.69
180.643	-219.65
180.863	-214.86
181.083	23.77
181.302	35.66
181.522	76.54
181.742	72.52
181.961	43.65
182.181	102.38
182.401	212.82
182.621	138.18
182.84	51.13
183.06	72.3
183.279	69.29
183.499	95.47
183.719	121.99
183.938	172.98
184.158	104.58
184.377	96.53
184.597	83.19
184.816	78.55
185.036	83.27
185.256	130.07
185.475	85.61
185.695	68.68
185.914	68.56
186.134	70.62
186.353	67.28
186.572	69.72
186.792	158.35
187.011	-75.96
187.231	-602.74
187.45	170.76
187.67	118.35
187.889	109.15
188.108	133.76
188.328	178.92
188.547	156.19
188.766	150.13
188.986	156.91
189.205	101.46
189.424	87.5
189.644	88.33
189.863	62.75
190.082	62.31
190.302	51.13
190.521	64.13
190.74	32.14
190.959	21.82
191.178	8.44
191.398	26.14
191.617	11.63
191.836	9.16
192.055	-40.36
192.274	40.06
192.494	-324.19
192.713	61.99
192.932	-134.58
193.151	-120.37
193.37	189.23
193.589	409.7
193.808	234.52
194.027	-109.12
194.246	2.85
194.465	73.58
194.685	61.38
194.904	20.11
195.123	10.02
195.342	140.53
195.561	851.04
195.78	139.31
195.999	97.54
196.218	226.08
196.436	920.18
196.655	119.78
196.874	222.68
197.093	247.83
197.312	282.93
197.531	259.99
197.75	264.54
197.969	272.6
198.188	191
198.407	298.41
198.625	257.25
198.844	298.77
199.063	369.24
199.282	33760
199.501	438.34
199.719	230.49
199.938	387.28
200.157	210.51
200.376	141.99
200.594	166.33
200.813	182.3
201.032	181.3
201.251	180.26
201.469	185.8
201.688	115.91
201.907	112.83
202.125	151.36
202.344	108.98
202.563	99.49
202.781	90.59
203	81.44
203.218	70.8
203.437	117.2
203.656	123.82
203.874	145.08
204.093	128.38
204.311	165.28
204.53	162.06
204.748	263.28
204.967	286.77
205.185	441.14
205.404	370.65
205.622	421.86
205.841	121.41
206.059	124.88
206.278	83.14
206.496	-93.21
206.715	-108.2
206.933	37.17
207.151	139.2
207.37	162.31
207.588	121.92
207.806	-151.6
208.025	-1394.74
208.243	165.7
208.461	71.33
208.68	200.96
208.898	-2.71
209.116	13.69
209.335	57.57
209.553	94.19
209.771	119.83
209.989	128.34
210.208	158.18
210.426	133.45
210.644	176.17
210.862	154.83
211.081	117.72
211.299	114.54
211.517	126.23
211.735	126.87
211.953	139.91
212.171	112.65
212.39	91.79
212.608	117.67
212.826	108.24
213.044	77.43
213.262	18.59
213.48	-52.93
213.698	-180.46
213.916	-224.67
214.134	-48.16
214.352	-90.5
214.57	-24.78
214.788	40.68
215.006	67.83
215.224	54.19
215.442	51.51
215.66	67.7
215.878	112.87
216.096	138.9
216.314	124.7
216.532	84.68
216.75	95.12
216.968	65.84
217.185	55.59
217.403	18.47
217.621	58.88
217.839	44.24
218.057	41.25
218.275	28.58
218.492	28.45
218.71	37.98
218.928	27.01
219.146	13.69
219.363	34.67
219.581	27.96
219.799	47.28
220.017	6.7
220.234	29.26
220.452	51.3
220.67	39.68
220.887	36.5
221.105	36.21
221.323	52.76
221.54	35.23
221.758	19.31
221.976	19.08
222.193	18.36
222.411	34.37
222.629	26.44
222.846	15.13
223.064	12.89
223.281	22.15
223.499	22.67
223.716	27.34
223.934	63
224.151	53.39
224.369	24.94
224.586	8.59
224.804	-41.13
225.021	-7.92
225.239	0.41
225.456	64.62
225.674	68.25
225.891	70.89
226.108	48.23
226.326	38.56
226.543	46.33
226.76	52.92
226.978	51.47
227.195	37.28
227.413	40.13
227.63	36.25
227.847	28.69
228.064	20.88
228.282	16.17
228.499	17.6
228.716	19.46
228.934	22.22
229.151	22.26
229.368	22.84
229.585	25.12
229.802	23.84
230.02	23.79
230.237	21.58
230.454	25.7
230.671	28.13
230.888	31.51
231.105	30.97
231.323	28.31
231.54	31.34
231.757	31.67
231.974	32.91
232.191	33.41
232.408	33.24
232.625	36.29
232.842	31.73
233.059	31.41
233.276	25.73
233.493	19.35
233.71	16.74
233.927	13.61
234.144	21.65
234.361	20.93
234.578	26.07
234.795	24.37
235.012	24.49
235.229	27.16
235.446	33.03
235.663	34.02
235.879	39.1
236.096	43.04
236.313	36.91
236.53	30.13
236.747	24.52
236.964	17.78
237.181	17.46
237.397	8.79
237.614	1.44
237.831	3.02
238.048	12.5
238.264	19.34
238.481	15.37
238.698	18.31
238.915	15.65
239.131	19.09
239.348	15.79
239.565	21.26
239.781	27.32
239.998	29.01
240.215	27.44
240.431	20.97
240.648	15.91
240.865	18.12
241.081	21.24
241.298	21.19
241.514	22.21
241.731	22.26
241.947	20.31
242.164	19.76
242.38	19.17
242.597	19.11
242.814	18.5
243.03	20.16
243.246	19.78
243.463	17.66
243.679	18.95
243.896	19.83
244.112	20.07
244.329	21.05
244.545	20.92
244.762	20.89
244.978	19.67
245.194	19.99
245.411	16.74
245.627	18.38
245.843	18.38
246.06	15.35
246.276	14.43
246.492	14.51
246.709	12.84
246.925	11.39
247.141	12.12
247.357	11.29
247.574	11.21
247.79	12.06
248.006	11.58
248.222	10.96
248.439	11.28
248.655	11.74
248.871	11.87
249.087	11.9
249.303	12.71
249.519	12.59
249.736	12.93
249.952	12.42
250.168	12.45
250.384	12.36
250.6	13.08
250.816	14.93
251.032	8.3
251.248	6.86
251.464	10.23
251.68	9.31
251.896	8.17
252.112	8.74
252.328	9.64
252.544	9.96
252.76	9.28
252.976	10.36
253.192	7.09
253.408	9.46
253.624	8.28
253.84	7.41
254.056	7.18
254.272	8.32
254.487	8.79
254.703	10.01
254.919	7.39
255.135	8.03
255.351	5.81
255.567	12.21
255.782	13.65
255.998	16.91
256.214	15.82
256.43	13.79
256.646	13.48
256.861	13.03
257.077	13.01
257.293	13.13
257.508	13.52
257.724	12.61
257.94	10.28
258.155	9.15
258.371	8.54
258.587	7.62
258.802	8.73
259.018	9.59
259.234	9.33
259.449	8.79
259.665	8.88
259.88	8.77
260.096	9.87
260.312	9.41
260.527	10.41
260.743	9.93
260.958	10.3
261.174	10.29
261.389	9.9
261.605	7.92
261.82	8.19
262.036	8.57
262.251	7.35
262.466	6.66
262.682	7.11
262.897	6.4
263.113	6.78
263.328	7.69
263.543	8.72
263.759	6.84
263.974	10
264.189	10.01
264.405	7.57
264.62	8.03
264.835	9.48
265.051	10.9
265.266	10.1
265.481	11.5
265.696	10.64
265.912	10.88
266.127	10.89
266.342	12.46
266.557	11.37
266.773	11.95
266.988	13.29
267.203	13.77
267.418	13.59
267.633	13.9
267.848	12.93
268.064	12.73
268.279	12.45
268.494	14.18
268.709	13.82
268.924	14.55
269.139	14.36
269.354	14.42
269.569	14.39
269.784	14.93
269.999	15.54
270.214	15.53
270.429	15.47
270.644	16.03
270.859	14.24
271.074	13.71
271.289	12.87
271.504	13.6
271.719	11.77
271.934	9.93
272.149	8.86
272.363	6.98
272.578	6.7
272.793	7.01
273.008	6.53
273.223	7.77
273.438	7.85
273.653	8.01
273.867	7.59
274.082	8.38
274.297	8.95
274.512	9.36
274.726	12.3
274.941	13.19
275.156	13.37
275.371	13.05
275.585	11.58
275.8	10.2
276.015	9.18
276.229	10.42
276.444	9.96
276.659	10.12
276.873	8.84
277.088	6.21
277.302	6.24
277.517	5.19
277.732	6.46
277.946	7.41
278.161	7.98
278.375	11.12
278.59	11.33
278.804	12.03
279.019	11.94
279.233	11.93
279.448	12.97
279.662	12.69
279.877	14.02
280.091	12.94
280.306	12.45
280.52	14.62
280.735	14.95
280.949	14.17
281.163	14.35
281.378	15.03
281.592	15.91
281.806	15.59
282.021	16.26
282.235	16.19
282.449	15.26
282.664	16.62
282.878	14.83
283.092	13.06
283.307	14.36
283.521	12.42
283.735	11.25
283.949	11.91
284.164	12.93
284.378	11.33
284.592	10.88
284.806	10.94
285.02	9.16
285.234	10.36
285.449	9.98
285.663	10.74
285.877	12.02
286.091	12.74
286.305	11.79
286.519	10.87
286.733	11.51
286.947	11.09
287.161	12.13
287.375	14.69
287.589	14.78
287.803	14.71
288.017	12.86
288.231	12.26
288.445	11.65
288.659	11.77
288.873	13.25
289.087	11.72
289.301	12.99
289.515	12.78
289.729	10.3
289.943	10.13
290.157	9.45
290.371	9.16
290.584	10.42
290.798	9.69
291.012	9.03
291.226	8.56
291.44	9.03
291.654	9.05
291.867	10.27
292.081	12.62
292.295	12.79
292.509	14.94
292.722	14.08
292.936	12.32
293.15	14.06
293.364	15.12
293.577	13.86
293.791	14.6
294.005	14.33
294.218	14.73
294.432	13.61
294.645	13.59
294.859	12.73
295.073	14.46
295.286	15.91
295.5	16.28
295.713	15.27
295.927	15.75
296.14	15.91
296.354	14.81
296.568	12.97
296.781	12.58
296.994	12.63
297.208	12.79
297.421	11.42
297.635	11.25
297.848	10.23
298.062	10.94
298.275	11.26
298.489	11.8
298.702	11.69
298.915	12.95
299.129	12.11
299.342	11.89
299.555	12.85
299.769	14.53
299.982	15.73
300.195	16.82
300.409	18.7
300.622	20.15
300.835	19.04
301.048	20.17
301.262	20.3
301.475	20.52
301.688	21.01
301.901	20.67
302.115	21.44
302.328	20.51
302.541	20.28
302.754	17.92
302.967	16.85
303.18	16.48
303.393	15.81
303.607	15.31
303.82	17.63
304.033	16.6
304.246	15.67
304.459	13.82
304.672	13.66
304.885	13.35
305.098	13.64
305.311	13.04
305.524	12.76
305.737	13.57
305.95	13.78
306.163	12.43
306.376	12.52
306.589	12.25
306.802	13.5
307.015	14.24
307.228	13.5
307.44	14.27
307.653	14.39
307.866	15.25
308.079	15.2
308.292	13.37
308.505	14.06
308.718	15.37
308.93	15.81
309.143	16.96
309.356	16.51
309.569	17.3
309.781	16.79
309.994	16.05
310.207	17.16
310.42	16.75
310.632	18.24
310.845	17.21
311.058	16.49
311.27	17.13
311.483	15.61
311.696	15.12
311.908	13.29
312.121	12.72
312.333	13.66
312.546	13.17
312.759	13.69
312.971	13.02
313.184	15.42
313.396	16.28
313.609	15.69
313.821	17.13
314.034	17.86
314.246	21.18
314.459	22.16
314.671	20.89
314.884	21.89
315.096	22.43
315.309	22.54
315.521	21.41
315.733	20.33
315.946	19.43
316.158	18.42
316.371	20.03
316.583	18.84
316.795	18.21
317.008	18.58
317.22	16.95
317.432	16.33
317.644	17.42
317.857	15.92
318.069	17.02
318.281	17.17
318.494	17.16
318.706	14.79
318.918	15.27
319.13	16.95
319.342	16.37
319.555	16.29
319.767	15.68
319.979	15.49
320.191	15.86
320.403	15.46
320.615	16.37
320.827	15.43
321.039	15.7
321.252	14.61
321.464	13.24
321.676	14.6
321.888	14.69
322.1	15.74
322.312	15.43
322.524	16.48
322.736	17
322.948	17.89
323.16	18.51
323.372	18.94
323.584	17.94
323.796	17.56
324.007	17.01
324.219	17.63
324.431	18.44
324.643	18.04
324.855	17.13
325.067	16.15
325.279	16.39
325.491	15.93
325.702	16.65
325.914	18.48
326.126	20
326.338	19.44
326.55	18.66
326.761	17.06
326.973	17.64
327.185	18.86
327.396	20.53
327.608	20.15
327.82	21.23
328.032	19.94
328.243	19.47
328.455	19.58
328.666	22.24
328.878	21.68
329.09	22.04
329.301	23.17
329.513	23.56
329.725	23.2
329.936	22.12
330.148	22.06
330.359	22.55
330.571	23.51
330.782	22.36
330.994	20.53
331.205	22.8
331.417	23.77
331.628	22.24
331.84	21.19
332.051	21.06
332.262	23.44
332.474	22.96
332.685	23.95
332.897	24.26
333.108	26.6
333.319	26.07
333.531	25.17
333.742	25.01
333.953	25.93
334.165	27.16
334.376	27.45
334.587	26.45
334.799	26.96
335.01	26.14
335.221	24.23
335.432	23.27
335.644	24.62
335.855	25.24
336.066	27.11
336.277	27.43
336.488	27
336.7	26.08
336.911	26.11
337.122	26.98
337.333	28.2
337.544	29.3
337.755	30.38
337.966	30.38
338.177	30.89
338.388	29.4
338.599	29.47
338.811	29.06
339.022	29.72
339.233	30.95
339.444	30.57
339.655	30.06
339.866	31.31
340.076	30.74
340.287	30.98
340.498	30.2
340.709	30.63
340.92	30.99
341.131	31.99
341.342	33.07
341.553	31.31
341.764	31.02
341.975	30.06
342.185	29.4
342.396	29.11
342.607	29.43
342.818	29.29
343.029	28.47
343.239	28.17
343.45	28.66
343.661	28.87
343.872	29.61
344.082	29.97
344.293	30.54
344.504	30.05
344.714	29.44
344.925	28.82
345.136	29.62
345.346	30.88
345.557	30.57
345.768	29.16
345.978	29.06
346.189	28.8
346.399	28.9
346.61	28.77
346.821	28.32
347.031	28.99
347.242	28.45
347.452	27.87
347.663	27.82
347.873	28.12
348.084	28.21
348.294	27.02
348.504	28.02
348.715	28.16
348.925	29.51
349.136	30.3
349.346	29.11
349.557	29.65
349.767	29.62
349.977	28.53
350.188	27.56
350.398	27.74
350.608	27.45
350.819	26.74
351.029	25.84
351.239	25.31
351.449	26.13
351.66	25.78
351.87	26.89
352.08	28.16
352.29	28.61
352.501	29.7
352.711	31.08
352.921	31.76
353.131	31.02
353.341	31.65
353.552	31.24
353.762	31.46
353.972	32.92
354.182	31.38
354.392	30.65
354.602	30.54
354.812	30.7
355.022	30.3
355.232	29.91
355.442	30.83
355.652	29.65
355.862	30.15
356.072	29.16
356.282	29.85
356.492	30.21
356.702	29.59
356.912	30.37
357.122	29.44
357.332	28.99
357.542	30.73
357.752	31.23
357.962	32.46
358.171	31.08
358.381	31.07
358.591	30.09
358.801	30.7
359.011	31.29
359.221	29.59
359.43	30.2
359.64	29.98
359.85	28.66
360.06	27.43
360.269	27.41
360.479	28.33
360.689	28.5
360.899	28.54
361.108	27.63
361.318	27.6
361.528	28.53
361.737	28.41
361.947	28.03
362.156	27.94
362.366	28.59
362.576	28.06
362.785	27.93
362.995	28.63
363.204	28.77
363.414	28.85
363.623	28.39
363.833	28.31
364.042	28.15
364.252	27.91
364.461	27.86
364.671	27.99
364.88	28.08
365.09	28.75
365.299	27.82
365.509	28.32
365.718	28.99
365.927	28.82
366.137	29.23
366.346	29.44
366.555	29.5
366.765	28.99
366.974	28.69
367.183	28.39
367.393	28.39
367.602	28.51
367.811	27.47
368.021	26.85
368.23	27.56
368.439	26.97
368.648	26.5
368.857	27.13
369.067	26.29
369.276	25.54
369.485	26.21
369.694	25.13
369.903	25.59
370.112	26.71
370.321	26.52
370.531	26.28
370.74	25.4
370.949	24.86
371.158	24.78
371.367	25.92
371.576	26.35
371.785	25.74
371.994	26.24
372.203	25.52
372.412	24.59
372.621	24.51
372.83	24.42
373.039	25.29
373.248	25.53
373.457	25.45
373.666	25.52
373.874	25.59
374.083	25.57
374.292	25.88
374.501	25.76
374.71	26.1
374.919	26.01
375.128	25.43
375.336	25.15
375.545	25.86
375.754	25.85
375.963	26.07
376.171	25.95
376.38	26.6
376.589	26.36
376.798	26.29
377.006	25.58
377.215	25.95
377.424	27.22
377.632	27.88
377.841	27.37
378.05	27.71
378.258	27.33
378.467	27.53
378.675	26.98
378.884	26.74
379.093	26.71
379.301	27.31
379.51	27.08
379.718	25.94
379.927	25.1
380.135	25.51
380.344	24.9
380.552	24.74
380.761	24.1
380.969	24.21
381.177	24.09
381.386	24.07
381.594	24.11
381.803	23.69
382.011	23.76
382.219	23.68
382.428	23.57
382.636	23.95
382.845	23.63
383.053	23.82
383.261	23.81
383.469	23.7
383.678	23.42
383.886	22.76
384.094	22.69
384.302	22.8
384.511	22.6
384.719	22.19
384.927	21.63
385.135	21.73
385.343	21.96
385.552	21.97
385.76	21.74
385.968	22.05
386.176	22.41
386.384	22.39
386.592	22.03
386.8	22.09
387.008	21.79
387.216	21.91
387.424	21.57
387.633	21.44
387.841	20.91
388.049	20.92
388.257	20.7
388.465	20.38
388.672	20.63
388.88	21.34
389.088	21.23
389.296	21.33
389.504	21.07
389.712	21.64
389.92	21.35
390.128	21.46
390.336	21.99
390.544	21.71
390.751	21.8
390.959	21.73
391.167	21.14
391.375	21.19
391.583	20.86
391.79	21.04
391.998	20.38
392.206	20.78
392.414	20.85
392.621	20.72
392.829	21.05
393.037	20.82
393.244	20.38
393.452	20.75
393.66	20.4
393.867	20.38
394.075	20.18
394.283	20.51
394.49	20.38
394.698	20.19
394.905	19.83
395.113	19.67
395.32	19.88
395.528	20.19
395.735	19.73
395.943	20.2
396.15	20.54
396.358	20.98
396.565	21.03
396.773	20.87
396.98	21.02
397.188	21.4
397.395	21.16
397.602	21.16
397.81	21.34
398.017	21.62
398.225	21.88
398.432	22.2
398.639	21.87
398.847	21.94
399.054	21.92
399.261	21.74
399.468	21.4
399.676	21.39
399.883	21.57
400.09	21.63
400.297	21.4
400.505	21.25
400.712	20.88
400.919	21.09
401.126	20.88
401.333	21.1
401.54	21.57
401.748	21.89
401.955	21.88
402.162	21.49
402.369	21.68
402.576	21.68
402.783	21.3
402.99	21.26
403.197	21.24
403.404	21.51
403.611	21.24
403.818	21.34
404.025	21.21
404.232	21.53
404.439	21.99
404.646	21.95
404.853	22.22
405.06	22.68
405.267	22.62
405.474	22.4
405.681	22.53
405.887	22.78
406.094	22.46
406.301	22.62
406.508	22.6
406.715	22.15
406.922	21.94
407.128	21.69
407.335	21.46
407.542	21.66
407.749	22.01
407.955	21.8
408.162	21.68
408.369	21.69
408.575	21.21
408.782	21.29
408.989	21.72
409.195	21.71
409.402	22.1
409.609	22
409.815	22.14
410.022	22.03
410.228	22.16
410.435	22.37
410.642	22.49
410.848	22.68
411.055	22.72
411.261	22.47
411.468	22.49
411.674	22.17
411.881	22.16
412.087	21.84
412.294	21.69
412.5	21.66
412.706	21.53
412.913	21.49
413.119	21.59
413.326	21.56
413.532	21.62
413.738	21.55
413.945	21.74
414.151	21.99
414.357	22.1
414.564	21.97
414.77	21.86
414.976	21.64
415.182	21.58
415.389	21.62
415.595	21.65
415.801	21.82
416.007	21.74
416.214	21.64
416.42	21.27
416.626	21.41
416.832	21.47
417.038	21.54
417.244	21.28
417.45	21.24
417.657	21.12
417.863	20.82
418.069	20.82
418.275	20.8
418.481	20.63
418.687	20.64
418.893	20.53
419.099	20.65
419.305	20.47
419.511	20.66
419.717	20.67
419.923	20.65
420.129	20.73
420.335	20.49
420.541	20.52
420.746	20.57
420.952	20.71
421.158	20.72
421.364	20.54
421.57	20.47
421.776	20.52
421.982	20.41
422.187	20.41
422.393	20.36
422.599	20.44
422.805	20.4
423.01	20.53
423.216	20.36
423.422	20.32
423.628	20.53
423.833	20.67
424.039	20.6
424.245	20.74
424.45	20.71
424.656	20.65
424.862	20.64
425.067	20.76
425.273	20.51
425.478	20.48
425.684	20.35
425.889	20.17
426.095	20.13
426.301	20.07
426.506	19.85
426.712	19.83
426.917	19.91
427.123	19.8
427.328	19.66
427.533	19.72
427.739	19.96
427.944	20.13
428.15	19.95
428.355	19.77
428.561	19.86
428.766	19.94
428.971	20.05
429.177	20.14
429.382	20.12
429.587	19.93
429.793	20.04
429.998	19.83
430.203	19.89
430.408	19.98
430.614	20.02
430.819	19.87
431.024	20.03
431.229	19.72
431.434	19.55
431.64	19.56
431.845	19.59
432.05	19.23
432.255	19.27
432.46	19.18
432.665	19.41
432.87	19.59
433.076	19.6
433.281	19.5
433.486	19.79
433.691	19.76
433.896	19.7
434.101	19.78
434.306	19.93
434.511	19.96
434.716	19.79
434.921	19.8
435.126	19.83
435.331	19.95
435.535	19.92
435.74	19.64
435.945	19.65
436.15	19.7
436.355	19.6
436.56	19.95
436.765	19.92
436.97	20.16
437.174	20.14
437.379	19.98
437.584	20.06
437.789	20.01
437.993	20.17
438.198	20.15
438.403	20.31
438.608	20.39
438.812	20.15
439.017	20.07
439.222	20.07
439.426	20.02
439.631	20.05
439.836	19.91
440.04	19.97
440.245	20
440.45	20.04
440.654	19.9
440.859	19.9
441.063	19.87
441.268	19.87
441.472	19.83
441.677	19.77
441.881	19.72
442.086	19.77
442.29	19.62
442.495	19.57
442.699	19.49
442.904	19.55
443.108	19.56
443.312	19.63
443.517	19.77
443.721	19.68
443.925	19.95
444.13	19.95
444.334	19.73
444.538	19.91
444.743	19.89
444.947	19.81
445.151	19.79
445.356	19.64
445.56	19.52
445.764	19.34
445.968	19.33
446.173	19.25
446.377	19.1
446.581	19.23
446.785	19.2
446.989	19.18
447.193	19.24
447.398	19.15
447.602	19.25
447.806	19.33
448.01	19.33
448.214	19.36
448.418	19.26
448.622	19.56
448.826	19.54
449.03	19.36
449.234	19.27
449.438	19.07
449.642	19.18
449.846	19.21
450.05	19.15
450.254	19.25
450.458	19.32
450.662	19.29
450.866	19.01
451.069	18.96
451.273	19.02
451.477	18.98
451.681	19.38
451.885	19.34
452.089	19.35
452.292	19.14
452.496	19.2
452.7	19.2
452.904	19.18
453.107	19.1
453.311	19.19
453.515	19.27
453.719	19.33
453.922	19.11
454.126	18.97
454.33	18.71
454.533	18.86
454.737	18.86
454.94	18.89
455.144	18.78
455.348	18.93
455.551	18.94
455.755	18.79
455.958	18.8
456.162	18.86
456.365	18.89
456.569	19.07
456.772	19.06
456.976	19.02
457.179	18.89
457.383	18.78
457.586	18.8
457.79	18.78
457.993	18.88
458.196	19.03
458.4	18.96
458.603	18.95
458.807	18.93
459.01	19
459.213	18.95
459.417	18.9
459.62	19.1
459.823	19.07
460.026	19.09
460.23	19.13
460.433	19.05
460.636	19.13
460.839	19.2
461.042	19.19
461.246	19.23
461.449	19.24
461.652	19.36
461.855	19.33
462.058	19.3
462.261	19.28
462.464	19.34
462.668	19.3
462.871	19.3
463.074	19.37
463.277	19.38
463.48	19.25
463.683	19.31
463.886	19.14
464.089	19.15
464.292	19.35
464.495	19.36
464.698	19.48
464.901	19.45
465.104	19.57
465.306	19.68
465.509	19.57
465.712	19.62
465.915	19.49
466.118	19.38
466.321	19.51
466.524	19.49
466.726	19.46
466.929	19.37
467.132	19.51
467.335	19.38
467.538	19.16
467.74	19.04
467.943	19.07
468.146	19.13
468.348	19.45
468.551	19.31
468.754	19.29
468.956	19.26
469.159	19.17
469.362	19.02
469.564	19.01
469.767	19.19
469.969	19.44
470.172	19.58
470.375	19.81
470.577	19.8
470.78	19.8
470.982	19.91
471.185	19.91
471.387	19.93
471.59	20.18
471.792	20.19
471.995	20.17
472.197	20.08
472.399	20.11
472.602	20.05
472.804	19.95
473.007	19.72
473.209	19.7
473.411	19.8
473.614	19.8
473.816	19.74
474.018	19.62
474.22	19.72
474.423	19.88
474.625	19.6
474.827	19.48
475.03	19.68
475.232	19.85
475.434	19.75
475.636	19.57
475.838	19.67
476.04	19.64
476.243	19.93
476.445	19.8
476.647	19.78
476.849	19.71
477.051	19.84
477.253	19.73
477.455	19.63
477.657	19.66
477.859	19.55
478.061	19.47
478.263	19.3
478.465	19.16
478.667	19.09
478.869	19.06
479.071	19.35
479.273	19.26
479.475	19.34
479.677	19.48
479.879	19.53
480.081	19.71
480.283	19.71
480.485	19.75
480.686	19.57
480.888	19.66
481.09	19.62
481.292	19.52
481.494	19.5
481.695	19.36
481.897	19.4
482.099	19.4
482.301	19.52
482.502	19.47
482.704	19.68
482.906	19.75
483.107	19.67
483.309	19.64
483.511	19.6
483.712	19.64
483.914	19.61
484.115	19.53
484.317	19.44
484.519	19.4
484.72	19.44
484.922	19.3
485.123	19.27
485.325	19.31
485.526	19.28
485.728	19.24
485.929	19.23
486.131	19.25
486.332	19.33
486.534	19.38
486.735	19.36
486.936	19.35
487.138	19.39
487.339	19.47
487.541	19.39
487.742	19.4
487.943	19.47
488.144	19.33
488.346	19.43
488.547	19.37
488.748	19.43
488.95	19.44
489.151	19.4
489.352	19.46
489.553	19.41
489.755	19.47
489.956	19.56
490.157	19.58
490.358	19.69
490.559	19.56
490.76	19.58
490.961	19.55
491.163	19.47
491.364	19.54
491.565	19.51
491.766	19.52
491.967	19.46
492.168	19.47
492.369	19.4
492.57	19.36
492.771	19.37
492.972	19.42
493.173	19.34
493.374	19.36
493.575	19.27
493.776	19.23
493.976	19.13
494.177	19.17
494.378	19.13
494.579	19.2
494.78	19.51
494.981	19.42
495.182	19.49
495.382	19.54
495.583	19.55
495.784	19.48
495.985	19.53
496.185	19.57
496.386	19.66
496.587	19.51
496.788	19.54
496.988	19.4
497.189	19.48
497.39	19.42
497.59	19.55
497.791	19.68
497.992	19.68
498.192	19.56
498.393	19.48
498.593	19.55
498.794	19.85
498.994	19.85
499.195	19.87
499.395	19.9
499.596	19.96
499.796	19.75
499.997	19.67
500.197	19.85
500.398	19.87
500.598	20.09
500.799	20.12
500.999	19.88
501.199	19.92
501.4	19.78
501.6	19.93
501.801	19.93
502.001	20.19
502.201	20.27
502.402	20.16
502.602	20.44
502.802	20.28
503.002	20.21
503.203	20.23
503.403	20.26
503.603	20.18
503.803	19.96
504.003	20.06
504.204	19.93
504.404	20
504.604	20.22
504.804	20.17
505.004	20.35
505.204	20.37
505.404	20.42
505.604	20.55
505.804	20.78
506.005	21
506.205	20.89
506.405	20.8
506.605	20.77
506.805	20.69
507.005	20.65
507.204	20.71
507.404	20.71
507.604	20.82
507.804	20.79
508.004	20.75
508.204	20.67
508.404	20.58
508.604	20.67
508.804	20.7
509.003	20.68
509.203	20.66
509.403	20.58
509.603	20.65
509.803	20.72
510.002	20.68
510.202	20.9
510.402	21
510.602	21.13
510.801	21.25
511.001	21.23
511.201	21.38
511.4	21.46
511.6	21.54
511.8	21.59
511.999	21.5
512.199	21.32
512.398	21.15
512.598	21.17
512.797	21.17
512.997	21.1
513.197	21.25
513.396	21.45
513.596	21.58
513.795	21.54
513.994	21.46
514.194	21.52
514.393	21.68
514.593	21.9
514.792	21.92
514.992	22.05
515.191	22.23
515.39	22.28
515.59	22.16
515.789	22.21
515.988	22.14
516.188	22.24
516.387	22.18
516.586	22.31
516.786	22.35
516.985	22.31
517.184	22.34
517.383	22.31
517.582	22.15
517.782	22.08
517.981	22.17
518.18	22.33
518.379	22.45
518.578	22.6
518.777	22.69
518.976	22.75
519.176	22.89
519.375	23.01
519.574	23.28
519.773	23.49
519.972	23.58
520.171	23.47
520.37	23.47
520.569	23.5
520.768	23.42
520.967	23.37
521.166	23.14
521.365	23.34
521.564	23.25
521.762	23
521.961	22.94
522.16	23
522.359	23.04
522.558	23.16
522.757	23.26
522.956	23.36
523.154	23.51
523.353	23.67
523.552	23.6
523.751	23.88
523.949	23.94
524.148	24.16
524.347	24.06
524.546	24.15
524.744	24.14
524.943	24.13
525.142	24.19
525.34	24.11
525.539	24.14
525.737	24.15
525.936	24.13
526.135	24.22
526.333	24.25
526.532	24.27
526.73	24.36
526.929	24.4
527.127	24.47
527.326	24.51
527.524	24.59
527.723	24.53
527.921	24.47
528.12	24.42
528.318	24.48
528.516	24.48
528.715	24.61
528.913	24.55
529.112	24.58
529.31	24.58
529.508	24.61
529.707	24.59
529.905	24.69
530.103	24.78
530.301	24.82
530.5	24.86
530.698	24.77
530.896	24.82
531.094	24.95
531.293	25.06
531.491	25
531.689	25.06
531.887	25.19
532.085	25.27
532.283	25.27
532.481	25.29
532.68	25.28
532.878	25.39
533.076	25.42
533.274	25.48
533.472	25.45
533.67	25.57
533.868	25.51
534.066	25.49
534.264	25.44
534.462	25.45
534.66	25.56
534.858	25.65
535.056	25.76
535.253	25.78
535.451	25.73
535.649	25.79
535.847	25.74
536.045	25.91
536.243	26.03
536.441	26.18
536.638	26.19
536.836	26.15
537.034	26.13
537.232	26.13
537.43	26.08
537.627	26.21
537.825	26.23
538.023	26.32
538.22	26.41
538.418	26.36
538.616	26.33
538.813	26.47
539.011	26.4
539.209	26.42
539.406	26.41
539.604	26.57
539.801	26.68
539.999	26.68
540.196	26.7
540.394	26.68
540.591	26.71
540.789	26.77
540.986	26.73
541.184	26.82
541.381	26.85
541.579	26.83
541.776	26.81
541.974	26.77
542.171	26.72
542.368	26.78
542.566	26.81
542.763	26.86
542.96	26.88
543.158	26.98
543.355	26.95
543.552	26.98
543.75	27.19
543.947	27.25
544.144	27.24
544.341	27.37
544.539	27.44
544.736	27.44
544.933	27.49
545.13	27.68
545.327	27.68
545.524	27.8
545.722	27.82
545.919	27.79
546.116	27.96
546.313	27.98
546.51	28.15
546.707	28.1
546.904	28.12
547.101	28.11
547.298	28.08
547.495	28.14
547.692	28.15
547.889	28.08
548.086	28.09
548.283	28.03
548.48	28.25
548.677	28.12
548.874	28.27
549.07	28.23
549.267	28.42
549.464	28.28
549.661	28.34
549.858	28.63
550.055	28.84
550.251	28.87
550.448	28.96
550.645	28.86
550.842	29.07
551.038	29.04
551.235	29.26
551.432	29.3
551.628	29.43
551.825	29.49
552.022	29.34
552.218	29.36
552.415	29.22
552.612	29.01
552.808	29.01
553.005	29.04
553.201	29.18
553.398	29.25
553.594	29.07
553.791	29.02
553.987	29.14
554.184	29.26
554.38	29.35
554.577	29.52
554.773	29.7
554.97	29.87
555.166	29.92
555.362	30.07
555.559	30.01
555.755	30.2
555.952	30.44
556.148	30.46
556.344	30.54
556.541	30.54
556.737	30.57
556.933	30.6
557.129	30.42
557.326	30.41
557.522	30.2
557.718	30.44
557.914	30.47
558.11	30.5
558.307	30.38
558.503	30.49
558.699	30.7
558.895	30.75
559.091	30.66
559.287	30.67
559.483	30.51
559.679	30.69
559.876	30.66
560.072	30.92
560.268	30.81
560.464	31.12
560.66	30.85
560.856	30.73
561.052	30.85
561.247	31.13
561.443	31.47
561.639	31.51
561.835	31.69
562.031	31.61
562.227	31.6
562.423	31.65
562.619	31.66
562.815	31.76
563.01	31.85
563.206	31.81
563.402	31.85
563.598	31.8
563.793	32.1
563.989	32.07
564.185	32.05
564.381	31.71
564.576	31.64
564.772	31.5
564.968	31.63
565.163	31.65
565.359	31.72
565.555	31.73
565.75	31.8
565.946	31.84
566.141	31.69
566.337	31.76
566.532	32.09
566.728	32.11
566.923	32.12
567.119	32.14
567.314	32.07
567.51	32.1
567.705	31.96
567.901	31.88
568.096	31.87
568.292	32.03
568.487	32.16
568.682	32.23
568.878	32.38
569.073	32.46
569.268	32.73
569.464	32.89
569.659	32.92
569.854	33.1
570.05	33.17
570.245	33.38
570.44	33.29
570.635	33.18
570.831	33.14
571.026	33.32
571.221	33.46
571.416	33.29
571.611	33.36
571.806	33.5
572.002	33.67
572.197	33.81
572.392	33.61
572.587	33.74
572.782	33.87
572.977	33.98
573.172	33.89
573.367	34.03
573.562	34.1
573.757	34.03
573.952	33.96
574.147	33.9
574.342	34.01
574.537	34.13
574.732	34.06
574.927	34.09
575.121	33.99
575.316	34.19
575.511	34.19
575.706	34.24
575.901	34.34
576.096	34.21
576.29	34.25
576.485	34.24
576.68	34.25
576.875	34.45
577.069	34.3
577.264	34.34
577.459	34.09
577.654	33.88
577.848	33.73
578.043	33.64
578.238	33.76
578.432	33.77
578.627	33.67
578.821	33.6
579.016	33.35
579.21	33.4
579.405	33.51
579.6	33.58
579.794	33.8
579.989	33.96
580.183	34.24
580.378	34.52
580.572	34.56
580.766	34.57
580.961	34.7
581.155	34.93
581.35	35
581.544	35.02
581.738	35.28
581.933	35.43
582.127	35.42
582.321	35.17
582.516	34.99
582.71	35.2
582.904	35.3
583.099	35.34
583.293	35.58
583.487	35.77
583.681	35.55
583.875	35.49
584.07	35.28
584.264	35.27
584.458	35.2
584.652	35.5
584.846	35.22
585.04	35.49
585.234	35.42
585.428	35.14
585.623	34.93
585.817	35.14
586.011	35.03
586.205	35.17
586.399	35.25
586.593	35.38
586.787	35.19
586.981	35.33
587.174	34.97
587.368	34.95
587.562	35.16
587.756	35.33
587.95	35.49
588.144	35.54
588.338	35.46
588.532	35.37
588.725	35.4
588.919	35.37
589.113	35.33
589.307	35.65
589.501	35.68
589.694	35.52
589.888	35.62
590.082	35.56
590.275	35.67
590.469	35.61
590.663	35.69
590.856	35.73
591.05	35.79
591.244	35.75
591.437	35.65
591.631	35.62
591.824	35.8
592.018	35.75
592.212	35.77
592.405	35.62
592.599	35.73
592.792	35.87
592.986	35.98
593.179	35.87
593.372	35.88
593.566	35.82
593.759	36.03
593.953	35.87
594.146	35.76
594.339	35.88
594.533	35.93
594.726	35.99
594.92	35.78
595.113	35.85
595.306	35.92
595.499	35.97
595.693	35.91
595.886	35.85
596.079	35.91
596.272	36.16
596.466	36.22
596.659	36.33
596.852	36.26
597.045	36.38
597.238	36.47
597.431	36.48
597.624	36.48
597.818	36.46
598.011	36.27
598.204	36.24
598.397	35.74
598.59	35.58
598.783	35.56
598.976	35.47
599.169	35.46
599.362	35.13
599.555	35.3
599.748	35.21
599.941	35.15
600.134	35.42
600.326	35.64
600.519	36.04
600.712	35.87
600.905	35.8
601.098	35.87
601.291	35.84
601.483	35.69
601.676	35.48
601.869	35.81
602.062	35.96
602.255	36.24
602.447	36.22
602.64	36.18
602.833	36.18
603.025	35.89
603.218	36.03
603.411	35.99
603.603	36.14
603.796	36.33
603.989	36.39
604.181	36.5
604.374	36.2
604.566	36.08
604.759	36.35
604.951	36.49
605.144	36.61
605.336	36.48
605.529	36.76
605.721	36.83
605.914	36.82
606.106	36.52
606.299	36.6
606.491	36.93
606.683	37.04
606.876	36.67
607.068	36.61
607.26	37
607.453	36.83
607.645	36.62
607.837	36.81
608.03	36.47
608.222	36.75
608.414	36.63
608.606	36.31
608.799	36.23
608.991	36.51
609.183	36.48
609.375	36.47
609.567	36.72
609.759	36.88
609.952	36.69
610.144	36.74
610.336	36.37
610.528	36.25
610.72	36.59
610.912	36.58
611.104	36.65
611.296	36.73
611.488	36.43
611.68	36.49
611.872	36.13
612.064	36.1
612.256	36.13
612.448	36.29
612.64	36.34
612.832	35.92
613.023	35.95
613.215	35.69
613.407	35.55
613.599	35.49
613.791	35.24
613.983	35.22
614.174	35.54
614.366	35.39
614.558	35.57
614.75	35.51
614.941	35.62
615.133	35.53
615.325	35.39
615.516	35.37
615.708	35.87
615.9	36.11
616.091	36.61
616.283	36.63
616.475	36.92
616.666	37.04
616.858	37.17
617.049	37.01
617.241	37.21
617.432	37.29
617.624	37.22
617.815	37.12
618.007	36.99
618.198	36.78
618.39	36.67
618.581	36.72
618.773	36.83
618.964	37.09
619.155	37.01
619.347	36.95
619.538	37.03
619.729	37.54
619.921	37.48
620.112	37.66
620.303	37.96
620.494	37.74
620.686	37.72
620.877	37.1
621.068	36.79
621.259	36.88
621.451	36.95
621.642	36.91
621.833	36.89
622.024	36.71
622.215	36.77
622.406	36.74
622.597	37.01
622.788	37.43
622.98	37.69
623.171	37.75
623.362	38.1
623.553	37.93
623.744	38.04
623.935	37.86
624.126	38.22
624.317	38.16
624.508	37.89
624.698	37.94
624.889	37.55
625.08	37.5
625.271	37.35
625.462	37.28
625.653	37.23
625.844	37.13
626.034	37.08
626.225	37.08
626.416	36.99
626.607	37.08
626.798	37.26
626.988	37.42
627.179	37.62
627.37	37.75
627.56	37.72
627.751	37.98
627.942	37.97
628.132	37.77
628.323	37.62
628.514	37.55
628.704	37.54
628.895	37.23
629.085	37.31
629.276	37.31
629.466	37.23
629.657	37.28
629.847	37.07
630.038	37.47
630.228	37.87
630.419	37.9
630.609	37.88
630.8	37.79
630.99	37.95
631.181	37.94
631.371	37.98
631.561	37.89
631.752	37.85
631.942	37.81
632.132	37.76
632.323	37.75
632.513	37.95
632.703	37.68
632.893	37.56
633.084	37.42
633.274	37.38
633.464	37.35
633.654	37.54
633.844	37.33
634.034	37.28
634.225	36.99
634.415	36.72
634.605	36.59
634.795	36.97
634.985	37.28
635.175	37.37
635.365	37.21
635.555	37.11
635.745	37.07
635.935	37.24
636.125	37.5
636.315	37.4
636.505	37.4
636.695	37.48
636.885	37.53
637.075	37.62
637.265	37.88
637.455	38.29
637.644	38.32
637.834	38.23
638.024	38.11
638.214	38.34
638.404	38.45
638.593	38.87
638.783	38.73
638.973	38.87
639.163	38.92
639.352	38.66
639.542	38.45
639.732	38.67
639.921	38.97
640.111	39.43
640.301	39.29
640.49	39.56
640.68	39.44
640.87	39.91
641.059	39.82
641.249	39.67
641.438	39.7
641.628	39.68
641.817	39.51
642.007	39.45
642.196	38.88
642.386	38.67
642.575	38.77
642.764	38.89
642.954	38.71
643.143	38.57
643.333	38.3
643.522	38.36
643.711	37.95
643.901	37.89
644.09	37.95
644.279	38.06
644.469	38.31
644.658	38.45
644.847	38.42
645.036	38.34
645.226	38.79
645.415	39.22
645.604	39.01
645.793	39.03
645.982	39.3
646.171	39.08
646.361	39.32
646.55	39.08
646.739	38.4
646.928	38.28
647.117	38.09
647.306	37.86
647.495	37.82
647.684	38.16
647.873	38.38
648.062	38.34
648.251	38.32
648.44	38.44
648.629	38.09
648.818	38.84
649.007	38.96
649.196	38.89
649.384	38.79
649.573	38.64
649.762	38.23
649.951	38.15
650.14	38.39
650.328	38.33
650.517	38.08
650.706	38.44
650.895	37.93
651.083	38.17
651.272	38.08
651.461	37.67
651.65	37.52
651.838	37.5
652.027	37.56
652.216	37.12
652.404	37.19
652.593	37.02
652.781	36.97
652.97	37.03
653.158	36.79
653.347	36.63
653.535	37.24
653.724	37.36
653.912	37.52
654.101	37.51
654.289	37.63
654.478	37.72
654.666	37.96
654.855	37.81
655.043	37.4
655.231	37.49
655.42	37.6
655.608	37.73
655.796	37.59
655.985	37.55
656.173	38.02
656.361	37.88
656.55	37.64
656.738	37.63
656.926	37.94
657.114	38.49
657.302	38.25
657.491	38.53
657.679	38.06
657.867	38.34
658.055	38.37
658.243	37.63
658.431	38.14
658.619	38.31
658.807	38.22
658.996	38.14
659.184	38.33
659.372	38.28
659.56	38.2
659.748	38.25
659.936	37.93
660.124	37.96
660.311	38.25
660.499	37.84
660.687	37.83
660.875	38.29
661.063	38.25
661.251	38.23
661.439	38.3
661.627	38.48
661.814	38.36
662.002	38.94
662.19	39.05
662.378	38.73
662.565	38.86
662.753	39.04
662.941	38.59
663.129	38.98
663.316	39.12
663.504	39.36
663.692	39.31
663.879	39.7
664.067	38.94
664.254	38.68
664.442	39.41
664.63	39.17
664.817	38.77
665.005	38.87
665.192	38.67
665.38	38.45
665.567	38.4
665.755	38.38
665.942	38.33
666.13	38.99
666.317	39.13
666.504	38.79
666.692	38.78
666.879	38.77
667.067	38.34
667.254	38.11
667.441	37.59
667.629	37.1
667.816	36.85
668.003	37.03
668.19	36.85
668.378	37.05
668.565	36.99
668.752	37.28
668.939	37.33
669.127	37.47
669.314	37.43
669.501	37.85
669.688	38.05
669.875	38.29
670.062	38.09
670.249	37.81
670.436	37.7
670.623	37.57
670.81	37.26
670.997	37.33
671.184	37.18
671.371	37.23
671.558	37.16
671.745	37.15
671.932	37.03
672.119	36.81
672.306	36.69
672.493	36.08
672.68	36.1
672.867	36.23
673.054	36.53
673.24	36.88
673.427	36.8
673.614	36.51
673.801	36.48
673.988	37.05
674.174	37.36
674.361	38
674.548	38.37
674.734	38.71
674.921	38.55
675.108	38.57
675.294	38.8
675.481	39.1
675.668	39.23
675.854	39.68
676.041	38.93
676.227	38.83
676.414	38.56
676.601	38.81
676.787	38.51
676.974	38.74
677.16	38.59
677.347	38.37
677.533	37.98
677.719	37.94
677.906	37.76
678.092	38.06
678.279	38.03
678.465	37.85
678.651	37.86
678.838	37.73
679.024	37.72
679.21	37.56
679.397	37.71
679.583	37.87
679.769	37.93
679.955	37.95
680.142	38.13
680.328	38.17
680.514	38.5
680.7	38.53
680.886	38.68
681.073	38.64
681.259	38.94
681.445	38.6
681.631	38.81
681.817	38.54
682.003	38.41
682.189	38.37
682.375	38.39
682.561	37.86
682.747	37.57
682.933	37.9
683.119	37.48
683.305	36.89
683.491	37.3
683.677	37.53
683.863	37.92
684.049	38.07
684.235	37.76
684.42	37.45
684.606	37.74
684.792	38.31
684.978	37.72
685.164	38.42
685.349	38.7
685.535	38.53
685.721	38.04
685.907	38.23
686.092	38.24
686.278	38.32
686.464	38.59
686.649	38.67
686.835	38.19
687.021	38.79
687.206	38.87
687.392	39.22
687.577	39
687.763	39.53
687.948	38.88
688.134	38.42
688.319	38.45
688.505	39.01
688.69	39.66
688.876	39.98
689.061	40.21
689.247	40.35
689.432	40.51
689.618	40.9
689.803	40.55
689.988	40.81
690.174	40.9
690.359	40.99
690.544	40.88
690.73	40.48
690.915	40.43
691.1	40.09
691.285	40.05
691.471	39.26
691.656	39.01
691.841	39.15
692.026	38.75
692.211	39.43
692.396	39.46
692.582	39.53
692.767	39.4
692.952	39.29
693.137	39.38
693.322	39.05
693.507	39.48
693.692	40.02
693.877	40.13
694.062	40.55
694.247	39.81
694.432	39.88
694.617	38.89
694.802	38.72
694.987	38.55
695.172	38.37
695.357	38.1
695.541	37.64
695.726	37.41
695.911	37.49
696.096	37.48
696.281	38.13
696.466	38.35
696.65	38.61
696.835	38.63
697.02	38.56
697.204	38.47
697.389	38.67
697.574	39.46
697.759	39.08
697.943	38.85
698.128	38.67
698.312	38.22
698.497	37.7
698.682	38.01
698.866	38.59
699.051	38.92
699.235	38.9
699.42	39
699.604	38.67
699.789	39.07
699.973	38.92
700.158	39.7
700.342	40.05
700.527	40.42
700.711	40.73
700.895	39.55
701.08	39.39
701.264	39.22
701.448	39.03
701.633	39.3
701.817	39.56
702.001	39.93
702.186	39.3
702.37	38.59
702.554	38.43
702.738	38.04
702.923	39.6
703.107	39.73
703.291	40.17
703.475	40.49
703.659	40.35
703.843	39.52
704.027	38.45
704.212	38.35
704.396	39.7
704.58	39.92
704.764	40.2
704.948	39.6
705.132	39.81
705.316	40.01
705.5	39.76
705.684	39.27
705.868	39.21
706.052	39.74
706.235	40.2
706.419	39.45
706.603	39
706.787	38.96
706.971	38.25
707.155	37.22
707.339	37.13
707.522	36.63
707.706	37.02
707.89	37.05
708.074	37.2
708.257	37.88
708.441	38.25
708.625	38.6
708.808	38.17
708.992	38.6
709.176	39.26
709.359	39.16
709.543	40.02
709.727	40.09
709.91	40.89
710.094	41.08
710.277	40.2
710.461	39.71
710.644	40.25
710.828	39.83
711.011	39.59
711.195	39.28
711.378	39.61
711.562	40.13
711.745	39.77
711.928	39.13
712.112	39.12
712.295	39.17
712.478	39.27
712.662	38.83
712.845	39.12
713.028	39.57
713.212	39.83
713.395	39.07
713.578	38.13
713.761	38.85
713.945	39.5
714.128	38.9
714.311	38.96
714.494	38.94
714.677	38.63
714.86	38.81
715.043	38.83
715.227	38.49
715.41	38.87
715.593	38.8
715.776	38.46
715.959	38.11
716.142	38.74
716.325	38.42
716.508	38.67
716.691	38.47
716.874	38.63
717.057	38.11
717.239	38.65
717.422	38.36
717.605	38.46
717.788	38.19
717.971	38.27
718.154	38.29
718.337	38.76
718.519	38.96
718.702	39.3
718.885	38.49
719.068	38.92
719.25	39
719.433	39.26
719.616	39.33
719.798	39.7
719.981	39.33
720.164	39.06
720.346	38.63
720.529	38.29
720.712	38.47
720.894	38.67
721.077	37.96
721.259	37.94
721.442	38.17
721.624	38.66
721.807	38.6
721.989	37.56
722.172	37.6
722.354	38.1
722.537	38.3
722.719	38.03
722.901	38.24
723.084	39.3
723.266	38.87
723.448	38.69
723.631	38.62
723.813	39.32
723.995	40.82
724.178	40.99
724.36	40.24
724.542	40.24
724.724	40.79
724.907	40.74
725.089	40.19
725.271	40.38
725.453	40.22
725.635	39.62
725.817	37.69
725.999	37.41
726.181	37.24
726.364	38.27
726.546	37.99
726.728	39.06
726.91	38.7
727.092	38.95
727.274	39.98
727.456	40.34
727.638	40.24
727.819	41.13
728.001	40.77
728.183	40.34
728.365	39.92
728.547	39.79
728.729	38.24
728.911	38.29
729.093	38.09
729.274	37.51
729.456	37.6
729.638	37.51
729.82	37.9
730.001	38.75
730.183	38.77
730.365	38.83
730.546	39.18
730.728	39.37
730.91	40.49
731.091	40.18
731.273	40.01
731.455	39.56
731.636	40.24
731.818	39.59
731.999	39.72
732.181	40.85
732.362	40.48
732.544	39.66
732.725	39.77
732.907	38.83
733.088	39.46
733.27	38.82
733.451	38.67
733.633	38
733.814	38.86
733.995	39.07
734.177	37.87
734.358	37.56
734.539	37.67
734.721	37.85
734.902	37.86
735.083	37.08
735.264	37.79
735.446	39.42
735.627	40.52
735.808	38.43
735.989	37.4
736.17	38.8
736.351	39.73
736.533	40.52
736.714	39.46
736.895	39.12
737.076	38.79
737.257	38.5
737.438	37.2
737.619	36.72
737.8	37.72
737.981	37.37
738.162	36.96
738.343	35.88
738.524	36.32
738.705	37.62
738.886	38.2
739.067	39.39
739.247	40.17
739.428	39.73
739.609	40.19
739.79	41.01
739.971	41.93
740.151	41.93
740.332	42.25
740.513	41.1
740.694	42.06
740.874	42.39
741.055	42.07
741.236	42.44
741.417	43.33
741.597	43.04
741.778	41.32
741.958	41.11
742.139	40.81
742.32	41.2
742.5	41.39
742.681	40.31
742.861	40.27
743.042	40.17
743.222	39.35
743.403	38.21
743.583	36.79
743.764	37.81
743.944	37.1
744.124	39.39
744.305	40.28
744.485	40.96
744.666	40.67
744.846	40.13
745.026	38.88
745.207	36.83
745.387	38.38
745.567	38.99
745.747	38.28
745.928	38.77
746.108	35.82
746.288	35.37
746.468	35.05
746.648	36.11
746.829	36.57
747.009	36.89
747.189	38.69
747.369	38.53
747.549	39.96
747.729	40.61
747.909	39.92
748.089	40.93
748.269	41.49
748.449	42.48
748.629	40.44
748.809	40.72
748.989	41.09
749.169	41.13
749.349	40.13
749.529	38.58
749.709	39.43
749.889	39.72
750.068	39.25
750.248	38.42
750.428	36.76
750.608	37.54
750.788	36.95
750.967	37.6
751.147	37.21
751.327	38.59
751.507	39.2
751.686	38
751.866	37.9
752.046	38.1
752.225	36.97
752.405	37.99
752.585	37.24
752.764	37.12
752.944	37.72
753.123	38.35
753.303	37.21
753.482	36.84
753.662	37.51
753.841	38
754.021	38.33
754.2	39.45
754.38	38.52
754.559	39.02
754.739	37.98
754.918	37.69
755.097	37.83
755.277	36.87
755.456	37.56
755.635	38.02
755.815	38.73
755.994	37.02
756.173	37.06
756.352	37.59
756.532	38.44
756.711	40.08
756.89	40.3
757.069	39.37
757.248	40
757.427	39.29
757.607	38.84
757.786	38.76
757.965	40.72
758.144	41.29
758.323	41.43
758.502	41.04
758.681	40.9
758.86	39.67
759.039	39.59
759.218	39.71
759.397	40.16
759.576	40.54
759.755	40.02
759.934	39.58
760.113	40.03
760.291	40.89
760.47	41.96
760.649	41.97
760.828	42.65
761.007	43.26
761.186	42.78
761.364	42.64
761.543	41.97
761.722	41.67
761.901	41.79
762.079	41.41
762.258	40.51
762.437	39.59
762.615	39.6
762.794	38.62
762.972	37.98
763.151	38.79
763.33	40.1
763.508	39.55
763.687	39.55
763.865	39.4
764.044	38.67
764.222	38.94
764.401	38.17
764.579	38.56
764.758	39.87
764.936	39.04
765.114	38.45
765.293	36.93
765.471	38.37
765.65	38.07
765.828	37.39
766.006	37.4
766.184	36.03
766.363	37.22
766.541	35.76
766.719	33.57
766.898	35.17
767.076	35.71
767.254	34.98
767.432	34.28
767.61	34.37
767.788	34.19
767.967	34.01
768.145	32.98
768.323	32.66
768.501	34.55
768.679	35.23
768.857	35.69
769.035	35.37
769.213	37.32
769.391	36.73
769.569	35.91
769.747	36.69
769.925	37.04
770.103	40.17
770.281	39.99
770.459	37.93
770.636	38.88
770.814	38
770.992	39.45
771.17	37.72
771.348	38.59
771.525	40.59
771.703	39.51
771.881	39.39
772.059	38.31
772.236	37.96
772.414	38.79
772.592	38.97
772.769	40.18
772.947	42.15
773.125	42.51
773.302	41.58
773.48	40.59
773.657	42.2
773.835	42.37
774.013	42.29
774.19	44.5
774.368	44.74
774.545	41.1
774.723	40.69
774.9	37.86
775.077	37.88
775.255	39.51
775.432	41.15
775.61	40.15
775.787	41.05
775.964	42.49
776.142	42.07
776.319	44.07
776.496	46.73
776.674	45.86
776.851	46.74
777.028	46.79
777.205	45.14
777.382	44.48
777.56	46.59
777.737	45.56
777.914	45.81
778.091	44.99
778.268	40.74
778.445	42.44
778.622	44.62
778.8	44.55
778.977	45.74
779.154	46.86
779.331	47.58
779.508	46.7
779.685	45.7
779.862	44.14
780.038	45.22
780.215	46.94
780.392	46.47
780.569	44.71
780.746	43.35
780.923	40.45
781.1	37.96
781.277	34.75
781.453	34.93
781.63	37.64
781.807	38.3
781.984	37.09
782.16	36.67
782.337	36.48
782.514	36.08
782.691	37.2
782.867	38.2
783.044	41.04
783.221	41.69
783.397	42.19
783.574	41.75
783.75	42.26
783.927	38.72
784.103	40
784.28	40.03
784.456	40.02
784.633	41.24
784.809	42.94
784.986	42.54
785.162	43.79
785.339	44.33
785.515	43.86
785.692	46.1
785.868	48.59
786.044	47.22
786.221	47.89
786.397	47.13
786.573	44.54
786.749	43.52
786.926	44
787.102	42.5
787.278	42.16
787.454	40.66
787.631	39.14
787.807	39.29
787.983	40.11
788.159	39.52
788.335	41.47
788.511	43.3
788.687	44.8
788.863	43.58
789.039	47.32
789.216	45.5
789.392	47.5
789.568	45.63
789.744	45.12
789.919	43.63
790.095	42.16
790.271	42.87
790.447	41.02
790.623	41.42
790.799	42.03
790.975	39.22
791.151	40.19
791.327	38.37
791.502	39.92
791.678	39.13
791.854	38.99
792.03	42.23
792.205	42.35
792.381	45.31
792.557	40.41
792.733	38.69
792.908	41.17
793.084	39.99
793.259	41.33
793.435	39.55
793.611	43.29
793.786	44.4
793.962	44.14
794.137	43.95
794.313	40.73
794.488	46.54
794.664	50.54
794.839	48.68
795.015	49.11
795.19	48.2
795.366	49.28
795.541	45.76
795.716	45.89
795.892	43.06
796.067	41.03
796.242	40.07
796.418	40.15
796.593	38.78
796.768	39.89
796.944	39.92
797.119	39.01
797.294	40.36
797.469	41.21
797.644	41.82
797.82	46.08
797.995	48.62
798.17	48.76
798.345	45.74
798.52	46.21
798.695	46.51
798.87	45.48
799.045	45.46
799.22	45.3
799.395	45.8
799.57	46.6
799.745	45.94
799.92	44.2
800.095	46.23
800.27	47.38
800.445	46.89
800.62	47.52
800.795	47.84
800.97	50.74
801.145	51.81
801.319	52.94
801.494	52.04
801.669	51.85
801.844	49.43
802.018	49.52
802.193	52.13
802.368	51.74
802.543	50.43
802.717	51.61
802.892	47.84
803.067	45.82
803.241	43.15
803.416	42.86
803.59	42.08
803.765	45.74
803.94	46.36
804.114	44.63
804.289	43.31
804.463	43.17
804.638	43.35
804.812	46.2
804.986	44.71
805.161	44.71
805.335	46.98
805.51	48.3
805.684	47.98
805.858	45.79
806.033	40.68
806.207	43.36
806.381	43.27
806.556	41.91
806.73	40.54
806.904	40.21
807.078	41.11
807.253	37.18
807.427	33.03
807.601	31.01
807.775	28.86
807.949	33.1
808.123	31.32
808.298	27.62
808.472	29.72
808.646	32.19
808.82	35.75
808.994	35.22
809.168	38.43
809.342	43.97
809.516	48.65
809.69	54
809.864	53.4
810.038	50.81
810.212	53.1
810.385	48.92
810.559	48.6
810.733	48.99
810.907	46.37
811.081	44.75
811.255	40.69
811.428	41.09
811.602	40.96
811.776	42.19
811.95	46.21
812.123	47.16
812.297	47.28
812.471	49.09
812.644	44.85
812.818	48.63
812.992	51.03
813.165	51.53
813.339	50.74
813.512	47.64
813.686	46.07
813.86	46.07
814.033	43.58
814.207	46.3
814.38	43.18
814.554	45.18
814.727	44.97
814.9	46.19
815.074	49.2
815.247	48.33
815.421	51.29
815.594	56.19
815.767	52.26
815.941	50.58
816.114	50.59
816.287	49.43
816.46	52.23
816.634	54.06
816.807	49.9
816.98	46.57
817.153	41.98
817.327	37.6
817.5	31.97
817.673	30.48
817.846	32.96
818.019	35.81
818.192	36.62
818.365	32.9
818.538	29.07
818.711	32.91
818.884	34.09
819.057	35.6
819.23	41.57
819.403	41.57
819.576	43.95
819.749	45.3
819.922	43.74
820.095	42.32
820.268	42.24
820.441	44.1
820.614	43.61
820.786	42.51
820.959	43.58
821.132	40.81
821.305	39.87
821.477	38.39
821.65	37.43
821.823	36.8
821.996	37.49
822.168	38.03
822.341	38.57
822.514	37.82
822.686	37.78
822.859	37.62
823.031	37.2
823.204	38.45
823.376	39
823.549	38.98
823.722	39.23
823.894	39.06
824.067	38.53
824.239	37.25
824.411	37.27
824.584	37.76
824.756	37.19
824.929	37.93
825.101	37
825.273	36.35
825.446	36.2
825.618	36.4
825.79	36.22
825.963	36.74
826.135	37.35
826.307	37.6
826.479	36
826.652	35.74
826.824	34.97
826.996	35
827.168	36.08
827.34	36.55
827.512	37.03
827.684	37.97
827.856	37.37
828.029	36.77
828.201	36.33
828.373	38.49
828.545	39.58
828.717	40.25
828.889	40.52
829.061	40.92
829.232	41.92
829.404	42.25
829.576	43.1
829.748	42.64
829.92	46.88
830.092	48.86
830.264	49.51
830.436	49.46
830.607	49.73
830.779	49.68
830.951	49.52
831.123	48.79
831.294	47.59
831.466	45.36
831.638	48.51
831.809	45.25
831.981	43.85
832.153	44.89
832.324	46.01
832.496	46.52
832.667	48.19
832.839	47.8
833.011	47.09
833.182	47.36
833.354	49.11
833.525	49.46
833.697	47.77
833.868	48.17
834.039	42.65
834.211	42.85
834.382	43.3
834.554	44.36
834.725	43.33
834.896	42.97
835.068	42.29
835.239	40.58
835.41	38.99
835.581	38.97
835.753	39.59
835.924	42.63
836.095	41.65
836.266	42.41
836.438	40.67
836.609	40.68
836.78	41.03
836.951	42.57
837.122	45.17
837.293	45.94
837.464	43.95
837.635	42.25
837.806	39.67
837.977	38.84
838.148	37.04
838.319	35.19
838.49	37.17
838.661	36.97
838.832	38.06
839.003	39.72
839.174	39.64
839.345	40.48
839.516	40.5
839.687	45.22
839.857	47.46
840.028	48.68
840.199	52.24
840.37	45.07
840.54	44.61
840.711	40.18
840.882	36
841.053	35.22
841.223	39.41
841.394	36.86
841.564	39.85
841.735	39.46
841.906	34.22
842.076	29.98
842.247	36.98
842.417	39.72
842.588	41.12
842.758	39.5
842.929	37.67
843.099	42.97
843.27	48.54
843.44	43.61
843.611	49.03
843.781	65.02
843.951	70.37
844.122	57.46
844.292	53.35
844.462	57.22
844.633	55.13
844.803	48.82
844.973	37.09
845.144	44.56
845.314	57.34
845.484	51.59
845.654	41.5
845.824	42.68
845.995	52.09
846.165	54.64
846.335	57.24
846.505	59.13
846.675	68.26
846.845	67.59
847.015	53.92
847.185	46.58
847.355	48.95
847.525	49.1
847.695	43.59
847.865	42.22
848.035	44.18
848.205	39.88
848.375	38.84
848.545	36.56
848.715	40.19
848.884	48.68
849.054	42.02
849.224	38.91
849.394	44.04
849.564	55.16
849.733	55.6
849.903	48.6
850.073	44.25
850.243	57.19
850.412	51.61
850.582	49.44
850.752	38.84
850.921	53.84
851.091	51.5
851.26	52.44
851.43	34.84
851.599	36.28
851.769	25.28
851.939	29.66
852.108	25.71
852.278	30.48
852.447	31.31
852.616	33.4
852.786	25.81
852.955	26.01
853.125	34.87
853.294	38.26
853.463	53.71
853.633	65.04
853.802	71.57
853.971	77.09
854.141	86.93
854.31	86.05
854.479	94.17
854.648	100.78
854.818	102.97
854.987	77.79
855.156	85.8
855.325	67.18
855.494	66.05
855.663	66.76
855.832	50.88
856.001	44.26
856.171	39.03
856.34	39.28
856.509	43.09
856.678	34.47
856.847	55.18
857.016	62.59
857.185	74.2
857.353	76.74
857.522	81.79
857.691	92.76
857.86	88.06
858.029	105.41
858.198	85.37
858.367	82.01
858.535	73.45
858.704	75.53
858.873	75.81
859.042	82.59
859.21	83.13
859.379	64.91
859.548	68.46
859.717	61.25
859.885	47.9
860.054	53.41
860.222	33.4
860.391	43.58
860.56	55.91
860.728	62.07
860.897	62.95
861.065	56.38
861.234	64.47
861.402	56.26
861.571	64.39
861.739	62.56
861.908	75.92
862.076	83.25
862.244	81.47
862.413	59.27
862.581	60.03
862.749	53.59
862.918	75.56
863.086	63.12
863.254	76.25
863.423	69.01
863.591	95.35
863.759	62.35
863.927	43.24
864.096	56.04
864.264	88.64
864.432	66.67
864.6	55.87
864.768	58.59
864.936	45.06
865.104	47.32
865.272	50.52
865.44	37.94
865.608	47.78
865.776	67.41
865.944	45.48
866.112	29.4
866.28	43.65
866.448	37.54
866.616	16.79
866.784	41.1
866.952	35.2
867.12	27.32
867.288	37.84
867.455	14.25
867.623	-12.14
867.791	6.6
867.959	-4.96
868.127	5.76
868.294	15.05
868.462	20.79
868.63	-4.66
868.797	14.06
868.965	30.79
869.133	25.7
869.3	39.09
869.468	52.64
869.636	49.14
869.803	60.9
869.971	51.57
870.138	76.6
870.306	84.13
870.473	86.34
870.641	91.5
870.808	91.43
870.975	95.33
871.143	95.31
871.31	116.68
871.478	132.8
871.645	121.84
871.812	109.14
871.98	103.2
872.147	88.49
872.314	85.97
872.482	93.55
872.649	87.28
872.816	73.12
872.983	74.24
873.15	55.58
873.318	43.73
873.485	43.63
873.652	54.68
873.819	33.65
873.986	34.76
874.153	24.69
874.32	25.92
874.487	27.97
874.654	24.03
874.821	8.05
874.988	28.37
875.155	32.83
875.322	39.46
875.489	34.8
875.656	49.76
875.823	42.8
875.99	46.62
876.157	36.4
876.324	38.58
876.49	45.73
876.657	50.21
876.824	41.59
876.991	43.84
877.157	40.72
877.324	27.51
877.491	24.75
877.658	32.58
877.824	38.47
877.991	33.57
878.157	41.74
878.324	32.06
878.491	34.56
878.657	24.19
878.824	17.7
878.99	14.9
879.157	23.65
879.323	23.37
879.49	7
879.656	-3.54
879.823	21.99
879.989	8.14
880.156	12.44
880.322	18.54
880.488	49.89
880.655	55.23
880.821	58.99
880.987	62.62
881.154	63.8
881.32	69.19
881.486	63.91
881.652	48.61
881.819	46
881.985	53.94
882.151	50.48
882.317	46.98
882.483	43.98
882.649	43.24
882.816	40.22
882.982	38.92
883.148	42.69
883.314	45.42
883.48	44.66
883.646	45.43
883.812	43.43
883.978	46.09
884.144	46.49
884.31	47.98
884.476	47.39
884.642	47.86
884.807	47.93
884.973	44.85
885.139	41.19
885.305	42.44
885.471	44.07
885.637	41.27
885.802	39.97
885.968	39.71
886.134	39.24
886.3	39.52
886.465	39.23
886.631	40.31
886.797	40.65
886.962	43.37
887.128	45.49
887.293	48.45
887.459	48.97
887.625	48.55
887.79	57.52
887.956	59.56
888.121	61.74
888.287	69.75
888.452	71.97
888.618	76.74
888.783	78.01
