Data from 2937815_Reflection_2.txt Node
Date: Wed Jul 15 17:35:58 EDT 2015
User: robert
Spectrometer: USB4E03001
Autoset integration time: false
Trigger mode: 4
Integration Time (sec): 1.000000E-1
Scans to average: 10
Electric dark correction enabled: true
Nonlinearity correction enabled: false
Boxcar width: 5
Stray light correction enabled: false
XAxis mode: Wavelengths
Stop averaging: false
Number of Pixels in Spectrum: 3648
>>>>>Begin Spectral Data<<<<<
177.566	-52.91
177.785	-85.8
178.005	-81.37
178.225	-490.88
178.445	-207.34
178.665	-166.12
178.885	-38.75
179.105	-136.3
179.324	-511.27
179.544	792.81
179.764	-2970.49
179.984	212.59
180.204	246.74
180.423	192.45
180.643	118.42
180.863	105.24
181.083	80.12
181.302	87.08
181.522	115.73
181.742	108.45
181.961	134.1
182.181	123.68
182.401	171.66
182.621	173.67
182.84	132.44
183.06	221.04
183.279	144.46
183.499	175.75
183.719	188.8
183.938	135.21
184.158	122.17
184.377	96.31
184.597	139.51
184.816	102.76
185.036	116.24
185.256	143.52
185.475	135.94
185.695	179.31
185.914	144.15
186.134	126.59
186.353	100.81
186.572	85.35
186.792	116.98
187.011	67.62
187.231	61.95
187.45	40.81
187.67	37.43
187.889	39.39
188.108	43.58
188.328	56.11
188.547	61.14
188.766	92.98
188.986	111.6
189.205	76.8
189.424	122.08
189.644	243.1
189.863	213.99
190.082	229.42
190.302	314.06
190.521	385.63
190.74	398.62
190.959	331.55
191.178	2095.74
191.398	-271.78
191.617	-2889.66
191.836	-245.11
192.055	-437.13
192.274	-273.11
192.494	-224.61
192.713	-534.85
192.932	-762.6
193.151	-117.76
193.37	-149.79
193.589	-16666.67
193.808	830.37
194.027	-132.3
194.246	-171.03
194.465	-1245.53
194.685	604.37
194.904	-401.36
195.123	-209.37
195.342	-139.33
195.561	389.13
195.78	493.93
195.999	268.38
196.218	275.63
196.436	130.36
196.655	102.48
196.874	147.54
197.093	140.7
197.312	121.11
197.531	87.96
197.75	67.17
197.969	56.37
198.188	45.29
198.407	90.9
198.625	115.5
198.844	134.06
199.063	185.28
199.282	43.79
199.501	-5.64
199.719	-304.91
199.938	-153.41
200.157	11.17
200.376	430.84
200.594	210.53
200.813	99.33
201.032	170.5
201.251	375.71
201.469	-689.67
201.688	-2746.47
201.907	467.4
202.125	680.97
202.344	6367.53
202.563	-128.41
202.781	-78.98
203	-110.83
203.218	-151.85
203.437	-138.68
203.656	933.87
203.874	511.08
204.093	108.88
204.311	270.21
204.53	331.21
204.748	731.43
204.967	208.45
205.185	234.66
205.404	251.04
205.622	164.6
205.841	165.84
206.059	412.16
206.278	477.53
206.496	558.91
206.715	395.01
206.933	303.83
207.151	195.82
207.37	289.55
207.588	170.38
207.806	159.11
208.025	269.73
208.243	279.42
208.461	304.99
208.68	131.19
208.898	322.71
209.116	-88.11
209.335	-87.46
209.553	3092.21
209.771	189.67
209.989	-61.25
210.208	-337.35
210.426	-72.97
210.644	-79.29
210.862	-245.37
211.081	-330.98
211.299	-695.93
211.517	1014.61
211.735	6972.41
211.953	1601.01
212.171	5765.89
212.39	347.41
212.608	196.94
212.826	140.66
213.044	129.38
213.262	102.35
213.48	77.62
213.698	99.28
213.916	139.64
214.134	127.65
214.352	124.91
214.57	131.08
214.788	139.4
215.006	358.68
215.224	-681.48
215.442	1180.1
215.66	-759.39
215.878	-796.72
216.096	-715.07
216.314	-1603.41
216.532	358.8
216.75	-1754.83
216.968	374.5
217.185	201.73
217.403	221.57
217.621	111.12
217.839	193.26
218.057	246.28
218.275	164.78
218.492	121.08
218.71	107.67
218.928	102.93
219.146	112.95
219.363	191.88
219.581	219.44
219.799	166.46
220.017	105.32
220.234	30.36
220.452	25.06
220.67	90.8
220.887	169.26
221.105	98.34
221.323	90.12
221.54	83.54
221.758	72.51
221.976	82.25
222.193	77.55
222.411	94.38
222.629	102.76
222.846	90.46
223.064	77.68
223.281	79.18
223.499	102.23
223.716	117.58
223.934	104.99
224.151	122.68
224.369	133.9
224.586	143.69
224.804	124.59
225.021	121.01
225.239	142.7
225.456	161.56
225.674	107.89
225.891	106.28
226.108	106.11
226.326	104.72
226.543	87.23
226.76	69.23
226.978	68.76
227.195	59.88
227.413	54.01
227.63	47.83
227.847	40.22
228.064	38.67
228.282	34.78
228.499	26.83
228.716	18.5
228.934	21.13
229.151	25.68
229.368	22.56
229.585	23.71
229.802	20.51
230.02	17.9
230.237	20.39
230.454	19.32
230.671	19.48
230.888	17.68
231.105	17.77
231.323	16.41
231.54	5.12
231.757	1.17
231.974	-1.83
232.191	5.78
232.408	8.25
232.625	3.8
232.842	12.32
233.059	9.75
233.276	18.18
233.493	26.43
233.71	25.53
233.927	32.86
234.144	40.92
234.361	40.05
234.578	40.93
234.795	38.73
235.012	35.54
235.229	28.15
235.446	28.25
235.663	33.36
235.879	36.05
236.096	38.69
236.313	38.53
236.53	33.54
236.747	29.9
236.964	28.59
237.181	22.6
237.397	23.42
237.614	30
237.831	34.32
238.048	29.96
238.264	24.39
238.481	28.39
238.698	27.25
238.915	27.96
239.131	33.14
239.348	23.16
239.565	32.74
239.781	32.25
239.998	31.44
240.215	29.99
240.431	27.57
240.648	28.53
240.865	22.67
241.081	21.59
241.298	21.99
241.514	22.09
241.731	26.15
241.947	22.7
242.164	23.5
242.38	19.46
242.597	17.77
242.814	18.31
243.03	17.54
243.246	18.79
243.463	17.98
243.679	18.11
243.896	18.72
244.112	18.56
244.329	19.81
244.545	19.02
244.762	21.42
244.978	20.52
245.194	20.16
245.411	19.72
245.627	17.01
245.843	17.25
246.06	17.9
246.276	15.08
246.492	13.46
246.709	14.37
246.925	14.05
247.141	14.03
247.357	14.03
247.574	13.54
247.79	13.43
248.006	13.81
248.222	13.77
248.439	12.68
248.655	11.68
248.871	12.23
249.087	10.85
249.303	11.4
249.519	10.94
249.736	9.49
249.952	9.94
250.168	9.47
250.384	9.13
250.6	10.91
250.816	11.71
251.032	13.76
251.248	13.26
251.464	13.74
251.68	11.16
251.896	10.78
252.112	12.12
252.328	11.62
252.544	11.37
252.76	10.16
252.976	9.55
253.192	10.92
253.408	11.63
253.624	13.19
253.84	10.71
254.056	13.02
254.272	14.08
254.487	14.2
254.703	14.55
254.919	16.06
255.135	17.91
255.351	18.27
255.567	15.14
255.782	15.4
255.998	11.95
256.214	15.63
256.43	16.74
256.646	19.09
256.861	20.51
257.077	20.23
257.293	19.25
257.508	17.91
257.724	17.89
257.94	18.2
258.155	16.92
258.371	17.06
258.587	15.64
258.802	15.35
259.018	15.04
259.234	14.74
259.449	14.11
259.665	13.3
259.88	13.06
260.096	12.76
260.312	11.99
260.527	12.24
260.743	12.49
260.958	12.78
261.174	10.42
261.389	8.98
261.605	8
261.82	7.62
262.036	7.85
262.251	8.13
262.466	7.51
262.682	8.49
262.897	8.7
263.113	6.56
263.328	6.23
263.543	9.59
263.759	10.51
263.974	11.14
264.189	10.71
264.405	9.2
264.62	8.19
264.835	10.39
265.051	9.06
265.266	10.35
265.481	14.23
265.696	16.24
265.912	16.33
266.127	15.9
266.342	14.7
266.557	15.6
266.773	17.51
266.988	18.29
267.203	14.73
267.418	15.73
267.633	13.33
267.848	11.62
268.064	10.6
268.279	8.88
268.494	9.66
268.709	10.26
268.924	9.98
269.139	7.89
269.354	7.53
269.569	8.01
269.784	7.55
269.999	9.4
270.214	8.44
270.429	6.58
270.644	8.68
270.859	7.88
271.074	7.09
271.289	7.92
271.504	8.34
271.719	6.65
271.934	8.2
272.149	9.05
272.363	8.79
272.578	8.35
272.793	9.75
273.008	8.27
273.223	8.48
273.438	9.37
273.653	8.45
273.867	7.39
274.082	9.56
274.297	8.3
274.512	8.09
274.726	7.82
274.941	9.47
275.156	10.84
275.371	12.03
275.585	12.31
275.8	12.31
276.015	12.49
276.229	15.41
276.444	15.58
276.659	17.35
276.873	17.18
277.088	18.26
277.302	18.31
277.517	15.99
277.732	15.9
277.946	14.37
278.161	13.95
278.375	11.66
278.59	10.31
278.804	8.82
279.019	8.52
279.233	7.22
279.448	4.61
279.662	4.43
279.877	4.23
280.091	3.07
280.306	5.39
280.52	4.1
280.735	6.7
280.949	6.15
281.163	7.61
281.378	7.28
281.592	4.87
281.806	6.23
282.021	4.99
282.235	5.76
282.449	6.85
282.664	7.66
282.878	9.53
283.092	9.55
283.307	10.08
283.521	9.42
283.735	10.24
283.949	11.93
284.164	12.35
284.378	12.57
284.592	12.69
284.806	12.52
285.02	12.27
285.234	12.05
285.449	11.39
285.663	11.7
285.877	12.8
286.091	13.01
286.305	13.55
286.519	12.87
286.733	13.61
286.947	13.17
287.161	13.77
287.375	12.79
287.589	12.47
287.803	12.52
288.017	12.33
288.231	11.04
288.445	9.82
288.659	10.45
288.873	9.82
289.087	9.58
289.301	9.75
289.515	11.07
289.729	10
289.943	11.92
290.157	13.73
290.371	14.35
290.584	14.41
290.798	14.55
291.012	13.93
291.226	16.08
291.44	16.57
291.654	17.03
291.867	15.2
292.081	16.72
292.295	14.59
292.509	12.11
292.722	10.7
292.936	11.15
293.15	14.14
293.364	15.05
293.577	14.09
293.791	12.62
294.005	12.07
294.218	12.06
294.432	12.05
294.645	11.39
294.859	12.29
295.073	13.44
295.286	12.69
295.5	10.42
295.713	10.22
295.927	10.32
296.14	11.68
296.354	12.31
296.568	12.78
296.781	12.51
296.994	13.13
297.208	13.48
297.421	12.26
297.635	12.7
297.848	12.9
298.062	13.19
298.275	13.07
298.489	12.78
298.702	11.09
298.915	10.21
299.129	11.32
299.342	11.7
299.555	11.83
299.769	12.61
299.982	12.51
300.195	12.42
300.409	13.19
300.622	12.2
300.835	13.2
301.048	15.43
301.262	15.45
301.475	14.15
301.688	12.5
301.901	12.31
302.115	12.58
302.328	12.19
302.541	10.48
302.754	9.19
302.967	10.17
303.18	9.68
303.393	11.72
303.607	14.38
303.82	14.93
304.033	15.8
304.246	16.23
304.459	16.67
304.672	15.04
304.885	16.84
305.098	17.93
305.311	18.62
305.524	18.57
305.737	16.61
305.95	14.35
306.163	14.13
306.376	15.08
306.589	15.57
306.802	12.95
307.015	15.05
307.228	15.56
307.44	13.35
307.653	12.53
307.866	13.25
308.079	13.61
308.292	13.92
308.505	13.33
308.718	13.32
308.93	12.34
309.143	14.44
309.356	13.98
309.569	12.22
309.781	12.5
309.994	11.66
310.207	10.3
310.42	10.42
310.632	10.46
310.845	11.42
311.058	11.3
311.27	11.26
311.483	10.47
311.696	11.93
311.908	13.43
312.121	13.61
312.333	14.66
312.546	13.83
312.759	13.63
312.971	13.79
313.184	13.51
313.396	12.28
313.609	13.72
313.821	13.8
314.034	12.96
314.246	12.95
314.459	13.79
314.671	13.33
314.884	14.4
315.096	14.17
315.309	14.58
315.521	15.29
315.733	17.25
315.946	15.39
316.158	17.31
316.371	16.22
316.583	13.51
316.795	12.04
317.008	13.1
317.22	14.66
317.432	14.19
317.644	15.49
317.857	13.93
318.069	14.26
318.281	14.73
318.494	12.6
318.706	13.77
318.918	15.43
319.13	17.27
319.342	15.89
319.555	16.94
319.767	17.64
319.979	15.35
320.191	14.74
320.403	13.79
320.615	14.21
320.827	15.66
321.039	15.5
321.252	16.25
321.464	15.59
321.676	17.72
321.888	15.52
322.1	15.16
322.312	15.99
322.524	16.24
322.736	18.59
322.948	16.97
323.16	15.83
323.372	15.64
323.584	14.24
323.796	13.82
324.007	12.91
324.219	13.28
324.431	11.69
324.643	11.89
324.855	11.84
325.067	9.56
325.279	8.9
325.491	9.69
325.702	9.65
325.914	11.36
326.126	9.84
326.338	9.32
326.55	9.09
326.761	11.62
326.973	11.13
327.185	10.8
327.396	10.51
327.608	11.17
327.82	10.82
328.032	11.22
328.243	9.39
328.455	10.59
328.666	9.84
328.878	9.57
329.09	8.56
329.301	9.09
329.513	9.63
329.725	9.11
329.936	11.06
330.148	10.99
330.359	11.98
330.571	12.7
330.782	13.56
330.994	13.62
331.205	13.59
331.417	13.09
331.628	13.62
331.84	15.46
332.051	17.33
332.262	16.36
332.474	16.67
332.685	13.69
332.897	13.45
333.108	13.19
333.319	13.51
333.531	13.7
333.742	12.78
333.953	10.43
334.165	9.45
334.376	8.41
334.587	9.41
334.799	9.12
335.01	9.51
335.221	10.2
335.432	9.84
335.644	10.27
335.855	10.68
336.066	11.7
336.277	12.69
336.488	12.75
336.7	13.4
336.911	13.88
337.122	14.01
337.333	14.85
337.544	15.45
337.755	15.73
337.966	15.27
338.177	13.99
338.388	14.48
338.599	14.6
338.811	14.27
339.022	13.58
339.233	11.22
339.444	11.01
339.655	11.63
339.866	11.25
340.076	10.43
340.287	10.81
340.498	10.87
340.709	9.9
340.92	11.02
341.131	10.24
341.342	9.97
341.553	11.29
341.764	11.05
341.975	9.94
342.185	8.38
342.396	8.77
342.607	9.4
342.818	10.33
343.029	10.6
343.239	10.05
343.45	11.69
343.661	12.04
343.872	10.99
344.082	11.64
344.293	12.13
344.504	13.91
344.714	12.51
344.925	11.78
345.136	12.09
345.346	11.61
345.557	11.23
345.768	10.3
345.978	10.59
346.189	11.23
346.399	10.38
346.61	10.57
346.821	9.64
347.031	10.23
347.242	9.62
347.452	9.02
347.663	10.05
347.873	10.56
348.084	10.09
348.294	10.16
348.504	9.75
348.715	11.14
348.925	10.39
349.136	10.23
349.346	11.27
349.557	10.38
349.767	10.25
349.977	8.67
350.188	8.74
350.398	8.68
350.608	8.66
350.819	8.94
351.029	7.8
351.239	8.91
351.449	9.88
351.66	9.53
351.87	10.44
352.08	10.16
352.29	11.21
352.501	11.23
352.711	12.78
352.921	14.98
353.131	13.79
353.341	14.22
353.552	13.59
353.762	11.94
353.972	12.41
354.182	13.06
354.392	13.33
354.602	14.04
354.812	13.08
355.022	11.55
355.232	8.34
355.442	9.52
355.652	10.32
355.862	10.22
356.072	10.71
356.282	10.57
356.492	10.21
356.702	11.12
356.912	10.52
357.122	11.94
357.332	12.3
357.542	12.8
357.752	12.34
357.962	10.92
358.171	10.16
358.381	10.59
358.591	10.06
358.801	9.55
359.011	9.03
359.221	8.6
359.43	8.04
359.64	8.12
359.85	8.62
360.06	8.76
360.269	8.05
360.479	8.45
360.689	7.76
360.899	7.78
361.108	7.49
361.318	7.43
361.528	7.88
361.737	7.91
361.947	7.55
362.156	6.31
362.366	6.83
362.576	7.98
362.785	8
362.995	8.35
363.204	8.96
363.414	10.97
363.623	10.86
363.833	10.45
364.042	10.01
364.252	11.22
364.461	11.47
364.671	12.35
364.88	12.12
365.09	12.11
365.299	12.16
365.509	11.27
365.718	10.32
365.927	10.58
366.137	10.43
366.346	11.04
366.555	10.04
366.765	10.54
366.974	9.17
367.183	9.14
367.393	8.68
367.602	8.54
367.811	8.51
368.021	7.95
368.23	7.98
368.439	7.25
368.648	5.4
368.857	5.02
369.067	4.86
369.276	4.72
369.485	5.22
369.694	4.9
369.903	4.22
370.112	4.48
370.321	4.44
370.531	4.35
370.74	5.7
370.949	6.41
371.158	6.53
371.367	5.61
371.576	6.37
371.785	6.07
371.994	6.32
372.203	6.53
372.412	6.5
372.621	6.49
372.83	5.33
373.039	5.34
373.248	5.11
373.457	5.01
373.666	6.05
373.874	5.37
374.083	4.89
374.292	5.8
374.501	6.12
374.71	6.7
374.919	7.14
375.128	8.01
375.336	8.6
375.545	8.46
375.754	8.38
375.963	8.06
376.171	7.85
376.38	8.44
376.589	8.05
376.798	7.87
377.006	7.3
377.215	7.13
377.424	7.13
377.632	7.32
377.841	7.74
378.05	7.74
378.258	7.9
378.467	8.36
378.675	8.04
378.884	8.06
379.093	7.85
379.301	7.8
379.51	7.5
379.718	7.27
379.927	6.33
380.135	6.42
380.344	6.48
380.552	6.82
380.761	6.97
380.969	6.98
381.177	6.54
381.386	6.78
381.594	7.15
381.803	7.16
382.011	7.2
382.219	6.9
382.428	6.44
382.636	6.73
382.845	6.16
383.053	5.55
383.261	5.32
383.469	5.52
383.678	5.61
383.886	5.58
384.094	5.77
384.302	5.74
384.511	5.45
384.719	6
384.927	5.69
385.135	5.65
385.343	5.64
385.552	6.44
385.76	6.65
385.968	6.55
386.176	6.03
386.384	5.79
386.592	5.81
386.8	6.41
387.008	5.89
387.216	5.72
387.424	5.8
387.633	5.3
387.841	4.56
388.049	4.23
388.257	3.71
388.465	3.88
388.672	3.96
388.88	3.75
389.088	3.51
389.296	3.4
389.504	3.65
389.712	3.72
389.92	3.96
390.128	3.96
390.336	3.97
390.544	4.47
390.751	4.87
390.959	4.83
391.167	5.12
391.375	4.97
391.583	5.25
391.79	5.04
391.998	4.99
392.206	4.72
392.414	4.83
392.621	5.08
392.829	5.04
393.037	4.59
393.244	4.78
393.452	4.58
393.66	4.7
393.867	4.53
394.075	4.51
394.283	4.29
394.49	4.51
394.698	4.71
394.905	5.04
395.113	4.79
395.32	4.98
395.528	4.86
395.735	4.82
395.943	4.79
396.15	4.6
396.358	4.64
396.565	4.78
396.773	4.94
396.98	4.65
397.188	4.21
397.395	4.44
397.602	4.6
397.81	4.27
398.017	4.59
398.225	4.88
398.432	5.21
398.639	4.73
398.847	5.04
399.054	5.14
399.261	4.73
399.468	4.52
399.676	4.44
399.883	4.06
400.09	4.47
400.297	4.6
400.505	4.4
400.712	4.75
400.919	5.49
401.126	5.3
401.333	5.16
401.54	5.48
401.748	5.75
401.955	5.68
402.162	5.72
402.369	5.56
402.576	5.14
402.783	5.1
402.99	4.93
403.197	4.44
403.404	4.26
403.611	4.29
403.818	4.39
404.025	4.32
404.232	4.27
404.439	4.49
404.646	4.34
404.853	4.38
405.06	4.58
405.267	4.42
405.474	4.53
405.681	4.59
405.887	4.62
406.094	4.25
406.301	3.98
406.508	4.05
406.715	4.25
406.922	4.43
407.128	4.28
407.335	3.84
407.542	3.83
407.749	3.9
407.955	3.88
408.162	3.77
408.369	4.39
408.575	4.65
408.782	4.45
408.989	3.73
409.195	3.72
409.402	3.86
409.609	3.92
409.815	3.84
410.022	3.74
410.228	3.97
410.435	4.15
410.642	3.89
410.848	3.59
411.055	3.7
411.261	3.75
411.468	3.64
411.674	3.55
411.881	3.5
412.087	3.56
412.294	3.95
412.5	3.84
412.706	3.36
412.913	3.02
413.119	3.09
413.326	3.28
413.532	3.42
413.738	3.74
413.945	3.48
414.151	3.51
414.357	3.67
414.564	3.69
414.77	3.71
414.976	3.99
415.182	3.91
415.389	4.09
415.595	3.81
415.801	3.7
416.007	3.39
416.214	3.48
416.42	3.37
416.626	3.19
416.832	3.19
417.038	3.12
417.244	3.21
417.45	3.56
417.657	3.5
417.863	3.5
418.069	3.77
418.275	3.87
418.481	3.9
418.687	3.98
418.893	3.99
419.099	3.94
419.305	3.91
419.511	3.9
419.717	3.86
419.923	3.86
420.129	4.18
420.335	4.2
420.541	4.12
420.746	4.13
420.952	4.23
421.158	4.31
421.364	4.29
421.57	4.42
421.776	4.54
421.982	4.48
422.187	4.55
422.393	4.4
422.599	4.45
422.805	4.56
423.01	4.62
423.216	4.68
423.422	4.59
423.628	4.68
423.833	4.57
424.039	4.47
424.245	4.58
424.45	4.45
424.656	4.38
424.862	4.1
425.067	3.99
425.273	4.03
425.478	3.84
425.684	3.75
425.889	3.68
426.095	3.76
426.301	3.64
426.506	3.39
426.712	3.54
426.917	3.48
427.123	3.66
427.328	3.64
427.533	3.63
427.739	3.72
427.944	3.89
428.15	3.75
428.355	3.54
428.561	3.71
428.766	3.99
428.971	3.74
429.177	3.88
429.382	3.9
429.587	3.77
429.793	3.74
429.998	4.05
430.203	3.87
430.408	3.76
430.614	3.83
430.819	3.59
431.024	3.64
431.229	3.86
431.434	3.8
431.64	3.87
431.845	4.16
432.05	4.03
432.255	3.76
432.46	3.87
432.665	4.04
432.87	4.02
433.076	4.14
433.281	4.05
433.486	3.93
433.691	3.96
433.896	4.02
434.101	3.95
434.306	4.04
434.511	3.98
434.716	3.97
434.921	3.84
435.126	4.05
435.331	4.11
435.535	4.07
435.74	4.14
435.945	4
436.15	3.96
436.355	3.86
436.56	3.8
436.765	3.53
436.97	3.68
437.174	3.75
437.379	3.43
437.584	3.3
437.789	3.27
437.993	3.1
438.198	3.17
438.403	3.02
438.608	2.97
438.812	3.08
439.017	3.38
439.222	3.39
439.426	3.3
439.631	3.41
439.836	3.46
440.04	3.61
440.245	3.78
440.45	3.79
440.654	3.76
440.859	3.82
441.063	3.74
441.268	3.81
441.472	3.61
441.677	3.67
441.881	3.57
442.086	3.39
442.29	3.21
442.495	3.06
442.699	3.16
442.904	3.34
443.108	3.42
443.312	3.35
443.517	3.36
443.721	3.38
443.925	3.48
444.13	3.62
444.334	3.67
444.538	3.8
444.743	3.92
444.947	3.93
445.151	3.96
445.356	3.9
445.56	3.98
445.764	3.89
445.968	4.02
446.173	3.98
446.377	4
446.581	4.19
446.785	4.15
446.989	4.06
447.193	4
447.398	4.02
447.602	4.03
447.806	4.08
448.01	4.05
448.214	3.9
448.418	3.94
448.622	3.82
448.826	3.81
449.03	3.83
449.234	3.88
449.438	3.68
449.642	3.49
449.846	3.52
450.05	3.33
450.254	3.35
450.458	3.52
450.662	3.31
450.866	3.35
451.069	3.25
451.273	3.08
451.477	3.17
451.681	3.36
451.885	3.42
452.089	3.36
452.292	3.48
452.496	3.58
452.7	3.55
452.904	3.83
453.107	3.91
453.311	3.91
453.515	3.94
453.719	3.88
453.922	3.99
454.126	3.77
454.33	3.81
454.533	3.71
454.737	3.62
454.94	3.59
455.144	3.7
455.348	3.43
455.551	3.45
455.755	3.57
455.958	3.77
456.162	3.63
456.365	3.96
456.569	4.01
456.772	4.01
456.976	4.05
457.179	4.11
457.383	4.02
457.586	4.21
457.79	4.09
457.993	4.1
458.196	3.94
458.4	4.08
458.603	3.84
458.807	3.74
459.01	3.87
459.213	3.83
459.417	3.82
459.62	3.5
459.823	3.5
460.026	3.48
460.23	3.44
460.433	3.44
460.636	3.36
460.839	3.42
461.042	3.5
461.246	3.29
461.449	3.34
461.652	3.19
461.855	3.36
462.058	3.23
462.261	3.23
462.464	3.13
462.668	3.16
462.871	3.06
463.074	3.02
463.277	3.17
463.48	3.15
463.683	2.99
463.886	3.13
464.089	3.22
464.292	3.29
464.495	3.38
464.698	3.57
464.901	3.46
465.104	3.52
465.306	3.38
465.509	3.08
465.712	3.12
465.915	3.38
466.118	3.28
466.321	3.17
466.524	3.07
466.726	2.92
466.929	2.79
467.132	2.74
467.335	2.89
467.538	3.28
467.74	3.37
467.943	3.47
468.146	3.28
468.348	3.29
468.551	3.48
468.754	3.69
468.956	3.7
469.159	3.74
469.362	3.88
469.564	3.83
469.767	3.69
469.969	3.82
470.172	3.8
470.375	3.82
470.577	4
470.78	3.58
470.982	3.36
471.185	3.43
471.387	3.34
471.59	3.32
471.792	3.36
471.995	3.08
472.197	2.78
472.399	2.79
472.602	2.79
472.804	2.62
473.007	2.8
473.209	2.94
473.411	3.11
473.614	3.13
473.816	2.9
474.018	2.94
474.22	3.12
474.423	3.24
474.625	3.08
474.827	2.96
475.03	3.04
475.232	3.41
475.434	3.48
475.636	3.41
475.838	3.51
476.04	3.6
476.243	3.52
476.445	3.62
476.647	3.63
476.849	3.8
477.051	3.84
477.253	3.57
477.455	3.38
477.657	3.38
477.859	3.15
478.061	2.98
478.263	2.93
478.465	2.92
478.667	2.74
478.869	2.63
479.071	2.68
479.273	2.78
479.475	3.02
479.677	3.17
479.879	3.16
480.081	3.42
480.283	3.55
480.485	3.72
480.686	3.76
480.888	3.82
481.09	3.89
481.292	3.73
481.494	3.59
481.695	3.61
481.897	3.45
482.099	3.5
482.301	3.43
482.502	3.51
482.704	3.4
482.906	3.42
483.107	3.42
483.309	3.41
483.511	3.47
483.712	3.55
483.914	3.5
484.115	3.48
484.317	3.48
484.519	3.44
484.72	3.37
484.922	3.41
485.123	3.32
485.325	3.34
485.526	3.39
485.728	3.37
485.929	3.31
486.131	3.38
486.332	3.35
486.534	3.25
486.735	3.24
486.936	3.3
487.138	3.26
487.339	3.38
487.541	3.26
487.742	3.22
487.943	3.27
488.144	3.3
488.346	3.26
488.547	3.23
488.748	3.27
488.95	3.29
489.151	3.25
489.352	3.16
489.553	3.07
489.755	3.23
489.956	3.36
490.157	3.32
490.358	3.26
490.559	3.24
490.76	3.36
490.961	3.4
491.163	3.4
491.364	3.39
491.565	3.46
491.766	3.5
491.967	3.38
492.168	3.26
492.369	3.16
492.57	3.07
492.771	3.13
492.972	3.1
493.173	3.09
493.374	3.08
493.575	3.05
493.776	3.12
493.976	3.08
494.177	3.19
494.378	3.22
494.579	3.36
494.78	3.54
494.981	3.59
495.182	3.49
495.382	3.45
495.583	3.49
495.784	3.5
495.985	3.55
496.185	3.46
496.386	3.42
496.587	3.36
496.788	3.51
496.988	3.62
497.189	3.55
497.39	3.79
497.59	3.82
497.791	3.79
497.992	3.84
498.192	3.74
498.393	3.76
498.593	3.72
498.794	3.82
498.994	3.67
499.195	3.57
499.395	3.66
499.596	3.63
499.796	3.67
499.997	3.75
500.197	3.6
500.398	3.56
500.598	3.7
500.799	3.75
500.999	3.59
501.199	3.79
501.4	3.78
501.6	3.7
501.801	3.55
502.001	3.6
502.201	3.77
502.402	3.86
502.602	3.95
502.802	3.84
503.002	3.94
503.203	3.89
503.403	3.75
503.603	3.75
503.803	3.66
504.003	3.55
504.204	3.45
504.404	3.18
504.604	3.16
504.804	3.02
505.004	3.05
505.204	3.03
505.404	3.17
505.604	3.26
505.804	3.09
506.005	3.17
506.205	3.41
506.405	3.43
506.605	3.43
506.805	3.73
507.005	3.74
507.204	3.83
507.404	3.67
507.604	3.66
507.804	3.51
508.004	3.73
508.204	3.67
508.404	3.58
508.604	3.48
508.804	3.6
509.003	3.42
509.203	3.58
509.403	3.54
509.603	3.69
509.803	3.63
510.002	3.77
510.202	3.64
510.402	3.71
510.602	3.62
510.801	3.71
511.001	3.65
511.201	3.86
511.4	3.76
511.6	3.8
511.8	3.7
511.999	3.77
512.199	3.71
512.398	3.71
512.598	3.74
512.797	3.8
512.997	3.94
513.197	3.86
513.396	3.66
513.596	3.67
513.795	3.66
513.994	3.79
514.194	3.84
514.393	3.89
514.593	4.08
514.792	3.99
514.992	4.04
515.191	3.9
515.39	4.08
515.59	4.1
515.789	4.12
515.988	4.02
516.188	3.95
516.387	3.86
516.586	3.86
516.786	3.72
516.985	3.83
517.184	3.95
517.383	3.86
517.582	3.96
517.782	4.04
517.981	4.11
518.18	4.21
518.379	4.3
518.578	4.37
518.777	4.36
518.976	4.44
519.176	4.43
519.375	4.42
519.574	4.41
519.773	4.35
519.972	4.26
520.171	4.23
520.37	4.2
520.569	4.06
520.768	4.01
520.967	4.19
521.166	4.14
521.365	3.99
521.564	3.95
521.762	4.01
521.961	3.89
522.16	3.97
522.359	4.04
522.558	3.99
522.757	4.07
522.956	4.06
523.154	3.9
523.353	4.06
523.552	4.18
523.751	4.11
523.949	4.3
524.148	4.48
524.347	4.62
524.546	4.56
524.744	4.72
524.943	4.8
525.142	4.94
525.34	4.95
525.539	4.89
525.737	4.87
525.936	4.9
526.135	4.81
526.333	4.81
526.532	4.79
526.73	4.75
526.929	4.74
527.127	4.69
527.326	4.68
527.524	4.59
527.723	4.61
527.921	4.72
528.12	4.6
528.318	4.63
528.516	4.64
528.715	4.66
528.913	4.7
529.112	4.73
529.31	4.79
529.508	4.74
529.707	4.83
529.905	4.84
530.103	4.83
530.301	4.89
530.5	4.96
530.698	4.95
530.896	4.92
531.094	5.05
531.293	5.01
531.491	4.97
531.689	5.03
531.887	5.08
532.085	5.09
532.283	5.09
532.481	5.22
532.68	5.23
532.878	5.33
533.076	5.31
533.274	5.31
533.472	5.36
533.67	5.43
533.868	5.49
534.066	5.46
534.264	5.48
534.462	5.54
534.66	5.51
534.858	5.51
535.056	5.43
535.253	5.43
535.451	5.37
535.649	5.44
535.847	5.42
536.045	5.41
536.243	5.44
536.441	5.37
536.638	5.26
536.836	5.39
537.034	5.41
537.232	5.35
537.43	5.63
537.627	5.6
537.825	5.54
538.023	5.64
538.22	5.71
538.418	5.84
538.616	6.02
538.813	6.16
539.011	6.19
539.209	6.24
539.406	6.36
539.604	6.07
539.801	6.22
539.999	6.23
540.196	6.1
540.394	6.1
540.591	6.15
540.789	6.25
540.986	6.31
541.184	6.27
541.381	6.26
541.579	6.33
541.776	6.48
541.974	6.47
542.171	6.48
542.368	6.56
542.566	6.66
542.763	6.61
542.96	6.5
543.158	6.5
543.355	6.61
543.552	6.7
543.75	6.83
543.947	6.77
544.144	6.77
544.341	6.79
544.539	6.74
544.736	6.67
544.933	6.75
545.13	6.97
545.327	6.98
545.524	6.91
545.722	6.92
545.919	6.88
546.116	7.02
546.313	7.15
546.51	7.31
546.707	7.33
546.904	7.22
547.101	7.25
547.298	7.19
547.495	7.29
547.692	7.36
547.889	7.4
548.086	7.52
548.283	7.6
548.48	7.57
548.677	7.57
548.874	7.93
549.07	8.22
549.267	8.21
549.464	8.41
549.661	8.4
549.858	8.61
550.055	8.69
550.251	8.47
550.448	8.37
550.645	8.43
550.842	8.26
551.038	7.93
551.235	7.84
551.432	8.01
551.628	7.79
551.825	7.59
552.022	7.54
552.218	7.47
552.415	7.66
552.612	7.65
552.808	7.87
553.005	8.02
553.201	8.24
553.398	8.27
553.594	8.15
553.791	8.24
553.987	8.56
554.184	8.5
554.38	8.58
554.577	8.57
554.773	8.7
554.97	8.59
555.166	8.81
555.362	8.74
555.559	8.84
555.755	8.98
555.952	9.17
556.148	9.14
556.344	9.27
556.541	9.44
556.737	9.67
556.933	9.69
557.129	9.68
557.326	9.62
557.522	9.48
557.718	9.61
557.914	9.74
558.11	9.89
558.307	10.13
558.503	10.07
558.699	10.07
558.895	9.78
559.091	9.81
559.287	9.87
559.483	9.85
559.679	10.15
559.876	10.16
560.072	10.14
560.268	9.85
560.464	9.61
560.66	9.83
560.856	9.83
561.052	9.91
561.247	10.06
561.443	10.17
561.639	10.31
561.835	10.39
562.031	10.38
562.227	10.37
562.423	10.48
562.619	10.75
562.815	10.96
563.01	11.02
563.206	11.14
563.402	11.15
563.598	11.02
563.793	11.09
563.989	11.24
564.185	11.34
564.381	11.42
564.576	11.54
564.772	11.48
564.968	11.38
565.163	11.4
565.359	11.48
565.555	11.49
565.75	11.72
565.946	11.73
566.141	11.73
566.337	11.58
566.532	11.63
566.728	11.72
566.923	11.67
567.119	11.71
567.314	11.78
567.51	11.67
567.705	11.6
567.901	11.7
568.096	11.78
568.292	11.6
568.487	11.65
568.682	11.58
568.878	11.56
569.073	11.67
569.268	11.71
569.464	11.76
569.659	12.01
569.854	12.23
570.05	12.12
570.245	11.82
570.44	11.91
570.635	12.02
570.831	12.07
571.026	12.12
571.221	12.12
571.416	12.05
571.611	12.13
571.806	12.03
572.002	11.98
572.197	12.17
572.392	12.29
572.587	12.37
572.782	12.48
572.977	12.6
573.172	12.67
573.367	12.66
573.562	12.68
573.757	12.49
573.952	12.59
574.147	12.73
574.342	12.67
574.537	12.84
574.732	12.9
574.927	12.7
575.121	12.65
575.316	12.67
575.511	12.8
575.706	13.03
575.901	13.21
576.096	13.21
576.29	12.98
576.485	12.94
576.68	13.06
576.875	13.2
577.069	13.48
577.264	13.28
577.459	13.24
577.654	13.27
577.848	13.12
578.043	13.1
578.238	13.4
578.432	13.44
578.627	13.42
578.821	13.29
579.016	13.37
579.21	13.28
579.405	13.56
579.6	13.85
579.794	14
579.989	14.22
580.183	14.57
580.378	14.53
580.572	14.75
580.766	14.91
580.961	14.89
581.155	14.42
581.35	14.55
581.544	14.74
581.738	14.7
581.933	14.68
582.127	14.48
582.321	14.31
582.516	14.1
582.71	14.09
582.904	13.87
583.099	13.83
583.293	14.18
583.487	14.11
583.681	14.05
583.875	13.88
584.07	13.82
584.264	14.04
584.458	14.07
584.652	14.15
584.846	14.08
585.04	14.19
585.234	14.22
585.428	14.45
585.623	14.72
585.817	14.69
586.011	14.85
586.205	14.83
586.399	14.4
586.593	14.38
586.787	14.36
586.981	14.5
587.174	14.85
587.368	14.81
587.562	14.89
587.756	14.83
587.95	14.94
588.144	14.72
588.338	14.61
588.532	14.98
588.725	15.05
588.919	15.07
589.113	15.2
589.307	15.06
589.501	15.15
589.694	14.93
589.888	14.99
590.082	15.35
590.275	15.2
590.469	15.25
590.663	15.14
590.856	15.06
591.05	15.08
591.244	14.82
591.437	14.85
591.631	14.82
591.824	14.76
592.018	14.54
592.212	14.05
592.405	14.34
592.599	14.62
592.792	14.68
592.986	14.66
593.179	14.64
593.372	14.83
593.566	14.76
593.759	14.9
593.953	15.08
594.146	14.99
594.339	15.14
594.533	15.11
594.726	15.1
594.92	15.19
595.113	15.13
595.306	15.14
595.499	15.06
595.693	15.04
595.886	15.16
596.079	14.92
596.272	15.1
596.466	15.1
596.659	15.3
596.852	15.22
597.045	15.26
597.238	15.28
597.431	15.27
597.624	15.38
597.818	15.46
598.011	15.39
598.204	15.61
598.397	15.69
598.59	15.76
598.783	15.71
598.976	15.66
599.169	15.56
599.362	15.8
599.555	15.78
599.748	15.62
599.941	15.45
600.134	15.52
600.326	15.48
600.519	15.67
600.712	15.48
600.905	15.45
601.098	15.47
601.291	15.33
601.483	15.07
601.676	15.24
601.869	15.36
602.062	15.51
602.255	15.31
602.447	15.47
602.64	15.11
602.833	15.44
603.025	15.47
603.218	15.48
603.411	15.66
603.603	15.76
603.796	15.63
603.989	15.77
604.181	15.88
604.374	15.9
604.566	15.73
604.759	15.65
604.951	15.69
605.144	15.66
605.336	15.61
605.529	15.74
605.721	15.65
605.914	15.89
606.106	15.93
606.299	16.01
606.491	16.01
606.683	16.18
606.876	16.37
607.068	16.19
607.26	16.35
607.453	16.63
607.645	16.39
607.837	16.63
608.03	16.57
608.222	16.28
608.414	16.12
608.606	16.26
608.799	16.24
608.991	16.23
609.183	16.26
609.375	16.15
609.567	16
609.759	15.93
609.952	15.84
610.144	15.72
610.336	15.81
610.528	15.94
610.72	16.04
610.912	16
611.104	16.01
611.296	16.03
611.488	16.11
611.68	16.13
611.872	16.34
612.064	16.27
612.256	16.4
612.448	16.35
612.64	16.05
612.832	15.73
613.023	15.69
613.215	15.93
613.407	15.75
613.599	15.7
613.791	15.44
613.983	15.37
614.174	15.66
614.366	15.58
614.558	15.72
614.75	15.92
614.941	16.16
615.133	15.96
615.325	15.73
615.516	15.6
615.708	15.84
615.9	16.35
616.091	16.65
616.283	16.53
616.475	16.22
616.666	15.94
616.858	16.06
617.049	16.35
617.241	16.54
617.432	16.65
617.624	17.03
617.815	16.61
618.007	16.35
618.198	16.21
618.39	15.88
618.581	16.35
618.773	16.48
618.964	16.41
619.155	16.31
619.347	16.25
619.538	16.37
619.729	16.31
619.921	16.54
620.112	16.78
620.303	16.86
620.494	17.41
620.686	17.45
620.877	17.42
621.068	17.36
621.259	17.28
621.451	17.32
621.642	17.08
621.833	17.15
622.024	17
622.215	17.12
622.406	16.9
622.597	16.61
622.788	16.5
622.98	16.56
623.171	16.77
623.362	16.6
623.553	16.51
623.744	16.88
623.935	16.89
624.126	16.91
624.317	16.79
624.508	16.83
624.698	17.02
624.889	17.45
625.08	17.56
625.271	17.36
625.462	17.61
625.653	17.8
625.844	17.57
626.034	17.56
626.225	17.72
626.416	17.53
626.607	17.58
626.798	17.42
626.988	17.13
627.179	17.21
627.37	17.59
627.56	17.82
627.751	17.91
627.942	18.11
628.132	17.95
628.323	17.86
628.514	17.81
628.704	17.93
628.895	18.14
629.085	18.21
629.276	17.85
629.466	17.55
629.657	17.35
629.847	17.28
630.038	17.1
630.228	17.53
630.419	17.7
630.609	17.99
630.8	17.9
630.99	17.73
631.181	17.57
631.371	18.04
631.561	18.07
631.752	18.38
631.942	18.42
632.132	18.92
632.323	18.55
632.513	18.29
632.703	18.41
632.893	18.53
633.084	18.72
633.274	18.9
633.464	19.12
633.654	19.26
633.844	19.02
634.034	19.05
634.225	18.72
634.415	18.76
634.605	18.81
634.795	18.54
634.985	18.3
635.175	17.99
635.365	17.96
635.555	17.74
635.745	17.56
635.935	17.52
636.125	17.28
636.315	17.19
636.505	16.83
636.695	17.24
636.885	17.02
637.075	17.2
637.265	17.47
637.455	17.29
637.644	17.37
637.834	17.21
638.024	17.05
638.214	17.03
638.404	17.18
638.593	17.99
638.783	18.06
638.973	18.35
639.163	18.43
639.352	18.62
639.542	18.91
639.732	18.79
639.921	18.98
640.111	18.49
640.301	18.34
640.49	18.2
640.68	18.03
640.87	17.54
641.059	17.79
641.249	18.07
641.438	17.95
641.628	18.24
641.817	18.18
642.007	18.28
642.196	18.65
642.386	19.11
642.575	19.11
642.764	19.02
642.954	19.26
643.143	19.12
643.333	18.75
643.522	18.93
643.711	18.44
643.901	18.82
644.09	18.66
644.279	18.97
644.469	18.86
644.658	18.77
644.847	19.02
645.036	18.58
645.226	19.06
645.415	18.88
645.604	18.79
645.793	19.25
645.982	18.71
646.171	18.67
646.361	18.95
646.55	18.89
646.739	19.09
646.928	19.3
647.117	19.42
647.306	18.49
647.495	18.62
647.684	18.54
647.873	18.33
648.062	18.43
648.251	18.65
648.44	18.28
648.629	18.6
648.818	18.58
649.007	18.36
649.196	18.49
649.384	18.93
649.573	18.89
649.762	18.8
649.951	18.84
650.14	19.59
650.328	19.21
650.517	19.1
650.706	19.3
650.895	19.24
651.083	19.1
651.272	19.25
651.461	19.18
651.65	19.37
651.838	19.31
652.027	19.32
652.216	18.73
652.404	18.96
652.593	19.31
652.781	18.9
652.97	19.25
653.158	19.05
653.347	19.25
653.535	19.46
653.724	19.76
653.912	19.79
654.101	19.62
654.289	19.87
654.478	19.84
654.666	19.33
654.855	19.67
655.043	19.6
655.231	19.48
655.42	19.12
655.608	18.73
655.796	18.35
655.985	18.43
656.173	18.65
656.361	18.5
656.55	18.71
656.738	19.28
656.926	18.99
657.114	18.82
657.302	19.13
657.491	19.54
657.679	19.73
657.867	19.91
658.055	20.04
658.243	19.95
658.431	19.87
658.619	19.72
658.807	19.61
658.996	19.74
659.184	19.78
659.372	19.62
659.56	19.45
659.748	19.61
659.936	19.22
660.124	19.32
660.311	19.33
660.499	19.49
660.687	19.72
660.875	19.65
661.063	19.35
661.251	19.36
661.439	19.85
661.627	19.82
661.814	19.5
662.002	20.15
662.19	19.91
662.378	19.57
662.565	19.73
662.753	19.76
662.941	19.82
663.129	20.04
663.316	20.14
663.504	19.33
663.692	19.13
663.879	19.64
664.067	19.35
664.254	19.58
664.442	20.26
664.63	19.57
664.817	19.53
665.005	19.33
665.192	19.05
665.38	18.93
665.567	19.29
665.755	19.14
665.942	18.91
666.13	18.53
666.317	18.54
666.504	18.22
666.692	18.3
666.879	18.14
667.067	18.37
667.254	18.48
667.441	18.78
667.629	18.34
667.816	18.49
668.003	18.9
668.19	19.28
668.378	19.22
668.565	19.33
668.752	19.45
668.939	19.35
669.127	18.81
669.314	18.81
669.501	18.84
669.688	18.96
669.875	19.15
670.062	19.06
670.249	19.07
670.436	18.71
670.623	18.78
670.81	19.04
670.997	19.22
671.184	19.69
671.371	20.17
671.558	19.24
671.745	19.61
671.932	19.64
672.119	19.26
672.306	19.31
672.493	19.33
672.68	19.06
672.867	19.32
673.054	19.72
673.24	19.92
673.427	19.27
673.614	19.62
673.801	19.39
673.988	19.24
674.174	19.18
674.361	19.18
674.548	19.4
674.734	20.13
674.921	19.75
675.108	19.46
675.294	19.31
675.481	19.92
675.668	20.64
675.854	21.23
676.041	21.31
676.227	21.88
676.414	21.46
676.601	21.26
676.787	20.74
676.974	20.76
677.16	20.62
677.347	20.65
677.533	20.59
677.719	20.18
677.906	20
678.092	20.51
678.279	19.57
678.465	19.74
678.651	19.96
678.838	20.13
679.024	20.17
679.21	20.57
679.397	20.52
679.583	20.56
679.769	20.39
679.955	20.21
680.142	19.89
680.328	20.2
680.514	20.23
680.7	20.3
680.886	20.4
681.073	20.11
681.259	19.61
681.445	19.63
681.631	20.1
681.817	20.62
682.003	20.56
682.189	20.41
682.375	20.72
682.561	21.24
682.747	21.25
682.933	21.01
683.119	20.55
683.305	20.99
683.491	20.86
683.677	19.95
683.863	19.49
684.049	19.8
684.235	20.2
684.42	20.24
684.606	20.07
684.792	20.5
684.978	20.18
685.164	21.13
685.349	20.88
685.535	20.93
685.721	21.35
685.907	20.86
686.092	20.71
686.278	20.87
686.464	20.55
686.649	20.49
686.835	19.97
687.021	20.28
687.206	20.25
687.392	20.53
687.577	20.45
687.763	20.49
687.948	21.64
688.134	21.73
688.319	21.64
688.505	22.45
688.69	22.51
688.876	22.62
689.061	22.65
689.247	22.81
689.432	22.64
689.618	22.32
689.803	22.27
689.988	22.3
690.174	22.56
690.359	22.77
690.544	22.13
690.73	22.51
690.915	22.59
691.1	22.48
691.285	22.33
691.471	21.53
691.656	21.81
691.841	21.86
692.026	21.16
692.211	20.92
692.396	20.57
692.582	20.69
692.767	20.03
692.952	20.4
693.137	20.74
693.322	20.55
693.507	21.4
693.692	22.01
693.877	22.59
694.062	23.07
694.247	23.03
694.432	22.93
694.617	22.7
694.802	23.36
694.987	22.9
695.172	23.21
695.357	23.25
695.541	23.2
695.726	22.75
695.911	22.41
696.096	22.59
696.281	22.63
696.466	21.89
696.65	21.68
696.835	20.99
697.02	21.64
697.204	21.18
697.389	21.34
697.574	21.27
697.759	21.35
697.943	20.72
698.128	20.96
698.312	20.73
698.497	21.09
698.682	21.22
698.866	21.03
699.051	20.47
699.235	20.55
699.42	20.69
699.604	20.66
699.789	20.97
699.973	21.38
700.158	20.32
700.342	20.31
700.527	20.84
700.711	21.39
700.895	21.76
701.08	21.87
701.264	21.47
701.448	21.45
701.633	21.23
701.817	20.71
702.001	20.6
702.186	20.97
702.37	20.97
702.554	19.95
702.738	18.86
702.923	18.65
703.107	19.3
703.291	19.32
703.475	19.2
703.659	19.96
703.843	20.21
704.027	19.75
704.212	19.54
704.396	19.85
704.58	20.56
704.764	20.61
704.948	20.86
705.132	20.78
705.316	21.48
705.5	22.07
705.684	21.85
705.868	21.53
706.052	21.51
706.235	21.89
706.419	22.26
706.603	22.53
706.787	23.61
706.971	23.53
707.155	22.47
707.339	22.33
707.522	21.4
707.706	21.07
707.89	21.12
708.074	22.14
708.257	22.34
708.441	21.98
708.625	21.35
708.808	20.5
708.992	20.41
709.176	21.6
709.359	21.29
709.543	21.46
709.727	22.1
709.91	22.07
710.094	21.59
710.277	21.26
710.461	21.38
710.644	21.39
710.828	21.37
711.011	21.57
711.195	21.24
711.378	21.05
711.562	21.02
711.745	21.15
711.928	21.5
712.112	21.04
712.295	21.24
712.478	22.2
712.662	22.17
712.845	22.09
713.028	21.58
713.212	22.36
713.395	22.84
713.578	23.98
713.761	23.71
713.945	23.63
714.128	24.69
714.311	25.17
714.494	24.18
714.677	24.08
714.86	24.29
715.043	25.06
715.227	23.98
715.41	23.38
715.593	22.99
715.776	23.2
715.959	23.57
716.142	23.02
716.325	22.06
716.508	21.6
716.691	22.62
716.874	23.34
717.057	22.73
717.239	23.49
717.422	24.23
717.605	23.93
717.788	24.13
717.971	23.54
718.154	23.77
718.337	24.94
718.519	25.4
718.702	24.87
718.885	23.83
719.068	24.23
719.25	23.98
719.433	24.14
719.616	23.53
719.798	22.69
719.981	21.66
720.164	21.45
720.346	20.55
720.529	20.42
720.712	19.81
720.894	20.74
721.077	20.55
721.259	19.48
721.442	18.05
721.624	18.49
721.807	18.81
721.989	19.78
722.172	19.59
722.354	20.91
722.537	21.16
722.719	21.4
722.901	20.05
723.084	20.58
723.266	21.12
723.448	22.99
723.631	22.89
723.813	23.36
723.995	23.22
724.178	22.62
724.36	20.77
724.542	21.23
724.724	22.12
724.907	22.45
725.089	22.98
725.271	22.41
725.453	21.78
725.635	21.23
725.817	20.06
725.999	20.68
726.181	21.62
726.364	23.31
726.546	22.83
726.728	22.75
726.91	23.19
727.092	21.75
727.274	23.36
727.456	22.74
727.638	23.45
727.819	23.87
728.001	25.08
728.183	24.77
728.365	24.03
728.547	23.79
728.729	23.1
728.911	24.46
729.093	24.92
729.274	23.84
729.456	23.28
729.638	23.93
729.82	23.92
730.001	22.22
730.183	23.1
730.365	23.99
730.546	24.72
730.728	24.75
730.91	23.13
731.091	23.36
731.273	23.8
731.455	24.8
731.636	23.65
731.818	24.92
731.999	25.59
732.181	25.37
732.362	25.18
732.544	25.3
732.725	25.2
732.907	24.69
733.088	24.32
733.27	23.53
733.451	23.16
733.633	24.14
733.814	23.25
733.995	22.75
734.177	22.31
734.358	22.25
734.539	22.27
734.721	22.23
734.902	22.56
735.083	22.28
735.264	22.62
735.446	21.38
735.627	21.04
735.808	20.5
735.989	20.5
736.17	20.65
736.351	19.76
736.533	19.16
736.714	18.62
736.895	19.57
737.076	19.94
737.257	20.8
737.438	22.88
737.619	22.99
737.8	23.72
737.981	23.96
738.162	23.59
738.343	24.11
738.524	22.92
738.705	22.94
738.886	21.57
739.067	21.33
739.247	21.67
739.428	20.98
739.609	20.06
739.79	20.49
739.971	21.25
740.151	21.42
740.332	21.19
740.513	22.13
740.694	22.88
740.874	24.63
741.055	24.66
741.236	24.59
741.417	24.21
741.597	24.11
741.778	22.19
741.958	21.49
742.139	21.07
742.32	21.26
742.5	22.2
742.681	22.24
742.861	21.52
743.042	20.48
743.222	19.05
743.403	20.14
743.583	21.41
743.764	23.22
743.944	22.8
744.124	23.82
744.305	23.79
744.485	24.05
744.666	24.32
744.846	24.37
745.026	25.47
745.207	25.92
745.387	25.43
745.567	24.87
745.747	24.46
745.928	24.06
746.108	24.05
746.288	24.92
746.468	23.96
746.648	23.34
746.829	21.63
747.009	22.24
747.189	22.95
747.369	24
747.549	23.87
747.729	21.76
747.909	22.74
748.089	23.2
748.269	21.32
748.449	22.83
748.629	22.35
748.809	23.83
748.989	24.24
749.169	21.52
749.349	21.09
749.529	20.89
749.709	22.87
749.889	22.85
750.068	22.6
750.248	24.39
750.428	23.41
750.608	23.17
750.788	22.23
750.967	21.51
751.147	23.54
751.327	24.15
751.507	24.48
751.686	24.29
751.866	22.97
752.046	22.89
752.225	22.36
752.405	22.14
752.585	22.83
752.764	23.47
752.944	23.17
753.123	24.22
753.303	23.64
753.482	23.72
753.662	24.02
753.841	25.43
754.021	26.33
754.2	25.72
754.38	25.83
754.559	26.43
754.739	25.9
754.918	26.74
755.097	25.11
755.277	24.38
755.456	24.83
755.635	24.33
755.815	24.01
755.994	23.08
756.173	22.63
756.352	21.8
756.532	21.03
756.711	22.84
756.89	24
757.069	23.67
757.248	22.59
757.427	22.46
757.607	22.41
757.786	23.33
757.965	22.58
758.144	24.02
758.323	24.2
758.502	24.36
758.681	24.02
758.86	22.01
759.039	22.47
759.218	23.83
759.397	23.13
759.576	23.38
759.755	22.82
759.934	22.38
760.113	21.17
760.291	21.8
760.47	24.12
760.649	23.16
760.828	22.96
761.007	23.87
761.186	23.97
761.364	23.7
761.543	24.34
761.722	23.47
761.901	25
762.079	25.35
762.258	24.93
762.437	23.38
762.615	24.1
762.794	25.25
762.972	24.17
763.151	25.06
763.33	24.93
763.508	24.71
763.687	24.67
763.865	23.57
764.044	23.2
764.222	23.91
764.401	23.34
764.579	22.45
764.758	21.75
764.936	22.65
765.114	22.71
765.293	22.86
765.471	22.21
765.65	23.5
765.828	24.71
766.006	26.44
766.184	25.21
766.363	26.11
766.541	26.53
766.719	26.89
766.898	27.4
767.076	26.5
767.254	27.64
767.432	26.96
767.61	27.14
767.788	26.7
767.967	24.18
768.145	25.48
768.323	24.16
768.501	25.5
768.679	25.94
768.857	24.52
769.035	24.18
769.213	22.92
769.391	24.42
769.569	23.24
769.747	23.19
769.925	21.3
770.103	20.09
770.281	20.87
770.459	20.56
770.636	17.9
770.814	17.98
770.992	19.53
771.17	20.81
771.348	19.59
771.525	17.99
771.703	17.1
771.881	20.5
772.059	21.14
772.236	23.07
772.414	23.53
772.592	26.7
772.769	25.95
772.947	24.05
773.125	24.71
773.302	25.81
773.48	26.11
773.657	26.63
773.835	26.75
774.013	29.34
774.19	28.58
774.368	27.49
774.545	27.5
774.723	27.23
774.9	28.44
775.077	28.07
775.255	28.33
775.432	28.99
775.61	28.94
775.787	28.25
775.964	28.36
776.142	28.08
776.319	28.59
776.496	26.78
776.674	27.64
776.851	25.96
777.028	25.29
777.205	22.72
777.382	23.22
777.56	22.1
777.737	23.23
777.914	17.42
778.091	15.98
778.268	16.01
778.445	19.51
778.622	19.75
778.8	21.21
778.977	23.32
779.154	25.11
779.331	25.76
779.508	25.28
779.685	26.06
779.862	29.9
780.038	28.66
780.215	28.69
780.392	26.64
780.569	29.09
780.746	29.75
780.923	26.22
781.1	26.68
781.277	24.04
781.453	24.85
781.63	24.08
781.807	24.25
781.984	25.59
782.16	25.88
782.337	26.81
782.514	22.41
782.691	23.33
782.867	23.84
783.044	24.03
783.221	26.84
783.397	27.23
783.574	27.23
783.75	25.5
783.927	26.63
784.103	25.36
784.28	24.71
784.456	27.74
784.633	24.43
784.809	25.28
784.986	25.91
785.162	23.17
785.339	22.71
785.515	21.31
785.692	22.56
785.868	20.08
786.044	18.97
786.221	19.89
786.397	17.97
786.573	19.54
786.749	17.95
786.926	18.75
787.102	21.27
787.278	24.26
787.454	26.12
787.631	28.83
787.807	29.32
787.983	29.97
788.159	27.27
788.335	28.41
788.511	25.86
788.687	24.93
788.863	25.18
789.039	28.33
789.216	23.8
789.392	24.68
789.568	21.34
789.744	23.89
789.919	24.41
790.095	26.76
790.271	27.77
790.447	28.63
790.623	31.05
790.799	29
790.975	24.2
791.151	28.63
791.327	26.59
791.502	29.09
791.678	27.66
791.854	29.56
792.03	28.28
792.205	25.16
792.381	24.41
792.557	23.1
792.733	24.59
792.908	22.44
793.084	21.25
793.259	21.84
793.435	20.85
793.611	23.99
793.786	21.78
793.962	22.3
794.137	24.04
794.313	27.42
794.488	27.61
794.664	29.74
794.839	32.47
795.015	34.02
795.19	33.63
795.366	32.68
795.541	27.1
795.716	27.92
795.892	28.81
796.067	28.84
796.242	26.27
796.418	26.09
796.593	24.9
796.768	24.69
796.944	24.49
797.119	24.52
797.294	22.94
797.469	24.94
797.644	26.24
797.82	26.73
797.995	26.41
798.17	26.33
798.345	27.91
798.52	25.94
798.695	25.06
798.87	22.43
799.045	23.8
799.22	24.73
799.395	25.58
799.57	24.62
799.745	24.36
799.92	25.84
800.095	28.37
800.27	27.61
800.445	29.67
800.62	27.68
800.795	25.9
800.97	22.74
801.145	22.36
801.319	19.59
801.494	20.25
801.669	16.3
801.844	13.71
802.018	14.17
802.193	13.53
802.368	8.73
802.543	15.15
802.717	20.4
802.892	22.17
803.067	23.72
803.241	25.12
803.416	23.91
803.59	26.26
803.765	31.2
803.94	29.74
804.114	31.29
804.289	34.76
804.463	31.34
804.638	29.15
804.812	29.71
804.986	30.54
805.161	32.33
805.335	33.77
805.51	32.66
805.684	26.24
805.858	25.93
806.033	23.56
806.207	19.84
806.381	20.67
806.556	23.03
806.73	21.14
806.904	20.05
807.078	20.93
807.253	21.81
807.427	21.39
807.601	24.48
807.775	26.83
807.949	26.83
808.123	28.04
808.298	32.62
808.472	28.56
808.646	31.13
808.82	30.74
808.994	27.01
809.168	21.85
809.342	24.84
809.516	25.17
809.69	24.49
809.864	22.81
810.038	28.77
810.212	29.91
810.385	38.44
810.559	36.27
810.733	37.55
810.907	35.96
811.081	36.87
811.255	34.84
811.428	35.92
811.602	36.59
811.776	39.76
811.95	38.65
812.123	32.59
812.297	27.92
812.471	27.13
812.644	25.09
812.818	28.46
812.992	32.53
813.165	34.29
813.339	35.06
813.512	37.31
813.686	40.29
813.86	37.55
814.033	40.18
814.207	38.44
814.38	40.66
814.554	42.2
814.727	48.19
814.9	50.64
815.074	53.24
815.247	50.98
815.421	48.6
815.594	43.07
815.767	39
815.941	36.37
816.114	37.5
816.287	41
816.46	36.35
816.634	34.84
816.807	30.32
816.98	32.68
817.153	32.72
817.327	30.83
817.5	34.7
817.673	36.61
817.846	37.93
818.019	36.51
818.192	38.89
818.365	45.41
818.538	44.55
818.711	44.74
818.884	39.17
819.057	40.25
819.23	43.44
819.403	43.83
819.576	42.1
819.749	40.68
819.922	37.6
820.095	31.09
820.268	26.85
820.441	25.13
820.614	25.91
820.786	26.34
820.959	26.87
821.132	23.82
821.305	23.99
821.477	25.4
821.65	25.47
821.823	27.04
821.996	28
822.168	28.83
822.341	28.54
822.514	28.32
822.686	28.57
822.859	28.39
823.031	29.06
823.204	28.34
823.376	28.14
823.549	28.02
823.722	27.92
823.894	28.18
824.067	27.92
824.239	28.29
824.411	27.91
824.584	27.34
824.756	26.19
824.929	25.25
825.101	25.96
825.273	25.63
825.446	26.6
825.618	26.83
825.79	26.91
825.963	27.43
826.135	26.48
826.307	25.82
826.479	25.56
826.652	26.07
826.824	27.4
826.996	27.51
827.168	28.12
827.34	26.75
827.512	26.03
827.684	24.61
827.856	24.06
828.029	24.91
828.201	25.03
828.373	26.06
828.545	25.44
828.717	24.18
828.889	24.57
829.061	25.02
829.232	24.02
829.404	25.72
829.576	27.17
829.748	28.05
829.92	27.96
830.092	28.29
830.264	27.79
830.436	31.94
830.607	32.57
830.779	33.68
830.951	30.82
831.123	34.78
831.294	31.45
831.466	28.28
831.638	26.82
831.809	29.09
831.981	35
832.153	30.09
832.324	24.79
832.496	26.13
832.667	16.42
832.839	12.94
833.011	11.41
833.182	17.88
833.354	24
833.525	26.36
833.697	26.99
833.868	25.82
834.039	25.46
834.211	28.27
834.382	28.21
834.554	32.87
834.725	33.9
834.896	35.53
835.068	33.81
835.239	33.39
835.41	31.85
835.581	28.96
835.753	30.23
835.924	33.41
836.095	33.7
836.266	33.89
836.438	33.31
836.609	35.19
836.78	35.27
836.951	33.25
837.122	32.45
837.293	34.99
837.464	33.54
837.635	28.5
837.806	31.74
837.977	34.21
838.148	35.93
838.319	32.21
838.49	39.27
838.661	33.14
838.832	43.71
839.003	42.78
839.174	40.38
839.345	49.42
839.516	46.83
839.687	45.78
839.857	38.45
840.028	37.29
840.199	44.76
840.37	39.93
840.54	53.51
840.711	45.15
840.882	45.85
841.053	50.2
841.223	48.68
841.394	57.43
841.564	55.69
841.735	62.7
841.906	62.18
842.076	45.09
842.247	47.18
842.417	39.88
842.588	40.95
842.758	44.08
842.929	39.5
843.099	35.83
843.27	36.05
843.44	37.42
843.611	28.65
843.781	37.8
843.951	54.61
844.122	52.1
844.292	46.17
844.462	52.17
844.633	65.83
844.803	67.92
844.973	74.8
845.144	61.82
845.314	67.65
845.484	78.9
845.654	67.34
845.824	70.17
845.995	66.96
846.165	78.42
846.335	80.98
846.505	70.88
846.675	77.35
846.845	72.22
847.015	78.04
847.185	71.2
847.355	77.38
847.525	77.81
847.695	67.11
847.865	73.19
848.035	73.85
848.205	73.84
848.375	70.77
848.545	67.42
848.715	75.05
848.884	74.4
849.054	84.9
849.224	80.8
849.394	85.86
849.564	75.26
849.733	75.34
849.903	75.13
850.073	69.82
850.243	78.41
850.412	75.81
850.582	79.87
850.752	86.56
850.921	81.9
851.091	83.36
851.26	62.98
851.43	78.21
851.599	78.24
851.769	69.68
851.939	68.86
852.108	60.8
852.278	63.51
852.447	48.24
852.616	55.66
852.786	44.38
852.955	52.35
853.125	59.59
853.294	58.94
853.463	56.17
853.633	54.74
853.802	61.09
853.971	58
854.141	66.47
854.31	69.47
854.479	55.75
854.648	63.55
854.818	56.4
854.987	59.63
855.156	64.14
855.325	60.06
855.494	62.53
855.663	51.04
855.832	38.58
856.001	35.79
856.171	35.62
856.34	47.27
856.509	50.39
856.678	62
856.847	59.4
857.016	52.53
857.185	61.03
857.353	68.77
857.522	81.68
857.691	92.15
857.86	109.03
858.029	101.58
858.198	87.47
858.367	78.99
858.535	71.86
858.704	64.45
858.873	79.63
859.042	56.92
859.21	53.4
859.379	50.45
859.548	43.15
859.717	38.93
859.885	40.5
860.054	40.6
860.222	29.71
860.391	23.55
860.56	35.74
860.728	21.32
860.897	31.7
861.065	27.3
861.234	28.95
861.402	34.67
861.571	19.62
861.739	29.47
861.908	51.18
862.076	84.97
862.244	77.17
862.413	51.12
862.581	40.61
862.749	52.41
862.918	59.9
863.086	45.7
863.254	50.37
863.423	61.12
863.591	65.16
863.759	53.01
863.927	38.34
864.096	50.71
864.264	54.35
864.432	78.56
864.6	65.1
864.768	57.6
864.936	66.57
865.104	71.28
865.272	73.12
865.44	64.43
865.608	76.26
865.776	91.46
865.944	99.9
866.112	112.19
866.28	121.41
866.448	141.39
866.616	177.13
866.784	98.39
866.952	69.45
867.12	48.45
867.288	60.1
867.455	60.16
867.623	39.41
867.791	-7.43
867.959	-30.42
868.127	-26.78
868.294	-3.65
868.462	15.21
868.63	47.85
868.797	64.45
868.965	79.85
869.133	85.33
869.3	79.49
869.468	62.08
869.636	60.28
869.803	62.92
869.971	82.74
870.138	73.47
870.306	70.4
870.473	43.99
870.641	33.45
870.808	36.33
870.975	24.24
871.143	13.48
871.31	16.87
871.478	33.49
871.645	38.05
871.812	39.13
871.98	37.6
872.147	21.56
872.314	42.7
872.482	44.49
872.649	37.41
872.816	51.7
872.983	50.44
873.15	64.01
873.318	57
873.485	51
873.652	44.62
873.819	32.21
873.986	65.28
874.153	42.98
874.32	49.24
874.487	51.01
874.654	27.09
874.821	17.58
874.988	-11.47
875.155	-20.59
875.322	-22.03
875.489	-1.55
875.656	7.35
875.823	-11.92
875.99	-19.03
876.157	-35.52
876.324	-22.07
876.49	7.32
876.657	10.23
876.824	9.18
876.991	60.27
877.157	69.57
877.324	62.31
877.491	71.69
877.658	73.23
877.824	81.09
877.991	93.85
878.157	95.29
878.324	108.38
878.491	91.71
878.657	102.15
878.824	76.41
878.99	71.75
879.157	64.6
879.323	67.08
879.49	78.71
879.656	76.02
879.823	71.12
879.989	71.93
880.156	65.77
880.322	74.81
880.488	62.85
880.655	75
880.821	68.11
880.987	61.32
881.154	56.04
881.32	42.8
881.486	40.95
881.652	50.01
881.819	39.17
881.985	38.01
882.151	35.33
882.317	39.85
882.483	37.89
882.649	40.14
882.816	37.9
882.982	41.47
883.148	41.03
883.314	43.15
883.48	39.72
883.646	41.83
883.812	42.3
883.978	43.53
884.144	40.89
884.31	43.07
884.476	43.92
884.642	45.87
884.807	43.44
884.973	44.13
885.139	41.85
885.305	41.97
885.471	40.99
885.637	40.6
885.802	39.84
885.968	42.62
886.134	35.97
886.3	34.06
886.465	34.25
886.631	34.12
886.797	36.61
886.962	41.5
887.128	35.27
887.293	34.11
887.459	34.59
887.625	32.14
887.79	37.51
887.956	53.54
888.121	53.68
888.287	54.32
888.452	53.38
888.618	54.66
888.783	43.94
