Data from 2937813_Reflection_2.txt Node
Date: Wed Jul 15 17:42:17 EDT 2015
User: robert
Spectrometer: USB4E03001
Autoset integration time: false
Trigger mode: 4
Integration Time (sec): 1.000000E-1
Scans to average: 10
Electric dark correction enabled: true
Nonlinearity correction enabled: false
Boxcar width: 5
Stray light correction enabled: false
XAxis mode: Wavelengths
Stop averaging: false
Number of Pixels in Spectrum: 3648
>>>>>Begin Spectral Data<<<<<
177.566	290.65
177.785	4666.67
178.005	96.89
178.225	5.79
178.445	34.77
178.665	7.53
178.885	164.13
179.105	220.49
179.324	591.14
179.544	-232.32
179.764	-72.44
179.984	-40.59
180.204	1014.29
180.423	-324.85
180.643	5665.22
180.863	2176.88
181.083	825.35
181.302	103.97
181.522	194.69
181.742	119.39
181.961	-120.13
182.181	-136.24
182.401	-258.8
182.621	-141.85
182.84	2268.59
183.06	3259.29
183.279	-108.79
183.499	-128.44
183.719	37.68
183.938	2.54
184.158	36.25
184.377	74.86
184.597	60.94
184.816	45.75
185.036	46.97
185.256	39.14
185.475	24.01
185.695	16.15
185.914	16.15
186.134	5.67
186.353	7.33
186.572	2.16
186.792	-1.79
187.011	9.6
187.231	-0.04
187.45	-19.2
187.67	-7.45
187.889	-5.96
188.108	-17.39
188.328	-34.35
188.547	-55.49
188.766	-124.81
188.986	-241.14
189.205	465.4
189.424	181.51
189.644	253.18
189.863	35.15
190.082	184.5
190.302	181.58
190.521	20.48
190.74	71.97
190.959	324.49
191.178	-169.29
191.398	218.13
191.617	56.34
191.836	163.89
192.055	195.1
192.274	112.42
192.494	236.19
192.713	250.54
192.932	159.92
193.151	195.4
193.37	391.11
193.589	118.28
193.808	155.43
194.027	61.52
194.246	10.74
194.465	41.22
194.685	472.15
194.904	-338.51
195.123	822.09
195.342	539.65
195.561	507.25
195.78	-198.3
195.999	-210.03
196.218	248.02
196.436	58.34
196.655	156.28
196.874	235.13
197.093	192.16
197.312	535.56
197.531	308.14
197.75	69.51
197.969	-0.79
198.188	6
198.407	2.99
198.625	-9.56
198.844	-28.88
199.063	5045.83
199.282	310.92
199.501	-1768.66
199.719	-74.26
199.938	-36.8
200.157	-359.14
200.376	128.09
200.594	144.91
200.813	144.43
201.032	110.86
201.251	218.23
201.469	772.83
201.688	1879.21
201.907	-226.83
202.125	212.25
202.344	309.87
202.563	385.13
202.781	225.63
203	175.11
203.218	149.29
203.437	124.4
203.656	142.03
203.874	149.37
204.093	95.84
204.311	80.48
204.53	73.96
204.748	49.18
204.967	26.86
205.185	15.82
205.404	-31.84
205.622	-31.22
205.841	-484.04
206.059	-267.4
206.278	-28.37
206.496	41.08
206.715	-14.51
206.933	-72.54
207.151	-90.19
207.37	-3978.69
207.588	-277.09
207.806	151.23
208.025	84.72
208.243	202.57
208.461	535.84
208.68	887.71
208.898	-485.09
209.116	36.76
209.335	102.46
209.553	119.1
209.771	173.59
209.989	149.51
210.208	146.97
210.426	215.08
210.644	46.77
210.862	76.42
211.081	79.82
211.299	103.12
211.517	182.02
211.735	194.73
211.953	241.31
212.171	262.66
212.39	205.52
212.608	234.01
212.826	207.77
213.044	327.19
213.262	399.03
213.48	246.51
213.698	20700
213.916	20.23
214.134	-30.37
214.352	-513.51
214.57	-295.93
214.788	2708
215.006	-427.24
215.224	221.03
215.442	1204.41
215.66	317.34
215.878	117.25
216.096	120.91
216.314	257.67
216.532	259.53
216.75	207.93
216.968	204.39
217.185	93.3
217.403	101.63
217.621	89.03
217.839	4.18
218.057	-303.97
218.275	49.3
218.492	57.06
218.71	38.95
218.928	73.58
219.146	74.73
219.363	108.82
219.581	97.75
219.799	91.71
220.017	79.32
220.234	82.96
220.452	56.74
220.67	26.63
220.887	-36.19
221.105	-161.75
221.323	-45.56
221.54	-94.43
221.758	289.66
221.976	257.42
222.193	-594.52
222.411	286.79
222.629	238.77
222.846	1012.97
223.064	346.6
223.281	292.37
223.499	244.13
223.716	204.41
223.934	218.45
224.151	1231.61
224.369	3295.04
224.586	903.38
224.804	-283.7
225.021	21.06
225.239	227.28
225.456	205.08
225.674	153.12
225.891	108.4
226.108	112.79
226.326	96.1
226.543	94.87
226.76	73.85
226.978	53.46
227.195	40.46
227.413	25.9
227.63	10.46
227.847	20.52
228.064	19.73
228.282	17.83
228.499	18.45
228.716	19.3
228.934	16.99
229.151	15.59
229.368	19.9
229.585	15.64
229.802	18.43
230.02	20.11
230.237	18.43
230.454	20.72
230.671	21.62
230.888	23.46
231.105	22.17
231.323	23.59
231.54	24.91
231.757	22
231.974	25.04
232.191	20.29
232.408	16.02
232.625	12.04
232.842	3.81
233.059	11.1
233.276	10.81
233.493	7.08
233.71	6.97
233.927	16.02
234.144	11.9
234.361	15.71
234.578	17.84
234.795	23.48
235.012	19.67
235.229	16.55
235.446	12.33
235.663	8.15
235.879	3.21
236.096	4.38
236.313	3.34
236.53	7.15
236.747	6.72
236.964	2.87
237.181	-4.32
237.397	-6.53
237.614	0.48
237.831	-9.06
238.048	-1.46
238.264	8.86
238.481	8.69
238.698	8.32
238.915	8.36
239.131	4.43
239.348	11.98
239.565	9.46
239.781	3.11
239.998	-0.76
240.215	1.45
240.431	-3.66
240.648	-4.65
240.865	-3.96
241.081	1.01
241.298	2.05
241.514	2.46
241.731	4.61
241.947	7.24
242.164	10.11
242.38	10.25
242.597	14.02
242.814	14.49
243.03	14.66
243.246	15.02
243.463	13.15
243.679	12
243.896	11.26
244.112	10.89
244.329	10.86
244.545	12.83
244.762	13.4
244.978	11.69
245.194	14.63
245.411	13.08
245.627	14.28
245.843	14.06
246.06	15.28
246.276	16.46
246.492	15.44
246.709	13.87
246.925	13.31
247.141	13.57
247.357	12.23
247.574	10.9
247.79	11.01
248.006	11
248.222	10.17
248.439	9.68
248.655	8.41
248.871	6.95
249.087	6.03
249.303	4.43
249.519	1.92
249.736	3
249.952	3.49
250.168	5.38
250.384	1.47
250.6	-0.41
250.816	-0.55
251.032	1.88
251.248	2.33
251.464	5.4
251.68	4.59
251.896	8.02
252.112	8.05
252.328	7.61
252.544	8.73
252.76	10.26
252.976	12.82
253.192	12.99
253.408	13.84
253.624	14.06
253.84	13.37
254.056	16.39
254.272	13.28
254.487	13.37
254.703	11.23
254.919	7.32
255.135	7.75
255.351	7.7
255.567	5.56
255.782	2.75
255.998	6.05
256.214	6.25
256.43	7.59
256.646	6.26
256.861	6.06
257.077	6
257.293	7
257.508	6.5
257.724	6.53
257.94	8.92
258.155	9.29
258.371	9.99
258.587	9.73
258.802	10.32
259.018	12.07
259.234	12.5
259.449	11.78
259.665	11.22
259.88	12.21
260.096	11.64
260.312	11.3
260.527	10.68
260.743	10.4
260.958	10.28
261.174	9.43
261.389	9.68
261.605	9.27
261.82	10.07
262.036	10.18
262.251	8.95
262.466	9.56
262.682	9.64
262.897	11.35
263.113	11.22
263.328	12.66
263.543	14.17
263.759	13.4
263.974	11.98
264.189	11.97
264.405	12.33
264.62	11.56
264.835	12.41
265.051	10.7
265.266	10.55
265.481	8.21
265.696	9.19
265.912	8.35
266.127	7.86
266.342	7.1
266.557	5.82
266.773	7.56
266.988	9.42
267.203	8.44
267.418	9.61
267.633	7.33
267.848	8.21
268.064	8.56
268.279	8.36
268.494	7.63
268.709	10.7
268.924	11.44
269.139	11.53
269.354	10.58
269.569	10.2
269.784	8.84
269.999	10.98
270.214	13.17
270.429	12.24
270.644	11.42
270.859	13.47
271.074	13.89
271.289	11.83
271.504	10.81
271.719	9.28
271.934	10.41
272.149	11.12
272.363	12.75
272.578	12.18
272.793	11.89
273.008	12.98
273.223	11.53
273.438	9.39
273.653	11.04
273.867	11.75
274.082	13.03
274.297	13.65
274.512	13.86
274.726	12.25
274.941	11.14
275.156	12.29
275.371	9.54
275.585	8.61
275.8	9.28
276.015	11.5
276.229	7.75
276.444	6.92
276.659	5.18
276.873	3.19
277.088	1.46
277.302	1.51
277.517	-0.91
277.732	1.29
277.946	1.6
278.161	4.01
278.375	3.47
278.59	6.13
278.804	5.75
279.019	4.41
279.233	5.18
279.448	5.92
279.662	5.05
279.877	6.32
280.091	5.28
280.306	8.41
280.52	6.05
280.735	3.42
280.949	4.62
281.163	6.98
281.378	7.29
281.592	9.65
281.806	10.47
282.021	11.54
282.235	10.54
282.449	13.07
282.664	12.36
282.878	13.26
283.092	15.83
283.307	15.59
283.521	14.77
283.735	13.15
283.949	12.07
284.164	12.48
284.378	11.93
284.592	13.74
284.806	12.12
285.02	12.77
285.234	13.01
285.449	12.32
285.663	11.55
285.877	11.33
286.091	13.95
286.305	14.33
286.519	13.62
286.733	13.39
286.947	12.65
287.161	13.32
287.375	12.31
287.589	11
287.803	9.1
288.017	8.22
288.231	6.36
288.445	4.37
288.659	4.61
288.873	4.69
289.087	6.1
289.301	6.84
289.515	9.13
289.729	8.1
289.943	7.45
290.157	9.53
290.371	10.45
290.584	13.17
290.798	13.98
291.012	13.14
291.226	13.74
291.44	14.53
291.654	13.31
291.867	11.21
292.081	10.42
292.295	12.49
292.509	12.18
292.722	11.13
292.936	10.4
293.15	10.75
293.364	10.14
293.577	10.96
293.791	9.37
294.005	8.32
294.218	5.51
294.432	7.77
294.645	7.2
294.859	6.08
295.073	6.71
295.286	5.28
295.5	5.97
295.713	6.04
295.927	6.04
296.14	6.94
296.354	7.9
296.568	9.84
296.781	10.54
296.994	10.9
297.208	11.19
297.421	11.26
297.635	12.42
297.848	11.08
298.062	11.76
298.275	11.48
298.489	12
298.702	13.35
298.915	13.73
299.129	13.14
299.342	14.59
299.555	16.08
299.769	15.91
299.982	16.03
300.195	15.17
300.409	15.14
300.622	15.57
300.835	12.76
301.048	12.06
301.262	9.76
301.475	10.69
301.688	8.7
301.901	7.31
302.115	9.22
302.328	9.1
302.541	11.68
302.754	11.02
302.967	9.56
303.18	11.1
303.393	9.34
303.607	11.75
303.82	10.69
304.033	10.98
304.246	11.36
304.459	10.24
304.672	10.74
304.885	11.3
305.098	11.59
305.311	13.85
305.524	14.27
305.737	16.5
305.95	15.84
306.163	16.71
306.376	15.92
306.589	15.96
306.802	14.9
307.015	13.26
307.228	12.25
307.44	14.05
307.653	11.61
307.866	9.73
308.079	8.59
308.292	9.04
308.505	11.27
308.718	14.4
308.93	13.83
309.143	15.15
309.356	16.14
309.569	15
309.781	14.75
309.994	14.72
310.207	15.67
310.42	14.96
310.632	15.42
310.845	13.92
311.058	11.44
311.27	12.64
311.483	13.32
311.696	11.82
311.908	11.55
312.121	9.54
312.333	9.55
312.546	9.77
312.759	10.16
312.971	9.17
313.184	9.15
313.396	9.45
313.609	7.94
313.821	8.36
314.034	10.19
314.246	9.61
314.459	11.92
314.671	12.25
314.884	10.19
315.096	11.33
315.309	8.86
315.521	7.73
315.733	6.96
315.946	8.22
316.158	7.15
316.371	7.02
316.583	9.69
316.795	9.72
317.008	10.93
317.22	13.37
317.432	11.83
317.644	16.72
317.857	16
318.069	16.86
318.281	14.08
318.494	12.69
318.706	12.15
318.918	14.12
319.13	13.34
319.342	12.88
319.555	10.39
319.767	12.39
319.979	10.17
320.191	12.32
320.403	9.17
320.615	10.95
320.827	10.53
321.039	10.78
321.252	8.54
321.464	9.58
321.676	11.23
321.888	14.11
322.1	12.62
322.312	11.94
322.524	9.64
322.736	12.33
322.948	11.99
323.16	11.41
323.372	9.65
323.584	10.28
323.796	8.22
324.007	5.75
324.219	3.52
324.431	4.49
324.643	5.57
324.855	6.93
325.067	7.04
325.279	6.9
325.491	8.88
325.702	9.88
325.914	9.43
326.126	10.8
326.338	10.34
326.55	11.54
326.761	10.59
326.973	10.62
327.185	10.69
327.396	10.17
327.608	11.39
327.82	11.79
328.032	12.72
328.243	13.26
328.455	14.39
328.666	16.48
328.878	17.12
329.09	18.53
329.301	17.32
329.513	14.61
329.725	15.19
329.936	15.13
330.148	14.23
330.359	13.16
330.571	13.4
330.782	11.78
330.994	10.69
331.205	10.34
331.417	9.42
331.628	9.78
331.84	14.13
332.051	15.88
332.262	15.44
332.474	16.13
332.685	15.37
332.897	15.27
333.108	16.73
333.319	15.58
333.531	14.74
333.742	17.22
333.953	17.44
334.165	15.61
334.376	14.69
334.587	14.03
334.799	13.56
335.01	15.7
335.221	15.95
335.432	15.02
335.644	16.63
335.855	15.09
336.066	13.87
336.277	12.94
336.488	15.94
336.7	14.68
336.911	17.36
337.122	19.6
337.333	19.85
337.544	18.58
337.755	18.88
337.966	17.26
338.177	18.68
338.388	17.12
338.599	18.9
338.811	17.1
339.022	18.43
339.233	16.57
339.444	13.7
339.655	13.07
339.866	14.22
340.076	14.97
340.287	15.5
340.498	15.89
340.709	16.48
340.92	15.57
341.131	16.53
341.342	14.9
341.553	13.98
341.764	14.32
341.975	12.51
342.185	11.57
342.396	9.24
342.607	10.11
342.818	10.04
343.029	10.29
343.239	11.66
343.45	10.59
343.661	11.25
343.872	11.98
344.082	11.6
344.293	13.63
344.504	15.11
344.714	15.58
344.925	15.94
345.136	17.45
345.346	16.98
345.557	15.42
345.768	15.13
345.978	15.59
346.189	15.17
346.399	15.32
346.61	13.97
346.821	13.53
347.031	14.05
347.242	13.78
347.452	11.91
347.663	13.2
347.873	13.1
348.084	14.54
348.294	14.45
348.504	14.17
348.715	14.55
348.925	15.09
349.136	15.16
349.346	13.5
349.557	14.91
349.767	15.99
349.977	14.17
350.188	15.69
350.398	15.13
350.608	15.08
350.819	14.71
351.029	14.44
351.239	14.66
351.449	13.79
351.66	12.41
351.87	10.31
352.08	8.89
352.29	8.21
352.501	6.53
352.711	7.33
352.921	7.71
353.131	9.21
353.341	9.24
353.552	10.39
353.762	11.01
353.972	14.81
354.182	15.68
354.392	16.08
354.602	17.25
354.812	16.3
355.022	16.18
355.232	15.13
355.442	15
355.652	15.71
355.862	14.65
356.072	12.86
356.282	12.33
356.492	11.83
356.702	11.9
356.912	11.67
357.122	14.33
357.332	12.95
357.542	13.69
357.752	13.71
357.962	13.05
358.171	12.6
358.381	13.32
358.591	12.83
358.801	12.68
359.011	13.09
359.221	13.71
359.43	13.07
359.64	14.52
359.85	14.36
360.06	13.24
360.269	13.7
360.479	13.19
360.689	13.65
360.899	13.17
361.108	13.93
361.318	13.79
361.528	13.82
361.737	13.81
361.947	13.12
362.156	12.87
362.366	13.37
362.576	12.96
362.785	13.62
362.995	14.43
363.204	14.68
363.414	14
363.623	14.75
363.833	14.5
364.042	13.88
364.252	14.38
364.461	14.17
364.671	15.35
364.88	14.22
365.09	13.93
365.299	13.98
365.509	13.97
365.718	14.73
365.927	13.27
366.137	13.68
366.346	13.54
366.555	12.25
366.765	12.95
366.974	11.68
367.183	12.31
367.393	12.83
367.602	11.44
367.811	11.94
368.021	11.66
368.23	12.22
368.439	10.96
368.648	11.25
368.857	11
369.067	10.48
369.276	10.1
369.485	10.07
369.694	9.9
369.903	9.53
370.112	9.42
370.321	8.96
370.531	9.24
370.74	9.46
370.949	8.84
371.158	9.72
371.367	10.35
371.576	11.08
371.785	12.18
371.994	11.75
372.203	13.08
372.412	12.98
372.621	12.93
372.83	11.87
373.039	12.29
373.248	12.49
373.457	12.54
373.666	12.17
373.874	12.18
374.083	11.91
374.292	12.4
374.501	11.9
374.71	12.01
374.919	11.56
375.128	11.2
375.336	11.96
375.545	12.08
375.754	11.58
375.963	10.99
376.171	10.61
376.38	10.26
376.589	9.55
376.798	9.77
377.006	9.34
377.215	9.92
377.424	10.82
377.632	9.91
377.841	9.38
378.05	10.04
378.258	9.74
378.467	9.74
378.675	9.69
378.884	10.08
379.093	10
379.301	10.52
379.51	10.25
379.718	10.37
379.927	10.83
380.135	11.45
380.344	11.31
380.552	13.2
380.761	13.57
380.969	14.02
381.177	13.54
381.386	13.29
381.594	12.87
381.803	13.72
382.011	12.95
382.219	12.71
382.428	12.8
382.636	12.18
382.845	10.75
383.053	10.61
383.261	10.16
383.469	10.58
383.678	10.55
383.886	10.39
384.094	9.37
384.302	9.38
384.511	8.82
384.719	8.35
384.927	8.71
385.135	8.76
385.343	8.52
385.552	8.59
385.76	8.01
385.968	7.8
386.176	7.57
386.384	7.95
386.592	8.43
386.8	8.67
387.008	8.91
387.216	8.7
387.424	8.98
387.633	8.45
387.841	8.1
388.049	8.51
388.257	8.23
388.465	8.44
388.672	8.51
388.88	8.23
389.088	8.16
389.296	7.58
389.504	7.43
389.712	7.4
389.92	7.81
390.128	7.83
390.336	7.79
390.544	8.22
390.751	8.37
390.959	8.05
391.167	7.95
391.375	7.77
391.583	8.14
391.79	8.2
391.998	7.88
392.206	7.51
392.414	7.2
392.621	6.86
392.829	6.6
393.037	6.64
393.244	6.32
393.452	6.05
393.66	6.28
393.867	6.21
394.075	6.01
394.283	5.91
394.49	6.07
394.698	6.06
394.905	6.23
395.113	6.08
395.32	5.82
395.528	5.94
395.735	6.47
395.943	6.1
396.15	6.07
396.358	6.27
396.565	6.35
396.773	6.52
396.98	6.22
397.188	6.52
397.395	6.66
397.602	6.26
397.81	6.33
398.017	5.85
398.225	6.22
398.432	6.13
398.639	6.1
398.847	6.27
399.054	6.09
399.261	6.56
399.468	6.09
399.676	5.98
399.883	6.38
400.09	6.31
400.297	6.36
400.505	6.24
400.712	6.36
400.919	6.25
401.126	6.02
401.333	6.21
401.54	6.56
401.748	6.8
401.955	6.95
402.162	6.9
402.369	7.04
402.576	7.53
402.783	7.3
402.99	6.98
403.197	6.94
403.404	6.82
403.611	6.76
403.818	6.47
404.025	6.53
404.232	6.56
404.439	6.85
404.646	6.79
404.853	6.56
405.06	6.56
405.267	6.9
405.474	7.23
405.681	7.28
405.887	6.93
406.094	6.78
406.301	6.75
406.508	6.37
406.715	6.02
406.922	5.99
407.128	5.81
407.335	6.04
407.542	5.67
407.749	4.91
407.955	4.94
408.162	5.22
408.369	5.62
408.575	5.6
408.782	5.84
408.989	5.82
409.195	5.7
409.402	5.8
409.609	5.55
409.815	5.59
410.022	6.03
410.228	6.15
410.435	6.18
410.642	6.24
410.848	6.07
411.055	6.39
411.261	6.5
411.468	6.46
411.674	6.2
411.881	6.18
412.087	6.34
412.294	5.89
412.5	5.91
412.706	5.71
412.913	5.26
413.119	5.05
413.326	4.64
413.532	4.88
413.738	4.95
413.945	5.37
414.151	5.45
414.357	5.31
414.564	5.93
414.77	5.73
414.976	6.13
415.182	6.18
415.389	6.66
415.595	6.49
415.801	6.35
416.007	6.51
416.214	6.24
416.42	6.52
416.626	7
416.832	6.87
417.038	6.99
417.244	6.78
417.45	6.76
417.657	6.54
417.863	6.77
418.069	6.74
418.275	6.55
418.481	6.56
418.687	6.41
418.893	6.08
419.099	5.97
419.305	5.95
419.511	6.07
419.717	6.2
419.923	6.28
420.129	6.2
420.335	6.31
420.541	6.25
420.746	6.24
420.952	6.25
421.158	6.34
421.364	6.38
421.57	6.36
421.776	6.27
421.982	6.24
422.187	6.23
422.393	6.23
422.599	6.11
422.805	6.07
423.01	6.12
423.216	6.17
423.422	6.07
423.628	6.06
423.833	6.03
424.039	6.08
424.245	6.13
424.45	6
424.656	5.99
424.862	6.01
425.067	6.36
425.273	6.27
425.478	5.99
425.684	5.99
425.889	6.04
426.095	5.91
426.301	5.99
426.506	5.9
426.712	6.05
426.917	6.13
427.123	6.09
427.328	5.75
427.533	5.97
427.739	6.42
427.944	6.58
428.15	6.65
428.355	6.91
428.561	6.76
428.766	6.8
428.971	6.61
429.177	6.65
429.382	6.6
429.587	6.65
429.793	6.45
429.998	6.1
430.203	5.86
430.408	5.43
430.614	5.47
430.819	5.52
431.024	5.2
431.229	5.43
431.434	5.28
431.64	5.3
431.845	5.51
432.05	5.68
432.255	5.73
432.46	5.73
432.665	5.99
432.87	5.88
433.076	5.84
433.281	6.04
433.486	5.94
433.691	6
433.896	5.94
434.101	5.97
434.306	5.88
434.511	5.79
434.716	5.76
434.921	5.77
435.126	5.81
435.331	5.82
435.535	5.91
435.74	5.91
435.945	5.91
436.15	5.87
436.355	5.68
436.56	5.72
436.765	5.93
436.97	5.88
437.174	5.9
437.379	5.79
437.584	5.92
437.789	5.89
437.993	5.98
438.198	5.99
438.403	6.11
438.608	6.05
438.812	6.06
439.017	6.05
439.222	6.26
439.426	6.03
439.631	6.06
439.836	5.83
440.04	5.85
440.245	5.86
440.45	5.99
440.654	5.9
440.859	6
441.063	5.97
441.268	5.96
441.472	5.92
441.677	6.02
441.881	6.05
442.086	6.25
442.29	6.23
442.495	6.27
442.699	6.3
442.904	6.38
443.108	6.45
443.312	6.31
443.517	6.27
443.721	6.06
443.925	6.2
444.13	6.23
444.334	6.18
444.538	6.07
444.743	6.01
444.947	5.83
445.151	5.78
445.356	5.75
445.56	5.94
445.764	5.82
445.968	5.88
446.173	5.94
446.377	5.86
446.581	5.92
446.785	6.01
446.989	6.02
447.193	6.05
447.398	6.19
447.602	6.16
447.806	6.28
448.01	6.33
448.214	6.3
448.418	6.23
448.622	6.22
448.826	6.05
449.03	6.15
449.234	5.97
449.438	5.88
449.642	6.02
449.846	6.11
450.05	5.94
450.254	5.98
450.458	6.22
450.662	6.23
450.866	6.32
451.069	6.29
451.273	6.1
451.477	6.33
451.681	6.25
451.885	5.82
452.089	5.71
452.292	5.76
452.496	5.82
452.7	5.62
452.904	5.55
453.107	5.46
453.311	5.62
453.515	5.59
453.719	5.46
453.922	5.53
454.126	5.66
454.33	5.6
454.533	5.5
454.737	5.5
454.94	5.84
455.144	5.93
455.348	6.05
455.551	6.03
455.755	6.09
455.958	6.08
456.162	6.4
456.365	6.22
456.569	6.14
456.772	6.08
456.976	6.06
457.179	5.95
457.383	5.87
457.586	5.71
457.79	5.39
457.993	5.37
458.196	5.32
458.4	5.16
458.603	5.2
458.807	5.26
459.01	5.28
459.213	5.37
459.417	5.31
459.62	5.35
459.823	5.47
460.026	5.66
460.23	5.81
460.433	5.96
460.636	6.09
460.839	6.15
461.042	6.24
461.246	6.34
461.449	6.19
461.652	6.27
461.855	6.3
462.058	6.27
462.261	6.2
462.464	6
462.668	5.87
462.871	5.78
463.074	5.75
463.277	5.63
463.48	5.56
463.683	5.58
463.886	5.57
464.089	5.62
464.292	5.73
464.495	5.75
464.698	5.98
464.901	6.16
465.104	5.92
465.306	5.96
465.509	6.1
465.712	6.01
465.915	6.42
466.118	6.19
466.321	6.1
466.524	6.09
466.726	6.08
466.929	5.86
467.132	5.78
467.335	5.89
467.538	6.11
467.74	6.05
467.943	6.13
468.146	5.85
468.348	6.07
468.551	6.03
468.754	6.07
468.956	6.1
469.159	6.35
469.362	6.19
469.564	6.18
469.767	5.85
469.969	5.94
470.172	5.87
470.375	6.05
470.577	6.04
470.78	6.03
470.982	6.02
471.185	6.09
471.387	5.89
471.59	6.03
471.792	6.15
471.995	6.17
472.197	6.06
472.399	6.27
472.602	6
472.804	6.05
473.007	6.13
473.209	6.03
473.411	5.9
473.614	5.77
473.816	5.88
474.018	5.74
474.22	5.85
474.423	5.87
474.625	5.68
474.827	5.59
475.03	5.5
475.232	5.46
475.434	5.44
475.636	5.6
475.838	5.84
476.04	5.46
476.243	5.35
476.445	5.58
476.647	5.6
476.849	5.81
477.051	5.99
477.253	5.96
477.455	6.09
477.657	6.07
477.859	6.09
478.061	5.93
478.263	6.04
478.465	6.09
478.667	5.93
478.869	5.9
479.071	5.81
479.273	5.64
479.475	5.72
479.677	5.73
479.879	5.8
480.081	5.72
480.283	5.7
480.485	5.89
480.686	6
480.888	5.93
481.09	5.86
481.292	5.71
481.494	5.76
481.695	5.66
481.897	5.6
482.099	5.69
482.301	5.72
482.502	5.69
482.704	5.63
482.906	5.65
483.107	5.63
483.309	5.61
483.511	5.71
483.712	5.8
483.914	5.8
484.115	5.81
484.317	5.74
484.519	5.75
484.72	5.79
484.922	5.83
485.123	5.83
485.325	5.87
485.526	5.93
485.728	5.92
485.929	5.85
486.131	5.93
486.332	5.92
486.534	5.96
486.735	5.93
486.936	5.94
487.138	5.86
487.339	5.87
487.541	5.96
487.742	5.94
487.943	5.86
488.144	5.87
488.346	5.75
488.547	5.74
488.748	5.74
488.95	5.69
489.151	5.65
489.352	5.76
489.553	5.73
489.755	5.62
489.956	5.64
490.157	5.65
490.358	5.67
490.559	5.76
490.76	5.72
490.961	5.71
491.163	5.82
491.364	5.88
491.565	5.83
491.766	5.88
491.967	5.96
492.168	5.95
492.369	6.04
492.57	6.12
492.771	6.16
492.972	6.19
493.173	6.27
493.374	6.21
493.575	6.23
493.776	6.25
493.976	6.21
494.177	6.09
494.378	6.16
494.579	6.13
494.78	5.98
494.981	5.82
495.182	5.8
495.382	5.75
495.583	5.85
495.784	5.77
495.985	5.84
496.185	5.87
496.386	5.77
496.587	5.86
496.788	5.87
496.988	5.94
497.189	6.12
497.39	6.09
497.59	6.09
497.791	6.11
497.992	6.13
498.192	6.06
498.393	5.95
498.593	6.04
498.794	5.91
498.994	5.86
499.195	5.9
499.395	5.87
499.596	5.99
499.796	6.01
499.997	5.83
500.197	5.88
500.398	5.82
500.598	5.9
500.799	6.13
500.999	6.09
501.199	6.15
501.4	6.14
501.6	6.15
501.801	6.12
502.001	6.02
502.201	6.22
502.402	6.18
502.602	6.27
502.802	6.32
503.002	6.18
503.203	6.09
503.403	6.19
503.603	6.09
503.803	6.09
504.003	6.22
504.204	6.26
504.404	6.53
504.604	6.6
504.804	6.64
505.004	6.54
505.204	6.36
505.404	6.58
505.604	6.53
505.804	6.61
506.005	6.53
506.205	6.44
506.405	6.55
506.605	6.3
506.805	6.38
507.005	6.35
507.204	6.54
507.404	6.77
507.604	6.76
507.804	6.77
508.004	6.86
508.204	6.81
508.404	6.78
508.604	6.66
508.804	6.64
509.003	6.54
509.203	6.58
509.403	6.55
509.603	6.51
509.803	6.49
510.002	6.56
510.202	6.43
510.402	6.47
510.602	6.53
510.801	6.67
511.001	6.62
511.201	6.77
511.4	6.96
511.6	7.05
511.8	7.1
511.999	7.03
512.199	7.07
512.398	7.13
512.598	7.25
512.797	7.26
512.997	7.21
513.197	7.43
513.396	7.33
513.596	7.16
513.795	7.08
513.994	7.04
514.194	7.04
514.393	6.96
514.593	7.03
514.792	7.05
514.992	7.2
515.191	7.2
515.39	7.14
515.59	7.21
515.789	7.37
515.988	7.38
516.188	7.41
516.387	7.47
516.586	7.46
516.786	7.49
516.985	7.59
517.184	7.49
517.383	7.53
517.582	7.46
517.782	7.47
517.981	7.38
518.18	7.44
518.379	7.51
518.578	7.59
518.777	7.55
518.976	7.57
519.176	7.47
519.375	7.57
519.574	7.51
519.773	7.48
519.972	7.4
520.171	7.37
520.37	7.32
520.569	7.18
520.768	7.22
520.967	7.19
521.166	7.1
521.365	7.02
521.564	7.04
521.762	7.19
521.961	7.3
522.16	7.41
522.359	7.44
522.558	7.65
522.757	7.72
522.956	7.71
523.154	7.63
523.353	7.63
523.552	7.76
523.751	7.55
523.949	7.63
524.148	7.78
524.347	7.86
524.546	7.94
524.744	7.84
524.943	7.75
525.142	7.77
525.34	7.99
525.539	8.07
525.737	8.09
525.936	8.18
526.135	8.11
526.333	8.02
526.532	7.97
526.73	7.99
526.929	7.94
527.127	8.1
527.326	8.13
527.524	8.16
527.723	8.17
527.921	8.19
528.12	8.25
528.318	8.32
528.516	8.37
528.715	8.4
528.913	8.41
529.112	8.48
529.31	8.47
529.508	8.46
529.707	8.49
529.905	8.56
530.103	8.55
530.301	8.57
530.5	8.65
530.698	8.71
530.896	8.77
531.094	8.75
531.293	8.76
531.491	8.78
531.689	8.77
531.887	8.89
532.085	8.86
532.283	8.98
532.481	8.95
532.68	8.84
532.878	8.73
533.076	8.81
533.274	8.94
533.472	8.98
533.67	8.96
533.868	9.07
534.066	8.94
534.264	9.02
534.462	8.92
534.66	9.03
534.858	9.05
535.056	9.16
535.253	9.06
535.451	9.12
535.649	9.22
535.847	9.39
536.045	9.37
536.243	9.42
536.441	9.4
536.638	9.58
536.836	9.6
537.034	9.79
537.232	9.73
537.43	9.85
537.627	9.93
537.825	9.82
538.023	9.79
538.22	9.99
538.418	10.13
538.616	10.1
538.813	10.06
539.011	10.1
539.209	9.91
539.406	10.09
539.604	10.2
539.801	10.09
539.999	10.23
540.196	10.32
540.394	10.31
540.591	10.26
540.789	10.48
540.986	10.46
541.184	10.41
541.381	10.53
541.579	10.54
541.776	10.52
541.974	10.56
542.171	10.64
542.368	10.64
542.566	10.69
542.763	10.74
542.96	10.68
543.158	10.8
543.355	10.83
543.552	10.88
543.75	10.91
543.947	10.92
544.144	11.02
544.341	10.99
544.539	11.09
544.736	11.08
544.933	11.1
545.13	11.19
545.327	11.21
545.524	11.3
545.722	11.45
545.919	11.62
546.116	11.69
546.313	11.54
546.51	11.48
546.707	11.54
546.904	11.53
547.101	11.53
547.298	11.54
547.495	11.65
547.692	11.74
547.889	11.67
548.086	11.76
548.283	11.98
548.48	12.27
548.677	12.41
548.874	12.37
549.07	12.49
549.267	12.73
549.464	12.88
549.661	12.82
549.858	12.76
550.055	12.8
550.251	12.64
550.448	12.52
550.645	12.48
550.842	12.69
551.038	12.79
551.235	12.85
551.432	12.9
551.628	12.84
551.825	12.92
552.022	13.17
552.218	13.29
552.415	13.51
552.612	13.54
552.808	13.54
553.005	13.46
553.201	13.57
553.398	13.77
553.594	13.82
553.791	14
553.987	14.15
554.184	14.26
554.38	14.2
554.577	14.17
554.773	14.19
554.97	14.41
555.166	14.52
555.362	14.56
555.559	14.58
555.755	14.68
555.952	14.67
556.148	14.73
556.344	14.64
556.541	14.89
556.737	14.92
556.933	15.19
557.129	14.97
557.326	15.04
557.522	15.11
557.718	15.18
557.914	15.26
558.11	15.49
558.307	15.35
558.503	15.41
558.699	15.61
558.895	15.8
559.091	15.83
559.287	16.22
559.483	16.4
559.679	16.33
559.876	16.31
560.072	16.46
560.268	16.44
560.464	16.47
560.66	16.7
560.856	16.69
561.052	16.68
561.247	16.73
561.443	16.75
561.639	16.85
561.835	17.04
562.031	17.11
562.227	17.16
562.423	17.18
562.619	17.59
562.815	17.56
563.01	17.71
563.206	17.98
563.402	17.96
563.598	17.97
563.793	18.02
563.989	18.05
564.185	18.24
564.381	18.15
564.576	18.35
564.772	18.47
564.968	18.67
565.163	18.58
565.359	18.4
565.555	18.5
565.75	18.64
565.946	18.79
566.141	19.01
566.337	19.18
566.532	19.5
566.728	19.48
566.923	19.48
567.119	19.45
567.314	19.53
567.51	19.68
567.705	19.75
567.901	19.9
568.096	19.95
568.292	20.14
568.487	20.13
568.682	20.03
568.878	20.15
569.073	20.29
569.268	20.5
569.464	20.71
569.659	20.92
569.854	21.2
570.05	21.23
570.245	21.31
570.44	21.17
570.635	21.07
570.831	21.12
571.026	20.94
571.221	20.84
571.416	20.89
571.611	20.84
571.806	20.77
572.002	20.82
572.197	20.84
572.392	20.85
572.587	21.03
572.782	21.17
572.977	21.28
573.172	21.57
573.367	21.58
573.562	21.69
573.757	21.72
573.952	21.68
574.147	21.45
574.342	21.52
574.537	21.51
574.732	21.42
574.927	21.44
575.121	21.51
575.316	21.63
575.511	21.72
575.706	21.51
575.901	21.7
576.096	21.85
576.29	22.19
576.485	22.27
576.68	22.49
576.875	22.53
577.069	22.82
577.264	22.7
577.459	22.59
577.654	22.57
577.848	22.71
578.043	22.66
578.238	22.55
578.432	22.53
578.627	22.61
578.821	22.46
579.016	22.9
579.21	22.7
579.405	22.64
579.6	22.83
579.794	23.19
579.989	23.29
580.183	23.36
580.378	23.56
580.572	23.55
580.766	23.45
580.961	23.57
581.155	23.4
581.35	23.48
581.544	23.91
581.738	24.01
581.933	24.1
582.127	24.39
582.321	24.44
582.516	24.52
582.71	24.41
582.904	24.52
583.099	24.63
583.293	24.53
583.487	24.37
583.681	24.54
583.875	24.37
584.07	24.13
584.264	24.14
584.458	24.1
584.652	24.17
584.846	24.23
585.04	24.07
585.234	23.96
585.428	23.91
585.623	24.16
585.817	23.89
586.011	24
586.205	24.31
586.399	24.08
586.593	24.18
586.787	24.32
586.981	24.39
587.174	24.69
587.368	24.51
587.562	24.76
587.756	24.67
587.95	24.9
588.144	24.95
588.338	24.83
588.532	24.92
588.725	24.94
588.919	24.95
589.113	25.15
589.307	25.02
589.501	25.38
589.694	25.02
589.888	25.14
590.082	25.24
590.275	25.31
590.469	25.23
590.663	25.47
590.856	25.36
591.05	25.44
591.244	25.44
591.437	25.6
591.631	25.43
591.824	25.67
592.018	25.71
592.212	25.55
592.405	25.37
592.599	25.74
592.792	25.39
592.986	25.33
593.179	25.34
593.372	25.1
593.566	24.78
593.759	24.92
593.953	25.25
594.146	25.13
594.339	25.11
594.533	25.42
594.726	25.19
594.92	25.39
595.113	25.64
595.306	25.84
595.499	26.07
595.693	26.17
595.886	26.19
596.079	26.13
596.272	26.24
596.466	26.15
596.659	26.03
596.852	26.22
597.045	26.28
597.238	26.32
597.431	26.24
597.624	26.12
597.818	26.4
598.011	26.46
598.204	26.51
598.397	26.62
598.59	26.69
598.783	26.92
598.976	26.84
599.169	26.96
599.362	26.73
599.555	26.78
599.748	26.9
599.941	26.74
600.134	26.77
600.326	26.54
600.519	26.36
600.712	26.44
600.905	26.42
601.098	26.3
601.291	26.09
601.483	26.3
601.676	26.22
601.869	26.27
602.062	26.34
602.255	26.16
602.447	26.22
602.64	26.5
602.833	26.74
603.025	26.67
603.218	26.89
603.411	26.85
603.603	27.14
603.796	27.25
603.989	27.27
604.181	27.31
604.374	27.36
604.566	27.61
604.759	27.59
604.951	27.5
605.144	27.62
605.336	27.6
605.529	27.89
605.721	27.65
605.914	27.58
606.106	27.74
606.299	27.87
606.491	28
606.683	27.87
606.876	27.92
607.068	28.01
607.26	27.74
607.453	27.71
607.645	27.88
607.837	28.19
608.03	28.15
608.222	28
608.414	27.78
608.606	27.97
608.799	27.7
608.991	27.51
609.183	27.52
609.375	27.67
609.567	27.69
609.759	27.3
609.952	27.15
610.144	27.21
610.336	27.16
610.528	27.24
610.72	27.14
610.912	27.42
611.104	27.57
611.296	27.59
611.488	27.67
611.68	27.52
611.872	27.53
612.064	27.41
612.256	27.49
612.448	27.69
612.64	27.53
612.832	27.6
613.023	27.53
613.215	27.27
613.407	27.16
613.599	26.76
613.791	27.17
613.983	27.1
614.174	27.28
614.366	27.13
614.558	26.5
614.75	26.66
614.941	27.02
615.133	26.85
615.325	27.08
615.516	27.25
615.708	27.72
615.9	27.22
616.091	27.47
616.283	27.76
616.475	28.05
616.666	28.7
616.858	28.71
617.049	28.43
617.241	28.67
617.432	28.75
617.624	28.49
617.815	28.35
618.007	28.88
618.198	28.72
618.39	28.31
618.581	28.17
618.773	28.36
618.964	28.21
619.155	28.36
619.347	28.44
619.538	28.18
619.729	28.2
619.921	28.3
620.112	28.2
620.303	28.65
620.494	28.86
620.686	28.7
620.877	28.56
621.068	29.17
621.259	28.97
621.451	28.83
621.642	28.99
621.833	29.35
622.024	29.28
622.215	29.47
622.406	29.13
622.597	29.17
622.788	29.43
622.98	29.23
623.171	28.96
623.362	28.98
623.553	29.07
623.744	29.25
623.935	29.26
624.126	29.2
624.317	28.97
624.508	29.05
624.698	29.01
624.889	28.74
625.08	28.83
625.271	28.63
625.462	28.87
625.653	28.85
625.844	28.81
626.034	28.84
626.225	28.98
626.416	29.15
626.607	29.26
626.798	29.51
626.988	29.48
627.179	29.52
627.37	29.52
627.56	29.55
627.751	29.46
627.942	29.32
628.132	29.04
628.323	29.2
628.514	28.79
628.704	28.53
628.895	28.3
629.085	28.64
629.276	28.51
629.466	28.56
629.657	28.28
629.847	28.57
630.038	29.17
630.228	29.36
630.419	28.99
630.609	29.33
630.8	29.63
630.99	29.7
631.181	29.59
631.371	29.51
631.561	29.72
631.752	29.66
631.942	29.53
632.132	29.08
632.323	29.02
632.513	29.4
632.703	29.5
632.893	29.26
633.084	29.07
633.274	28.93
633.464	29.33
633.654	29.14
633.844	29.37
634.034	29.61
634.225	29.51
634.415	29.5
634.605	29.17
634.795	29.1
634.985	29.31
635.175	29.37
635.365	29.85
635.555	29.87
635.745	30.19
635.935	30.27
636.125	30.09
636.315	30.43
636.505	30.69
636.695	30.85
636.885	30.76
637.075	30.5
637.265	30.79
637.455	30.32
637.644	30.42
637.834	29.98
638.024	29.83
638.214	29.81
638.404	29.58
638.593	29.58
638.783	29.72
638.973	29.87
639.163	29.94
639.352	29.78
639.542	30.11
639.732	29.76
639.921	30.26
640.111	30.22
640.301	30.29
640.49	30.24
640.68	30.28
640.87	30.33
641.059	30.01
641.249	30.35
641.438	30.06
641.628	29.91
641.817	30.12
642.007	30.34
642.196	30.06
642.386	29.88
642.575	29.65
642.764	29.22
642.954	28.82
643.143	29.25
643.333	29.09
643.522	28.83
643.711	28.7
643.901	28.44
644.09	27.73
644.279	28.2
644.469	28.33
644.658	29.05
644.847	29.68
645.036	30
645.226	29.92
645.415	30
645.604	30.35
645.793	30.64
645.982	30.66
646.171	30.71
646.361	30.6
646.55	30.47
646.739	30.4
646.928	29.82
647.117	29.67
647.306	29.76
647.495	29.89
647.684	29.79
647.873	29.55
648.062	29.58
648.251	29.66
648.44	29.84
648.629	29.88
648.818	29.6
649.007	29.94
649.196	30.28
649.384	29.99
649.573	29.85
649.762	30.11
649.951	30.01
650.14	30.03
650.328	30.32
650.517	30.14
650.706	30.48
650.895	30.48
651.083	30.66
651.272	30.25
651.461	30.43
651.65	30.35
651.838	30.13
652.027	30.38
652.216	30.7
652.404	30.45
652.593	30.64
652.781	30.41
652.97	30.42
653.158	30.22
653.347	30.2
653.535	29.97
653.724	30.08
653.912	30.35
654.101	30.46
654.289	29.92
654.478	30.27
654.666	29.94
654.855	29.93
655.043	30.22
655.231	29.94
655.42	30.15
655.608	30.84
655.796	30.71
655.985	30.57
656.173	30.08
656.361	30.57
656.55	30.28
656.738	30.42
656.926	30.53
657.114	29.75
657.302	29.94
657.491	29.71
657.679	29.33
657.867	29.83
658.055	30.09
658.243	30.88
658.431	30.79
658.619	30.85
658.807	31.19
658.996	31.09
659.184	31.45
659.372	31.34
659.56	31.67
659.748	31.4
659.936	31.11
660.124	31.43
660.311	30.95
660.499	31.15
660.687	31.32
660.875	30.87
661.063	31.08
661.251	31.33
661.439	31.25
661.627	31.54
661.814	31.76
662.002	31.99
662.19	31.45
662.378	31.54
662.565	31.07
662.753	30.74
662.941	30.51
663.129	30.52
663.316	30.5
663.504	30.78
663.692	30.26
663.879	30.48
664.067	30.45
664.254	30.48
664.442	30.07
664.63	30.19
664.817	30.15
665.005	30.38
665.192	30.17
665.38	29.78
665.567	29.44
665.755	29.81
665.942	29.3
666.13	29.12
666.317	29.05
666.504	29.54
666.692	29.41
666.879	29.84
667.067	30.52
667.254	30.37
667.441	30.5
667.629	30.95
667.816	30.32
668.003	30.84
668.19	31.3
668.378	31.64
668.565	31.03
668.752	30.74
668.939	30.48
669.127	29.9
669.314	30.25
669.501	30.32
669.688	30.39
669.875	30.76
670.062	31.02
670.249	30.39
670.436	30.23
670.623	30.94
670.81	31.25
670.997	31.52
671.184	31.24
671.371	31.56
671.558	31.78
671.745	31.47
671.932	31.43
672.119	31.04
672.306	31.15
672.493	31.38
672.68	31.04
672.867	31.93
673.054	31.82
673.24	32.27
673.427	31.3
673.614	31.24
673.801	30.92
673.988	30.82
674.174	31.33
674.361	31.31
674.548	31.35
674.734	31.85
674.921	31.27
675.108	31.09
675.294	31.09
675.481	31.81
675.668	31.84
675.854	32.62
676.041	32.31
676.227	31.43
676.414	31.64
676.601	31.28
676.787	30.92
676.974	30.86
677.16	30.89
677.347	31.08
677.533	30.88
677.719	30.6
677.906	30.86
678.092	30.68
678.279	31.42
678.465	31.56
678.651	32.19
678.838	32.52
679.024	32.22
679.21	32.39
679.397	32.02
679.583	32.3
679.769	32.6
679.955	32.24
680.142	32.71
680.328	32.45
680.514	32.82
680.7	32.21
680.886	31.92
681.073	32.03
681.259	31.77
681.445	32.69
681.631	32.78
681.817	32.84
682.003	32.84
682.189	32.82
682.375	32.57
682.561	32.22
682.747	32.23
682.933	32.19
683.119	32.74
683.305	33.07
683.491	32.66
683.677	32.68
683.863	32.87
684.049	32.46
684.235	32.64
684.42	32.94
684.606	33
684.792	33.18
684.978	33.58
685.164	32.95
685.349	33.07
685.535	32.62
685.721	32.15
685.907	31.65
686.092	32.28
686.278	32.45
686.464	32.64
686.649	32.26
686.835	31.98
687.021	31.38
687.206	31.59
687.392	31.76
687.577	32.03
687.763	32.3
687.948	32.04
688.134	32.14
688.319	31.95
688.505	31.81
688.69	32.15
688.876	32.88
689.061	33.04
689.247	33.05
689.432	33.04
689.618	33.24
689.803	32.65
689.988	32.83
690.174	32.49
690.359	32.14
690.544	32.07
690.73	32.04
690.915	31.67
691.1	31.38
691.285	31.62
691.471	31.14
691.656	30.96
691.841	31.5
692.026	31.24
692.211	31.44
692.396	31.66
692.582	31.71
692.767	31.81
692.952	31.12
693.137	31.34
693.322	30.76
693.507	30.57
693.692	30.23
693.877	30.17
694.062	30.95
694.247	30.4
694.432	30.48
694.617	30.2
694.802	29.82
694.987	30.63
695.172	31.04
695.357	32.38
695.541	33.26
695.726	33.33
695.911	33.1
696.096	33.34
696.281	33.58
696.466	34.1
696.65	34.33
696.835	34.33
697.02	33.98
697.204	33.98
697.389	33.33
697.574	32.67
697.759	33.29
697.943	33.48
698.128	33.23
698.312	33.8
698.497	33.33
698.682	33.25
698.866	33.64
699.051	33.56
699.235	33.26
699.42	33.46
699.604	33.35
699.789	32.7
699.973	32.24
700.158	32.4
700.342	31.93
700.527	32.37
700.711	32.9
700.895	32.58
701.08	33.22
701.264	33.85
701.448	33.55
701.633	33.52
701.817	34.43
702.001	34.43
702.186	33.68
702.37	33.89
702.554	33.34
702.738	32.66
702.923	32.32
703.107	30.83
703.291	30.22
703.475	29.91
703.659	30.13
703.843	29.08
704.027	29.64
704.212	30.3
704.396	30.28
704.58	29.74
704.764	29.31
704.948	29.39
705.132	29.68
705.316	30.34
705.5	31.6
705.684	31.55
705.868	31.22
706.052	31.54
706.235	31.05
706.419	30.74
706.603	31.64
706.787	32.07
706.971	33.25
707.155	34.21
707.339	33.99
707.522	32.77
707.706	33.23
707.89	34.03
708.074	33.61
708.257	34.42
708.441	34.19
708.625	34.41
708.808	34.42
708.992	33.65
709.176	33.16
709.359	33.74
709.543	34.13
709.727	33.66
709.91	33.72
710.094	33.83
710.277	33.55
710.461	34.01
710.644	33.45
710.828	33.69
711.011	34.18
711.195	34.61
711.378	33.94
711.562	33.81
711.745	34.92
711.928	35.2
712.112	35.75
712.295	35.55
712.478	35.11
712.662	35.26
712.845	34.89
713.028	34.41
713.212	34.28
713.395	34.4
713.578	34.6
713.761	33.78
713.945	33.21
714.128	32.59
714.311	32.38
714.494	32.91
714.677	33.16
714.86	33.55
715.043	33.34
715.227	32.87
715.41	32.69
715.593	32.98
715.776	33.07
715.959	33.16
716.142	33.5
716.325	34.38
716.508	34.01
716.691	33.46
716.874	33.1
717.057	32.83
717.239	33.75
717.422	33.42
717.605	32.59
717.788	32.39
717.971	32.04
718.154	31.29
718.337	30.4
718.519	29.71
718.702	29.48
718.885	29.44
719.068	30.7
719.25	30.84
719.433	30.8
719.616	31.16
719.798	31.64
719.981	32.77
720.164	32.07
720.346	32.56
720.529	33.6
720.712	34.59
720.894	35.56
721.077	34.54
721.259	34.02
721.442	34.58
721.624	34.34
721.807	33.91
721.989	33.38
722.172	35.28
722.354	34.25
722.537	34.11
722.719	34.22
722.901	34.3
723.084	34.56
723.266	33.97
723.448	34.63
723.631	35.03
723.813	35.58
723.995	35.9
724.178	36.73
724.36	38.02
724.542	37.13
724.724	36.5
724.907	35.72
725.089	35.55
725.271	36.18
725.453	35.08
725.635	35.63
725.817	35.25
725.999	35.17
726.181	34.12
726.364	33.89
726.546	32.76
726.728	33.6
726.91	33.39
727.092	32.6
727.274	30.67
727.456	30.92
727.638	30.54
727.819	31.03
728.001	30.49
728.183	30.05
728.365	30.14
728.547	30.82
728.729	31.39
728.911	32.11
729.093	32.32
729.274	33.53
729.456	32.54
729.638	31.43
729.82	31.87
730.001	31.76
730.183	31.65
730.365	30.5
730.546	31.37
730.728	29.64
730.91	29.16
731.091	29.9
731.273	29.49
731.455	29.47
731.636	30.31
731.818	30.03
731.999	30.12
732.181	29.69
732.362	30.42
732.544	30.81
732.725	31.6
732.907	31.76
733.088	31.52
733.27	32.76
733.451	34.08
733.633	33.63
733.814	33.43
733.995	34.03
734.177	35.42
734.358	35.73
734.539	35.34
734.721	35.21
734.902	34.92
735.083	35.05
735.264	34
735.446	33.94
735.627	33.96
735.808	32.76
735.989	30.97
736.17	29.76
736.351	28.58
736.533	28.65
736.714	27.35
736.895	27.7
737.076	26.9
737.257	28.09
737.438	28.38
737.619	29.16
737.8	30.08
737.981	32.61
738.162	34.08
738.343	34.11
738.524	34.37
738.705	35.56
738.886	34.97
739.067	35.56
739.247	35.54
739.428	34.95
739.609	35.29
739.79	34.24
739.971	32.78
740.151	31.01
740.332	31.02
740.513	30.22
740.694	29.56
740.874	30.11
741.055	29.75
741.236	28.29
741.417	28.15
741.597	26.5
741.778	26.13
741.958	26.53
742.139	27.52
742.32	28.25
742.5	29.82
742.681	30.03
742.861	29.54
743.042	30.44
743.222	29.86
743.403	29.71
743.583	30.25
743.764	30.85
743.944	30.06
744.124	29.28
744.305	29.89
744.485	29.1
744.666	28.77
744.846	28.72
745.026	28.18
745.207	29.21
745.387	29.21
745.567	30.79
745.747	32.01
745.928	32.54
746.108	32.94
746.288	32.9
746.468	33.64
746.648	34.73
746.829	35.24
747.009	34.98
747.189	35.11
747.369	35.79
747.549	34.01
747.729	33.77
747.909	33.88
748.089	33.44
748.269	32.96
748.449	32.46
748.629	31.88
748.809	31.98
748.989	32.5
749.169	32.72
749.349	31.72
749.529	32.91
749.709	32.33
749.889	31.36
750.068	32.26
750.248	32.87
750.428	32.36
750.608	31.19
750.788	30.84
750.967	31.15
751.147	31.15
751.327	31.36
751.507	30.87
751.686	30.87
751.866	31.6
752.046	31.66
752.225	31.06
752.405	30.18
752.585	31.47
752.764	31.34
752.944	30.38
753.123	29.08
753.303	28.63
753.482	28.15
753.662	28.13
753.841	27.34
754.021	25.89
754.2	26.1
754.38	27.12
754.559	27.44
754.739	26.04
754.918	25.11
755.097	25.6
755.277	25.12
755.456	24.03
755.635	24.99
755.815	25.68
755.994	25.34
756.173	24.81
756.352	24.86
756.532	25.07
756.711	26.72
756.89	27.38
757.069	29.41
757.248	31.01
757.427	33.21
757.607	33.82
757.786	33.39
757.965	34.87
758.144	33.38
758.323	32.7
758.502	31.45
758.681	30.78
758.86	31.05
759.039	28.68
759.218	28.1
759.397	27.11
759.576	26.16
759.755	26.55
759.934	25.39
760.113	27.67
760.291	28.56
760.47	29.72
760.649	29.69
760.828	31.05
761.007	32.37
761.186	32.29
761.364	33.8
761.543	32.91
761.722	32.99
761.901	33.38
762.079	33.05
762.258	33.19
762.437	33.18
762.615	33.36
762.794	33
762.972	32.8
763.151	32.86
763.33	31.95
763.508	32.52
763.687	32.98
763.865	32.48
764.044	31.41
764.222	32.34
764.401	31.93
764.579	32.51
764.758	31.3
764.936	30.99
765.114	30.43
765.293	31.3
765.471	30.96
765.65	30.03
765.828	31.04
766.006	32.11
766.184	30.72
766.363	31.4
766.541	30.55
766.719	31.53
766.898	31.07
767.076	32.33
767.254	30.93
767.432	31.94
767.61	31.67
767.788	30.92
767.967	31.21
768.145	31.02
768.323	30.11
768.501	30.62
768.679	29.28
768.857	30.32
769.035	29.64
769.213	30.61
769.391	28.55
769.569	30.2
769.747	31.13
769.925	28.69
770.103	30.04
770.281	29.35
770.459	29.13
770.636	30.67
770.814	29.85
770.992	30.2
771.17	29.13
771.348	29.97
771.525	27.35
771.703	26.08
771.881	27.43
772.059	26.08
772.236	26.71
772.414	26.48
772.592	26.08
772.769	26.18
772.947	26.97
773.125	26.55
773.302	24.47
773.48	28.72
773.657	28.1
773.835	28.57
774.013	27.21
774.19	26.64
774.368	28.31
774.545	28.76
774.723	29.99
774.9	29.59
775.077	30.93
775.255	34.17
775.432	30.76
775.61	32.84
775.787	33.05
775.964	33.08
776.142	34.75
776.319	32.47
776.496	32.55
776.674	29.99
776.851	28.91
777.028	29.35
777.205	28.81
777.382	29.78
777.56	29.21
777.737	29.4
777.914	29.3
778.091	29.24
778.268	30.97
778.445	31.94
778.622	33.57
778.8	33.3
778.977	33.9
779.154	33.56
779.331	34.71
779.508	32.7
779.685	32.13
779.862	32.46
780.038	31.07
780.215	26.89
780.392	26.2
780.569	26.2
780.746	26.52
780.923	24.84
781.1	24.78
781.277	25.92
781.453	28.15
781.63	27.42
781.807	30.09
781.984	29.05
782.16	32.54
782.337	34.18
782.514	31.87
782.691	32.53
782.867	31.15
783.044	28.29
783.221	26.87
783.397	28.38
783.574	31.58
783.75	31.23
783.927	34.66
784.103	33.36
784.28	29.75
784.456	33.06
784.633	31.07
784.809	32.95
784.986	35.69
785.162	34.64
785.339	31.38
785.515	29.49
785.692	30.12
785.868	28.73
786.044	30.2
786.221	32.86
786.397	31.6
786.573	36.27
786.749	36.91
786.926	37.8
787.102	36.09
787.278	36.54
787.454	36.52
787.631	34.92
787.807	32.65
787.983	31.17
788.159	32.35
788.335	33.6
788.511	30.74
788.687	29.54
788.863	28.97
789.039	31.65
789.216	33.26
789.392	32.05
789.568	29.4
789.744	31.3
789.919	31.24
790.095	27.9
790.271	26.7
790.447	27.19
790.623	28.46
790.799	28.73
790.975	29.15
791.151	29.82
791.327	33.98
791.502	36.18
791.678	36.26
791.854	36.91
792.03	37.74
792.205	37.27
792.381	38.42
792.557	37.46
792.733	38.83
792.908	39.73
793.084	40.93
793.259	39.69
793.435	39.77
793.611	38.12
793.786	37.31
793.962	37.15
794.137	37.37
794.313	36.17
794.488	38.96
794.664	39.5
794.839	35.19
795.015	29.5
795.19	29.21
795.366	31.51
795.541	33.47
795.716	34.37
795.892	34.48
796.067	34.49
796.242	32.18
796.418	28.88
796.593	27.89
796.768	28.2
796.944	31.08
797.119	30.58
797.294	28.77
797.469	31.73
797.644	31.17
797.82	31.99
797.995	29.53
798.17	33.25
798.345	35.46
798.52	33.96
798.695	38.06
798.87	38.28
799.045	38.09
799.22	40.38
799.395	35.36
799.57	34.52
799.745	33.79
799.92	32.3
800.095	30.05
800.27	26.41
800.445	27.59
800.62	24.16
800.795	26.6
800.97	24.78
801.145	23.33
801.319	27.52
801.494	28.46
801.669	29.78
801.844	35.6
802.018	39.02
802.193	43.37
802.368	42.92
802.543	40.37
802.717	32.81
802.892	33.59
803.067	34.45
803.241	28.78
803.416	29.52
803.59	29.16
803.765	28.39
803.94	25.82
804.114	26.13
804.289	27.28
804.463	27.64
804.638	30.12
804.812	31.25
804.986	26.92
805.161	31.86
805.335	30.77
805.51	31.67
805.684	34.63
805.858	34.87
806.033	34.06
806.207	30.74
806.381	28.85
806.556	32.33
806.73	29.62
806.904	31.73
807.078	26.72
807.253	33.08
807.427	27.43
807.601	22.64
807.775	26.2
807.949	23.41
808.123	18
808.298	27.51
808.472	24.29
808.646	27.39
808.82	28.84
808.994	31.38
809.168	27.4
809.342	30.74
809.516	33.1
809.69	28.65
809.864	29.63
810.038	33.94
810.212	34.05
810.385	33.28
810.559	34.58
810.733	32.78
810.907	34.03
811.081	32.06
811.255	31.36
811.428	29.98
811.602	30.45
811.776	32.28
811.95	35.11
812.123	37.69
812.297	43.23
812.471	40.44
812.644	44.67
812.818	44.5
812.992	48.11
813.165	49.93
813.339	56.32
813.512	54.15
813.686	55.9
813.86	48.6
814.033	45.36
814.207	41.62
814.38	36.32
814.554	38.4
814.727	37.99
814.9	37.75
815.074	43.14
815.247	37.58
815.421	35.99
815.594	35.77
815.767	44.19
815.941	38.66
816.114	40.38
816.287	51.51
816.46	45.21
816.634	47.95
816.807	35.95
816.98	29.87
817.153	35.22
817.327	39.29
817.5	35.29
817.673	30.04
817.846	30.77
818.019	24.75
818.192	19.86
818.365	21.47
818.538	23.76
818.711	32.97
818.884	35.71
819.057	36.33
819.23	37.41
819.403	40.99
819.576	44.43
819.749	46.11
819.922	48.55
820.095	47.35
820.268	47.34
820.441	43.72
820.614	40.34
820.786	39.84
820.959	35.92
821.132	34.13
821.305	32.52
821.477	32.83
821.65	33.2
821.823	34.36
821.996	34.33
822.168	34.49
822.341	34.29
822.514	35.01
822.686	34.37
822.859	34.22
823.031	34.34
823.204	34.16
823.376	32.63
823.549	31.94
823.722	31.43
823.894	32.01
824.067	31.3
824.239	31.36
824.411	31.61
824.584	31.78
824.756	31.61
824.929	30.62
825.101	31.3
825.273	32.9
825.446	33.18
825.618	33.41
825.79	32
825.963	31.6
826.135	31.41
826.307	31
826.479	31.19
826.652	32.69
826.824	33.64
826.996	33.59
827.168	33.81
827.34	33.74
827.512	32.23
827.684	34.17
827.856	34.77
828.029	34.63
828.201	34.99
828.373	34.82
828.545	35.36
828.717	36.2
828.889	37.32
829.061	36.41
829.232	37.98
829.404	37.98
829.576	38.12
829.748	39
829.92	38.53
830.092	38.32
830.264	36.71
830.436	35.6
830.607	34.29
830.779	30.32
830.951	27.69
831.123	25
831.294	22.54
831.466	18.39
831.638	22.16
831.809	25.08
831.981	22.56
832.153	22.67
832.324	17.08
832.496	15.99
832.667	20.68
832.839	26.24
833.011	28.03
833.182	27.82
833.354	30.03
833.525	28.23
833.697	27.13
833.868	28.49
834.039	28.06
834.211	32.66
834.382	35.97
834.554	33.32
834.725	33.49
834.896	35.05
835.068	35.63
835.239	36.93
835.41	35.07
835.581	35.62
835.753	34.82
835.924	33.81
836.095	32.85
836.266	31.2
836.438	34.55
836.609	33.84
836.78	29.23
836.951	31.37
837.122	22.79
837.293	22.4
837.464	24.67
837.635	26.87
837.806	32.44
837.977	31.79
838.148	30.9
838.319	26.74
838.49	29.19
838.661	30.4
838.832	35.32
839.003	33.68
839.174	34.43
839.345	34.04
839.516	27.3
839.687	27.58
839.857	28.57
840.028	30.17
840.199	27.97
840.37	20.08
840.54	23.05
840.711	22.95
840.882	33.96
841.053	34.84
841.223	30.13
841.394	29.16
841.564	29.85
841.735	27.71
841.906	29.02
842.076	28.2
842.247	30.51
842.417	21.71
842.588	17.18
842.758	10.67
842.929	6.87
843.099	19.89
843.27	30.68
843.44	34.73
843.611	42.22
843.781	40.12
843.951	48.12
844.122	54.39
844.292	60.13
844.462	63.95
844.633	66.05
844.803	72.71
844.973	62.61
845.144	58.84
845.314	55.8
845.484	51.72
845.654	36.53
845.824	42.82
845.995	41.65
846.165	39.88
846.335	6.18
846.505	-6.51
846.675	-5.86
846.845	14.06
847.015	21.78
847.185	28.22
847.355	37.77
847.525	70.13
847.695	47.8
847.865	48
848.035	36.13
848.205	39.12
848.375	38.22
848.545	35.36
848.715	22.62
848.884	24.71
849.054	30.89
849.224	8.42
849.394	-0.29
849.564	16.88
849.733	5.91
849.903	7.54
850.073	2.6
850.243	1.66
850.412	-10.96
850.582	2.17
850.752	8.88
850.921	-37.46
851.091	-34.87
851.26	-142.3
851.43	-95
851.599	-232.45
851.769	-808.53
851.939	-181.45
852.108	-941.97
852.278	326.32
852.447	830.55
852.616	295.17
852.786	1092.58
852.955	-500.33
853.125	-157.16
853.294	-203.62
853.463	-169.82
853.633	-40.37
853.802	-2.72
853.971	1.65
854.141	21.34
854.31	30.84
854.479	40.72
854.648	42.91
854.818	41.2
854.987	46.28
855.156	50.99
855.325	55
855.494	48.3
855.663	35.98
855.832	34.1
856.001	34.16
856.171	39.26
856.34	32.8
856.509	46.72
856.678	59.52
856.847	55.9
857.016	56.34
857.185	46.61
857.353	49.93
857.522	48.4
857.691	64.81
857.86	67.35
858.029	45.59
858.198	57.08
858.367	39.57
858.535	-7.77
858.704	2.41
858.873	-38.96
859.042	-6.44
859.21	31.47
859.379	29.34
859.548	38.4
859.717	42.09
859.885	45.45
860.054	40.52
860.222	47.01
860.391	58.11
860.56	55.05
860.728	66.55
860.897	74.31
861.065	60.48
861.234	73.68
861.402	64.59
861.571	65.97
861.739	49.78
861.908	38.31
862.076	21.02
862.244	48.55
862.413	34.79
862.581	18.67
862.749	-25.23
862.918	-17.96
863.086	-3.95
863.254	2.14
863.423	-14.95
863.591	14.79
863.759	10.8
863.927	21.94
864.096	6.51
864.264	5.14
864.432	11.25
864.6	49.13
864.768	24.74
864.936	6.57
865.104	1.84
865.272	8.18
865.44	6.88
865.608	16.79
865.776	14.66
865.944	4.26
866.112	18.3
866.28	16.2
866.448	17.06
866.616	62
866.784	106.5
866.952	74.36
867.12	71.99
867.288	68.09
867.455	80.97
867.623	95.12
867.791	111.88
867.959	73.24
868.127	48.91
868.294	27.07
868.462	34.12
868.63	21.49
868.797	15.43
868.965	19.11
869.133	26.99
869.3	16.43
869.468	29.61
869.636	16.4
869.803	21.78
869.971	33.08
870.138	37.41
870.306	17.36
870.473	-10.99
870.641	11.39
870.808	1.66
870.975	-24.89
871.143	-67.49
871.31	-72.85
871.478	-66.73
871.645	-89.27
871.812	-73.39
871.98	-34.61
872.147	-51.11
872.314	-28.9
872.482	-73.81
872.649	-54
872.816	-60.36
872.983	-28.28
873.15	-90.34
873.318	-203.06
873.485	-214.95
873.652	-159.46
873.819	-568.07
873.986	-248.26
874.153	1018.24
874.32	310.63
874.487	512.66
874.654	2591.46
874.821	1282.98
874.988	-86.69
875.155	33.67
875.322	45.9
875.489	26.05
875.656	3.35
875.823	38.28
875.99	-15.77
876.157	54.9
876.324	34.42
876.49	97.7
876.657	84.73
876.824	49.88
876.991	14.16
877.157	0.05
877.324	7.72
877.491	5.13
877.658	-4.39
877.824	17.27
877.991	0.81
878.157	5.72
878.324	-35.97
878.491	-82.51
878.657	-8.59
878.824	2.95
878.99	-4.43
879.157	-21.11
879.323	-11.31
879.49	6.14
879.656	-1.15
879.823	7.1
879.989	-4.63
880.156	12.49
880.322	-2.82
880.488	-47.37
880.655	-101.01
880.821	20.81
880.987	40.09
881.154	39.21
881.32	39.67
881.486	45.16
881.652	36.07
881.819	49.73
881.985	44.95
882.151	47.81
882.317	44.71
882.483	48.06
882.649	47.58
882.816	41.55
882.982	43.23
883.148	42.94
883.314	41.5
883.48	43.15
883.646	37.6
883.812	37.64
883.978	37.68
884.144	36.92
884.31	34.38
884.476	31.79
884.642	30.57
884.807	30.55
884.973	29.4
885.139	28.25
885.305	23.78
885.471	31.39
885.637	28.03
885.802	27.12
885.968	30.44
886.134	32.99
886.3	36.59
886.465	39.69
886.631	37.29
886.797	37.14
886.962	40.2
887.128	42.91
887.293	30.81
887.459	32.33
887.625	38.15
887.79	41.06
887.956	45.96
888.121	41.6
888.287	48.17
888.452	45.95
888.618	56.28
888.783	39.44
